Potential applied (V)	WE(1).Current (A)	Time (s)
0.004425048828125	-0.0097869873046875	3787.91505943643
0.00885009765625	-0.0090576171875	3787.93718443638
0.013275146484375	-0.0083465576171875	3787.95930943632
0.0177001953125	-0.0076507568359375	3787.98143443627
0.022125244140625	-0.00697021484375	3788.00355943621
0.02655029296875	-0.006298828125	3788.02568443615
0.030975341796875	-0.0056396484375	3788.0478094361
0.035400390625	-0.0049957275390625	3788.06993443604
0.039825439453125	-0.0043597412109375	3788.09205943599
0.04425048828125	-0.00373443603515625	3788.11418443593
0.048675537109375	-0.00311798095703125	3788.13630943588
0.0531005859375	-0.002510986328125	3788.15843443582
0.057525634765625	-0.00192108154296875	3788.18055943576
0.06195068359375	-0.0013299560546875	3788.20268443571
0.066375732421875	-0.00074737548828125	3788.22480943565
0.07080078125	-0.0001732177734375	3788.2469344356
0.075225830078125	0.00039276123046875	3788.26905943554
0.07965087890625	0.0009490966796875	3788.29118443548
0.084075927734375	0.00150054931640625	3788.31330943543
0.0885009765625	0.002044677734375	3788.33543443537
0.092926025390625	0.00258331298828125	3788.35755943532
0.09735107421875	0.00311248779296875	3788.37968443526
0.101776123046875	0.0036358642578125	3788.4018094352
0.106201171875	0.004151611328125	3788.42393443515
0.110626220703125	0.00466033935546875	3788.44605943509
0.11505126953125	0.0051611328125	3788.46818443504
0.119476318359375	0.00565460205078125	3788.49030943498
0.1239013671875	0.006146240234375	3788.51243443493
0.128326416015625	0.0066162109375	3788.53455943487
0.13275146484375	0.00709228515625	3788.55668443481
0.137176513671875	0.007562255859375	3788.57880943476
0.1416015625	0.0080230712890625	3788.6009344347
0.146026611328125	0.0084808349609375	3788.62305943465
0.15045166015625	0.0089324951171875	3788.64518443459
0.154876708984375	0.009375	3788.66730943453
0.1593017578125	0.0098114013671875	3788.68943443448
0.163726806640625	0.0102447509765625	3788.71155943442
0.16815185546875	0.0106719970703125	3788.73368443437
0.172576904296875	0.011090087890625	3788.75580943431
0.177001953125	0.011505126953125	3788.77793443426
0.181427001953125	0.0119171142578125	3788.8000594342
0.18585205078125	0.012322998046875	3788.82218443414
0.190277099609375	0.0127197265625	3788.84430943409
0.1947021484375	0.013116455078125	3788.86643443403
0.199127197265625	0.0135040283203125	3788.88855943398
0.20355224609375	0.0138946533203125	3788.91068443392
0.207977294921875	0.01427001953125	3788.93280943386
0.21240234375	0.014642333984375	3788.95493443381
0.216827392578125	0.0150115966796875	3788.97705943375
0.22125244140625	0.015374755859375	3788.9991844337
0.225677490234375	0.0157318115234375	3789.02130943364
0.2301025390625	0.0160858154296875	3789.04343443358
0.234527587890625	0.0164306640625	3789.06555943353
0.23895263671875	0.0167724609375	3789.08768443347
0.243377685546875	0.0171112060546875	3789.10980943342
0.247802734375	0.0174407958984375	3789.13193443336
0.252227783203125	0.0177703857421875	3789.15405943331
0.25665283203125	0.0180908203125	3789.17618443325
0.261077880859375	0.0184112548828125	3789.19830943319
0.2655029296875	0.0187225341796875	3789.22043443314
0.269927978515625	0.0190338134765625	3789.24255943308
0.27435302734375	0.0193359375	3789.26468443303
0.278778076171875	0.019635009765625	3789.28680943297
0.283203125	0.019927978515625	3789.30893443291
0.287628173828125	0.020220947265625	3789.33105943286
0.29205322265625	0.020501708984375	3789.3531844328
0.296478271484375	0.020782470703125	3789.37530943275
0.3009033203125	0.02105712890625	3789.39743443269
0.305328369140625	0.0213287353515625	3789.41955943264
0.30975341796875	0.0215972900390625	3789.44168443258
0.314178466796875	0.021868896484375	3789.46380943252
0.318603515625	0.0221343994140625	3789.48593443247
0.323028564453125	0.0223907470703125	3789.50805943241
0.32745361328125	0.0226470947265625	3789.53018443236
0.331878662109375	0.0228973388671875	3789.5523094323
0.3363037109375	0.0231414794921875	3789.57443443224
0.340728759765625	0.023382568359375	3789.59655943219
0.34515380859375	0.0236114501953125	3789.61868443213
0.349578857421875	0.0238433837890625	3789.64080943208
0.35400390625	0.0240570068359375	3789.66293443202
0.358428955078125	0.0242767333984375	3789.68505943196
0.36285400390625	0.0244964599609375	3789.70718443191
0.367279052734375	0.0247344970703125	3789.72930943185
0.3717041015625	0.0249542236328125	3789.7514344318
0.376129150390625	0.025146484375	3789.77355943174
0.38055419921875	0.025341796875	3789.79568443169
0.384979248046875	0.02554931640625	3789.81780943163
0.389404296875	0.0257537841796875	3789.83993443157
0.393829345703125	0.025958251953125	3789.86205943152
0.39825439453125	0.0261474609375	3789.88418443146
0.402679443359375	0.026336669921875	3789.90630943141
0.4071044921875	0.0265167236328125	3789.92843443135
0.411529541015625	0.026690673828125	3789.95055943129
0.41595458984375	0.02686767578125	3789.97268443124
0.420379638671875	0.0270416259765625	3789.99480943118
0.4248046875	0.02720947265625	3790.01693443113
0.429229736328125	0.0273712158203125	3790.03905943107
0.43365478515625	0.027532958984375	3790.06118443102
0.438079833984375	0.027691650390625	3790.08330943096
0.4425048828125	0.0278472900390625	3790.1054344309
0.446929931640625	0.027996826171875	3790.12755943085
0.45135498046875	0.028143310546875	3790.14968443079
0.455780029296875	0.0282867431640625	3790.17180943074
0.460205078125	0.0284271240234375	3790.19393443068
0.464630126953125	0.028564453125	3790.21605943062
0.46905517578125	0.0287017822265625	3790.23818443057
0.473480224609375	0.0288330078125	3790.26030943051
0.4779052734375	0.028961181640625	3790.28243443046
0.482330322265625	0.02908935546875	3790.3045594304
0.48675537109375	0.0292144775390625	3790.32668443035
0.491180419921875	0.0293365478515625	3790.34880943029
0.49560546875	0.02945556640625	3790.37093443023
0.500030517578125	0.029571533203125	3790.39305943018
0.50445556640625	0.029681396484375	3790.41518443012
0.508880615234375	0.0297882080078125	3790.43730943007
0.5133056640625	0.0298980712890625	3790.45943443001
0.517730712890625	0.0300018310546875	3790.48155942995
0.52215576171875	0.0301055908203125	3790.5036844299
0.526580810546875	0.030206298828125	3790.52580942984
0.531005859375	0.030303955078125	3790.54793442979
0.535430908203125	0.0303985595703125	3790.57005942973
0.53985595703125	0.0304901123046875	3790.59218442967
0.544281005859375	0.03057861328125	3790.61430942962
0.5487060546875	0.0306640625	3790.63643442956
0.553131103515625	0.03074951171875	3790.65855942951
0.55755615234375	0.0308319091796875	3790.68068442945
0.561981201171875	0.030914306640625	3790.7028094294
0.56640625	0.03099365234375	3790.72493442934
0.570831298828125	0.0310699462890625	3790.74705942928
0.57525634765625	0.0311431884765625	3790.76918442923
0.579681396484375	0.0312164306640625	3790.79130942917
0.5841064453125	0.0312835693359375	3790.81343442912
0.588531494140625	0.0313507080078125	3790.83555942906
0.59295654296875	0.031414794921875	3790.857684429
0.597381591796875	0.03148193359375	3790.87980942895
0.601806640625	0.03154296875	3790.90193442889
0.606231689453125	0.03160400390625	3790.92405942884
0.61065673828125	0.0316619873046875	3790.94618442878
0.615081787109375	0.0317169189453125	3790.96830942873
0.6195068359375	0.0317718505859375	3790.99043442867
0.623931884765625	0.03182373046875	3791.01255942861
0.62835693359375	0.031884765625	3791.03468442856
0.632781982421875	0.03193359375	3791.0568094285
0.63720703125	0.0319793701171875	3791.07893442845
0.641632080078125	0.032025146484375	3791.10105942839
0.64605712890625	0.03206787109375	3791.12318442833
0.650482177734375	0.032110595703125	3791.14530942828
0.6549072265625	0.032147216796875	3791.16743442822
0.659332275390625	0.032183837890625	3791.18955942817
0.66375732421875	0.0322235107421875	3791.21168442811
0.668182373046875	0.032257080078125	3791.23380942805
0.672607421875	0.0322906494140625	3791.255934428
0.677032470703125	0.0323272705078125	3791.27805942794
0.68145751953125	0.0323577880859375	3791.30018442789
0.685882568359375	0.0323883056640625	3791.32230942783
0.6903076171875	0.0324188232421875	3791.34443442778
0.694732666015625	0.0324493408203125	3791.36655942772
0.69915771484375	0.0324737548828125	3791.38868442766
0.703582763671875	0.0324951171875	3791.41080942761
0.7080078125	0.03251953125	3791.43293442755
0.712432861328125	0.0325439453125	3791.4550594275
0.71685791015625	0.0325653076171875	3791.47718442744
0.721282958984375	0.0325836181640625	3791.49930942738
0.7257080078125	0.03260498046875	3791.52143442733
0.730133056640625	0.032623291015625	3791.54355942727
0.73455810546875	0.0326385498046875	3791.56568442722
0.738983154296875	0.0326568603515625	3791.58780942716
0.743408203125	0.0326690673828125	3791.60993442711
0.747833251953125	0.0326812744140625	3791.63205942705
0.75225830078125	0.0326904296875	3791.65418442699
0.756683349609375	0.0327056884765625	3791.67630942694
0.7611083984375	0.0327178955078125	3791.69843442688
0.765533447265625	0.03272705078125	3791.72055942683
0.76995849609375	0.0327392578125	3791.74268442677
0.774383544921875	0.03275146484375	3791.76480942671
0.77880859375	0.032757568359375	3791.78693442666
0.783233642578125	0.032763671875	3791.8090594266
0.78765869140625	0.0327728271484375	3791.83118442655
0.792083740234375	0.03277587890625	3791.85330942649
0.7965087890625	0.0327850341796875	3791.87543442643
0.800933837890625	0.0327911376953125	3791.89755942638
0.80535888671875	0.032794189453125	3791.91968442632
0.809783935546875	0.03280029296875	3791.94180942627
0.814208984375	0.0328033447265625	3791.96393442621
0.818634033203125	0.0328094482421875	3791.98605942616
0.82305908203125	0.0328125	3792.0081844261
0.827484130859375	0.032818603515625	3792.03030942604
0.8319091796875	0.0328216552734375	3792.05243442599
0.836334228515625	0.03282470703125	3792.07455942593
0.84075927734375	0.0328277587890625	3792.09668442588
0.845184326171875	0.0328277587890625	3792.11880942582
0.849609375	0.0328338623046875	3792.14093442576
0.854034423828125	0.0328369140625	3792.16305942571
0.85845947265625	0.032843017578125	3792.18518442565
0.862884521484375	0.032843017578125	3792.2073094256
0.8673095703125	0.0328460693359375	3792.22943442554
0.871734619140625	0.0328521728515625	3792.25155942549
0.87615966796875	0.0328582763671875	3792.27368442543
0.880584716796875	0.0328582763671875	3792.29580942537
0.885009765625	0.0328643798828125	3792.31793442532
0.889434814453125	0.03287353515625	3792.34005942526
0.89385986328125	0.0328826904296875	3792.36218442521
0.898284912109375	0.0328887939453125	3792.38430942515
0.9027099609375	0.0328948974609375	3792.40643442509
0.907135009765625	0.032904052734375	3792.42855942504
0.91156005859375	0.0329132080078125	3792.45068442498
0.915985107421875	0.0329193115234375	3792.47280942493
0.92041015625	0.0329345703125	3792.49493442487
0.924835205078125	0.0329437255859375	3792.51705942481
0.92926025390625	0.032952880859375	3792.53918442476
0.933685302734375	0.0329681396484375	3792.5613094247
0.9381103515625	0.032989501953125	3792.58343442465
0.942535400390625	0.0330047607421875	3792.60555942459
0.94696044921875	0.03302001953125	3792.62768442454
0.951385498046875	0.033038330078125	3792.64980942448
0.955810546875	0.0330596923828125	3792.67193442442
0.960235595703125	0.0330780029296875	3792.69405942437
0.96466064453125	0.033099365234375	3792.71618442431
0.969085693359375	0.033123779296875	3792.73830942426
0.9735107421875	0.033148193359375	3792.7604344242
0.977935791015625	0.03316650390625	3792.78255942414
0.98236083984375	0.033197021484375	3792.80468442409
0.986785888671875	0.0332244873046875	3792.82680942403
0.9912109375	0.033258056640625	3792.84893442398
0.995635986328125	0.03328857421875	3792.87105942392
1.00006103515625	0.0333251953125	3792.89318442387
0.995635986328125	0.0321075439453125	3792.91530942381
0.9912109375	0.0309356689453125	3792.93743442375
0.986785888671875	0.0298004150390625	3792.9595594237
0.98236083984375	0.02869873046875	3792.98168442364
0.977935791015625	0.02762451171875	3793.00380942359
0.9735107421875	0.026580810546875	3793.02593442353
0.969085693359375	0.0255615234375	3793.04805942347
0.96466064453125	0.0245635986328125	3793.07018442342
0.960235595703125	0.023590087890625	3793.09230942336
0.955810546875	0.022637939453125	3793.11443442331
0.951385498046875	0.021710205078125	3793.13655942325
0.94696044921875	0.0207977294921875	3793.1586844232
0.942535400390625	0.0199066162109375	3793.18080942314
0.9381103515625	0.01903076171875	3793.20293442308
0.933685302734375	0.0181671142578125	3793.22505942303
0.92926025390625	0.0173309326171875	3793.24718442297
0.924835205078125	0.0165069580078125	3793.26930942292
0.92041015625	0.0157012939453125	3793.29143442286
0.915985107421875	0.0149078369140625	3793.3135594228
0.91156005859375	0.014129638671875	3793.33568442275
0.907135009765625	0.0133697509765625	3793.35780942269
0.9027099609375	0.0126220703125	3793.37993442264
0.898284912109375	0.0118896484375	3793.40205942258
0.89385986328125	0.0111663818359375	3793.42418442252
0.889434814453125	0.0104644775390625	3793.44630942247
0.885009765625	0.0097686767578125	3793.46843442241
0.880584716796875	0.009088134765625	3793.49055942236
0.87615966796875	0.008416748046875	3793.5126844223
0.871734619140625	0.0077606201171875	3793.53480942225
0.8673095703125	0.007110595703125	3793.55693442219
0.862884521484375	0.0064727783203125	3793.57905942213
0.85845947265625	0.0058502197265625	3793.60118442208
0.854034423828125	0.00523681640625	3793.62330942202
0.849609375	0.00463226318359375	3793.64543442197
0.845184326171875	0.004039306640625	3793.66755942191
0.84075927734375	0.00345550537109375	3793.68968442185
0.836334228515625	0.002882080078125	3793.7118094218
0.8319091796875	0.00231903076171875	3793.73393442174
0.827484130859375	0.00176544189453125	3793.75605942169
0.82305908203125	0.00121917724609375	3793.77818442163
0.818634033203125	0.0006829833984375	3793.80030942158
0.814208984375	0.000154510498046875	3793.82243442152
0.809783935546875	-0.000364013671875	3793.84455942146
0.80535888671875	-0.00087310791015625	3793.86668442141
0.800933837890625	-0.00137451171875	3793.88880942135
0.7965087890625	-0.00186676025390625	3793.9109344213
0.792083740234375	-0.0023516845703125	3793.93305942124
0.78765869140625	-0.00282806396484375	3793.95518442118
0.783233642578125	-0.0032958984375	3793.97730942113
0.77880859375	-0.00375579833984375	3793.99943442107
0.774383544921875	-0.00420806884765625	3794.02155942102
0.76995849609375	-0.0046533203125	3794.04368442096
0.765533447265625	-0.0050909423828125	3794.0658094209
0.7611083984375	-0.00552001953125	3794.08793442085
0.756683349609375	-0.0059429931640625	3794.11005942079
0.75225830078125	-0.00635955810546875	3794.13218442074
0.747833251953125	-0.0067413330078125	3794.15430942068
0.743408203125	-0.00714111328125	3794.17643442063
0.738983154296875	-0.00753173828125	3794.19855942057
0.73455810546875	-0.0079132080078125	3794.22068442051
0.730133056640625	-0.008294677734375	3794.24280942046
0.7257080078125	-0.0086669921875	3794.2649344204
0.721282958984375	-0.0090362548828125	3794.28705942035
0.71685791015625	-0.0093963623046875	3794.30918442029
0.712432861328125	-0.0097503662109375	3794.33130942023
0.7080078125	-0.0100982666015625	3794.35343442018
0.703582763671875	-0.0104400634765625	3794.37555942012
0.69915771484375	-0.0107757568359375	3794.39768442007
0.694732666015625	-0.0110992431640625	3794.41980942001
0.6903076171875	-0.01142578125	3794.44193441996
0.685882568359375	-0.0117431640625	3794.4640594199
0.68145751953125	-0.0120574951171875	3794.48618441984
0.677032470703125	-0.01236572265625	3794.50830941979
0.672607421875	-0.012664794921875	3794.53043441973
0.668182373046875	-0.0129638671875	3794.55255941968
0.66375732421875	-0.0132537841796875	3794.57468441962
0.659332275390625	-0.0135406494140625	3794.59680941956
0.6549072265625	-0.013824462890625	3794.61893441951
0.650482177734375	-0.0140960693359375	3794.64105941945
0.64605712890625	-0.01436767578125	3794.6631844194
0.641632080078125	-0.01463623046875	3794.68530941934
0.63720703125	-0.014898681640625	3794.70743441928
0.632781982421875	-0.0151580810546875	3794.72955941923
0.62835693359375	-0.0154144287109375	3794.75168441917
0.623931884765625	-0.015667724609375	3794.77380941912
0.6195068359375	-0.015911865234375	3794.79593441906
0.615081787109375	-0.0161529541015625	3794.81805941901
0.61065673828125	-0.016387939453125	3794.84018441895
0.606231689453125	-0.0166229248046875	3794.86230941889
0.601806640625	-0.016851806640625	3794.88443441884
0.597381591796875	-0.0170745849609375	3794.90655941878
0.59295654296875	-0.017291259765625	3794.92868441873
0.588531494140625	-0.0175079345703125	3794.95080941867
0.5841064453125	-0.0177215576171875	3794.97293441861
0.579681396484375	-0.0179412841796875	3794.99505941856
0.57525634765625	-0.018157958984375	3795.0171844185
0.570831298828125	-0.018365478515625	3795.03930941845
0.56640625	-0.0185699462890625	3795.06143441839
0.561981201171875	-0.018768310546875	3795.08355941833
0.55755615234375	-0.018963623046875	3795.10568441828
0.553131103515625	-0.01915283203125	3795.12780941822
0.5487060546875	-0.019329833984375	3795.14993441817
0.544281005859375	-0.0195068359375	3795.17205941811
0.53985595703125	-0.0196929931640625	3795.19418441806
0.535430908203125	-0.0198760986328125	3795.216309418
0.531005859375	-0.0200714111328125	3795.23843441794
0.526580810546875	-0.0202545166015625	3795.26055941789
0.52215576171875	-0.0204193115234375	3795.28268441783
0.517730712890625	-0.020587158203125	3795.30480941778
0.5133056640625	-0.020758056640625	3795.32693441772
0.508880615234375	-0.0209259033203125	3795.34905941766
0.50445556640625	-0.0210906982421875	3795.37118441761
0.500030517578125	-0.0212554931640625	3795.39330941755
0.49560546875	-0.0214141845703125	3795.4154344175
0.491180419921875	-0.021575927734375	3795.43755941744
0.48675537109375	-0.0217376708984375	3795.45968441739
0.482330322265625	-0.0218902587890625	3795.48180941733
0.4779052734375	-0.0220428466796875	3795.50393441727
0.473480224609375	-0.0221954345703125	3795.52605941722
0.46905517578125	-0.022344970703125	3795.54818441716
0.464630126953125	-0.0224884033203125	3795.57030941711
0.460205078125	-0.0226348876953125	3795.59243441705
0.455780029296875	-0.0227783203125	3795.61455941699
0.45135498046875	-0.022918701171875	3795.63668441694
0.446929931640625	-0.02305908203125	3795.65880941688
0.4425048828125	-0.0231964111328125	3795.68093441683
0.438079833984375	-0.0233306884765625	3795.70305941677
0.43365478515625	-0.0234649658203125	3795.72518441671
0.429229736328125	-0.0235992431640625	3795.74730941666
0.4248046875	-0.02373046875	3795.7694344166
0.420379638671875	-0.0238616943359375	3795.79155941655
0.41595458984375	-0.0239898681640625	3795.81368441649
0.411529541015625	-0.02412109375	3795.83580941644
0.4071044921875	-0.0242462158203125	3795.85793441638
0.402679443359375	-0.0243743896484375	3795.88005941632
0.39825439453125	-0.02449951171875	3795.90218441627
0.393829345703125	-0.0246246337890625	3795.92430941621
0.389404296875	-0.0247467041015625	3795.94643441616
0.384979248046875	-0.02486572265625	3795.9685594161
0.38055419921875	-0.0249847412109375	3795.99068441605
0.376129150390625	-0.025103759765625	3796.01280941599
0.3717041015625	-0.0252227783203125	3796.03493441593
0.367279052734375	-0.0253448486328125	3796.05705941588
0.36285400390625	-0.0254638671875	3796.07918441582
0.358428955078125	-0.025579833984375	3796.10130941577
0.35400390625	-0.0256988525390625	3796.12343441571
0.349578857421875	-0.0258056640625	3796.14555941565
0.34515380859375	-0.0259185791015625	3796.1676844156
0.340728759765625	-0.026031494140625	3796.18980941554
0.3363037109375	-0.0261474609375	3796.21193441549
0.331878662109375	-0.0262603759765625	3796.23405941543
0.32745361328125	-0.0263702392578125	3796.25618441537
0.323028564453125	-0.0264801025390625	3796.27830941532
0.318603515625	-0.0265869140625	3796.30043441526
0.314178466796875	-0.0266937255859375	3796.32255941521
0.30975341796875	-0.026806640625	3796.34468441515
0.305328369140625	-0.0269134521484375	3796.3668094151
0.3009033203125	-0.027020263671875	3796.38893441504
0.296478271484375	-0.0271270751953125	3796.41105941498
0.29205322265625	-0.02723388671875	3796.43318441493
0.287628173828125	-0.027337646484375	3796.45530941487
0.283203125	-0.02744140625	3796.47743441482
0.278778076171875	-0.0275482177734375	3796.49955941476
0.27435302734375	-0.027655029296875	3796.5216844147
0.269927978515625	-0.0277587890625	3796.54380941465
0.2655029296875	-0.027862548828125	3796.56593441459
0.261077880859375	-0.0279632568359375	3796.58805941454
0.25665283203125	-0.028070068359375	3796.61018441448
0.252227783203125	-0.028167724609375	3796.63230941442
0.247802734375	-0.028271484375	3796.65443441437
0.243377685546875	-0.028375244140625	3796.67655941431
0.23895263671875	-0.0284759521484375	3796.69868441426
0.234527587890625	-0.0285736083984375	3796.7208094142
0.2301025390625	-0.02867431640625	3796.74293441415
0.225677490234375	-0.028778076171875	3796.76505941409
0.22125244140625	-0.028875732421875	3796.78718441403
0.216827392578125	-0.028973388671875	3796.80930941398
0.21240234375	-0.0290740966796875	3796.83143441392
0.207977294921875	-0.0291748046875	3796.85355941387
0.20355224609375	-0.0292755126953125	3796.87568441381
0.199127197265625	-0.0293731689453125	3796.89780941375
0.1947021484375	-0.0294677734375	3796.9199344137
0.190277099609375	-0.029571533203125	3796.94205941364
0.18585205078125	-0.0296661376953125	3796.96418441359
0.181427001953125	-0.0297637939453125	3796.98630941353
0.177001953125	-0.0298583984375	3797.00843441348
0.172576904296875	-0.0299591064453125	3797.03055941342
0.16815185546875	-0.0300537109375	3797.05268441336
0.163726806640625	-0.0301544189453125	3797.07480941331
0.1593017578125	-0.0302520751953125	3797.09693441325
0.154876708984375	-0.0303466796875	3797.1190594132
0.15045166015625	-0.0304443359375	3797.14118441314
0.146026611328125	-0.0305389404296875	3797.16330941308
0.1416015625	-0.0306365966796875	3797.18543441303
0.137176513671875	-0.0307342529296875	3797.20755941297
0.13275146484375	-0.0308319091796875	3797.22968441292
0.128326416015625	-0.030926513671875	3797.25180941286
0.1239013671875	-0.0310272216796875	3797.2739344128
0.119476318359375	-0.031121826171875	3797.29605941275
0.11505126953125	-0.0312103271484375	3797.31818441269
0.110626220703125	-0.031304931640625	3797.34030941264
0.106201171875	-0.0313995361328125	3797.36243441258
0.101776123046875	-0.0314971923828125	3797.38455941253
0.09735107421875	-0.0315948486328125	3797.40668441247
0.092926025390625	-0.031695556640625	3797.42880941241
0.0885009765625	-0.031793212890625	3797.45093441236
0.084075927734375	-0.031884765625	3797.4730594123
0.07965087890625	-0.031982421875	3797.49518441225
0.075225830078125	-0.032080078125	3797.51730941219
0.07080078125	-0.032177734375	3797.53943441213
0.066375732421875	-0.032275390625	3797.56155941208
0.06195068359375	-0.0323699951171875	3797.58368441202
0.057525634765625	-0.032470703125	3797.60580941197
0.0531005859375	-0.032568359375	3797.62793441191
0.048675537109375	-0.032666015625	3797.65005941186
0.04425048828125	-0.0327606201171875	3797.6721844118
0.039825439453125	-0.0328582763671875	3797.69430941174
0.035400390625	-0.0329559326171875	3797.71643441169
0.030975341796875	-0.033056640625	3797.73855941163
0.02655029296875	-0.033154296875	3797.76068441158
0.022125244140625	-0.033258056640625	3797.78280941152
0.0177001953125	-0.0333526611328125	3797.80493441146
0.013275146484375	-0.0334564208984375	3797.82705941141
0.00885009765625	-0.0335540771484375	3797.84918441135
0.004425048828125	-0.03365478515625	3797.8713094113
0	-0.03375244140625	3797.89343441124
0.004425048828125	-0.0325958251953125	3797.91555941118
0.00885009765625	-0.031475830078125	3797.93768441113
0.013275146484375	-0.0303863525390625	3797.95980941107
0.0177001953125	-0.0293243408203125	3797.98193441102
0.022125244140625	-0.02828369140625	3798.00405941096
0.02655029296875	-0.0272735595703125	3798.02618441091
0.030975341796875	-0.02628173828125	3798.04830941085
0.035400390625	-0.025311279296875	3798.07043441079
0.039825439453125	-0.0243560791015625	3798.09255941074
0.04425048828125	-0.02342529296875	3798.11468441068
0.048675537109375	-0.0225067138671875	3798.13680941063
0.0531005859375	-0.0216094970703125	3798.15893441057
0.057525634765625	-0.0207244873046875	3798.18105941051
0.06195068359375	-0.0198577880859375	3798.20318441046
0.066375732421875	-0.0190032958984375	3798.2253094104
0.07080078125	-0.0181640625	3798.24743441035
0.075225830078125	-0.017340087890625	3798.26955941029
0.07965087890625	-0.016534423828125	3798.29168441024
0.084075927734375	-0.0157379150390625	3798.31380941018
0.0885009765625	-0.0149566650390625	3798.33593441012
0.092926025390625	-0.0141876220703125	3798.35805941007
0.09735107421875	-0.0134307861328125	3798.38018441001
0.101776123046875	-0.0126861572265625	3798.40230940996
0.106201171875	-0.0119537353515625	3798.4244344099
0.110626220703125	-0.01123046875	3798.44655940984
0.11505126953125	-0.0105224609375	3798.46868440979
0.119476318359375	-0.0098236083984375	3798.49080940973
0.1239013671875	-0.0091339111328125	3798.51293440968
0.128326416015625	-0.0084564208984375	3798.53505940962
0.13275146484375	-0.0077880859375	3798.55718440956
0.137176513671875	-0.00712890625	3798.57930940951
0.1416015625	-0.0064788818359375	3798.60143440945
0.146026611328125	-0.005841064453125	3798.6235594094
0.15045166015625	-0.0052093505859375	3798.64568440934
0.154876708984375	-0.00459197998046875	3798.66780940929
0.1593017578125	-0.00398193359375	3798.68993440923
0.163726806640625	-0.00337890625	3798.71205940917
0.16815185546875	-0.00278564453125	3798.73418440912
0.172576904296875	-0.00220062255859375	3798.75630940906
0.177001953125	-0.00163177490234375	3798.77843440901
0.181427001953125	-0.00106170654296875	3798.80055940895
0.18585205078125	-0.00050048828125	3798.82268440889
0.190277099609375	5.303955078125E-05	3798.84480940884
0.1947021484375	0.00059783935546875	3798.86693440878
0.199127197265625	0.00113525390625	3798.88905940873
0.20355224609375	0.0016656494140625	3798.91118440867
0.207977294921875	0.00218963623046875	3798.93330940862
0.21240234375	0.00270538330078125	3798.95543440856
0.216827392578125	0.0032135009765625	3798.9775594085
0.22125244140625	0.003714599609375	3798.99968440845
0.225677490234375	0.00420867919921875	3799.02180940839
0.2301025390625	0.00469329833984375	3799.04393440834
0.234527587890625	0.00517303466796875	3799.06605940828
0.23895263671875	0.00564788818359375	3799.08818440822
0.243377685546875	0.0061151123046875	3799.11030940817
0.247802734375	0.006561279296875	3799.13243440811
0.252227783203125	0.0070159912109375	3799.15455940806
0.25665283203125	0.0074615478515625	3799.176684408
0.261077880859375	0.0078948974609375	3799.19880940795
0.2655029296875	0.0083282470703125	3799.22093440789
0.269927978515625	0.00875244140625	3799.24305940783
0.27435302734375	0.009173583984375	3799.26518440778
0.278778076171875	0.0095855712890625	3799.28730940772
0.283203125	0.0099945068359375	3799.30943440767
0.287628173828125	0.010394287109375	3799.33155940761
0.29205322265625	0.010791015625	3799.35368440755
0.296478271484375	0.011175537109375	3799.3758094075
0.3009033203125	0.01156005859375	3799.39793440744
0.305328369140625	0.0119384765625	3799.42005940739
0.30975341796875	0.0123138427734375	3799.44218440733
0.314178466796875	0.0126861572265625	3799.46430940727
0.318603515625	0.0130523681640625	3799.48643440722
0.323028564453125	0.013409423828125	3799.50855940716
0.32745361328125	0.0137603759765625	3799.53068440711
0.331878662109375	0.014105224609375	3799.55280940705
0.3363037109375	0.014447021484375	3799.574934407
0.340728759765625	0.0147796630859375	3799.59705940694
0.34515380859375	0.0151092529296875	3799.61918440688
0.349578857421875	0.0154327392578125	3799.64130940683
0.35400390625	0.0157470703125	3799.66343440677
0.358428955078125	0.0160614013671875	3799.68555940672
0.36285400390625	0.01636962890625	3799.70768440666
0.367279052734375	0.0166748046875	3799.7298094066
0.3717041015625	0.0169708251953125	3799.75193440655
0.376129150390625	0.0172637939453125	3799.77405940649
0.38055419921875	0.0175537109375	3799.79618440644
0.384979248046875	0.0178375244140625	3799.81830940638
0.389404296875	0.018115234375	3799.84043440633
0.393829345703125	0.018389892578125	3799.86255940627
0.39825439453125	0.018658447265625	3799.88468440621
0.402679443359375	0.0189208984375	3799.90680940616
0.4071044921875	0.019183349609375	3799.9289344061
0.411529541015625	0.019439697265625	3799.95105940605
0.41595458984375	0.01968994140625	3799.97318440599
0.420379638671875	0.0199371337890625	3799.99530940593
0.4248046875	0.0201812744140625	3800.01743440588
0.429229736328125	0.02042236328125	3800.03955940582
0.43365478515625	0.0206695556640625	3800.06168440577
0.438079833984375	0.0209014892578125	3800.08380940571
0.4425048828125	0.021136474609375	3800.10593440565
0.446929931640625	0.0213592529296875	3800.1280594056
0.45135498046875	0.02158203125	3800.15018440554
0.455780029296875	0.0218017578125	3800.17230940549
0.460205078125	0.02200927734375	3800.19443440543
0.464630126953125	0.0222198486328125	3800.21655940538
0.46905517578125	0.02242431640625	3800.23868440532
0.473480224609375	0.02261962890625	3800.26080940526
0.4779052734375	0.02281494140625	3800.28293440521
0.482330322265625	0.0230224609375	3800.30505940515
0.48675537109375	0.0232208251953125	3800.3271844051
0.491180419921875	0.0234039306640625	3800.34930940504
0.49560546875	0.0235748291015625	3800.37143440498
0.500030517578125	0.0237548828125	3800.39355940493
0.50445556640625	0.02393798828125	3800.41568440487
0.508880615234375	0.0241302490234375	3800.43780940482
0.5133056640625	0.0243011474609375	3800.45993440476
0.517730712890625	0.024468994140625	3800.48205940471
0.52215576171875	0.0246337890625	3800.50418440465
0.526580810546875	0.02479248046875	3800.52630940459
0.531005859375	0.0249481201171875	3800.54843440454
0.535430908203125	0.0251007080078125	3800.57055940448
0.53985595703125	0.0252532958984375	3800.59268440443
0.544281005859375	0.02540283203125	3800.61480940437
0.5487060546875	0.025543212890625	3800.63693440431
0.553131103515625	0.0256866455078125	3800.65905940426
0.55755615234375	0.0258270263671875	3800.6811844042
0.561981201171875	0.0259613037109375	3800.70330940415
0.56640625	0.026092529296875	3800.72543440409
0.570831298828125	0.0262237548828125	3800.74755940403
0.57525634765625	0.02635498046875	3800.76968440398
0.579681396484375	0.02647705078125	3800.79180940392
0.5841064453125	0.02659912109375	3800.81393440387
0.588531494140625	0.0267120361328125	3800.83605940381
0.59295654296875	0.0268280029296875	3800.85818440376
0.597381591796875	0.0269439697265625	3800.8803094037
0.601806640625	0.027056884765625	3800.90243440364
0.606231689453125	0.027166748046875	3800.92455940359
0.61065673828125	0.0272735595703125	3800.94668440353
0.615081787109375	0.02738037109375	3800.96880940348
0.6195068359375	0.0274810791015625	3800.99093440342
0.623931884765625	0.0275787353515625	3801.01305940336
0.62835693359375	0.0276885986328125	3801.03518440331
0.632781982421875	0.0277801513671875	3801.05730940325
0.63720703125	0.0278717041015625	3801.0794344032
0.641632080078125	0.02796630859375	3801.10155940314
0.64605712890625	0.0280517578125	3801.12368440309
0.650482177734375	0.02813720703125	3801.14580940303
0.6549072265625	0.02822265625	3801.16793440297
0.659332275390625	0.028302001953125	3801.19005940292
0.66375732421875	0.02838134765625	3801.21218440286
0.668182373046875	0.028460693359375	3801.23430940281
0.672607421875	0.0285369873046875	3801.25643440275
0.677032470703125	0.028607177734375	3801.27855940269
0.68145751953125	0.028680419921875	3801.30068440264
0.685882568359375	0.0287506103515625	3801.32280940258
0.6903076171875	0.02882080078125	3801.34493440253
0.694732666015625	0.028887939453125	3801.36705940247
0.69915771484375	0.0289520263671875	3801.38918440241
0.703582763671875	0.0290130615234375	3801.41130940236
0.7080078125	0.0290740966796875	3801.4334344023
0.712432861328125	0.02913818359375	3801.45555940225
0.71685791015625	0.0291961669921875	3801.47768440219
0.721282958984375	0.0292510986328125	3801.49980940214
0.7257080078125	0.029302978515625	3801.52193440208
0.730133056640625	0.0293548583984375	3801.54405940202
0.73455810546875	0.0294097900390625	3801.56618440197
0.738983154296875	0.029461669921875	3801.58830940191
0.743408203125	0.0295074462890625	3801.61043440186
0.747833251953125	0.0295562744140625	3801.6325594018
0.75225830078125	0.0295989990234375	3801.65468440174
0.756683349609375	0.0296478271484375	3801.67680940169
0.7611083984375	0.0296875	3801.69893440163
0.765533447265625	0.0297271728515625	3801.72105940158
0.76995849609375	0.029766845703125	3801.74318440152
0.774383544921875	0.0298126220703125	3801.76530940147
0.77880859375	0.029852294921875	3801.78743440141
0.783233642578125	0.029888916015625	3801.80955940135
0.78765869140625	0.029925537109375	3801.8316844013
0.792083740234375	0.0299652099609375	3801.85380940124
0.7965087890625	0.029998779296875	3801.87593440119
0.800933837890625	0.030035400390625	3801.89805940113
0.80535888671875	0.030072021484375	3801.92018440107
0.809783935546875	0.0301055908203125	3801.94230940102
0.814208984375	0.0301361083984375	3801.96443440096
0.818634033203125	0.030169677734375	3801.98655940091
0.82305908203125	0.0302001953125	3802.00868440085
0.827484130859375	0.030230712890625	3802.0308094008
0.8319091796875	0.03026123046875	3802.05293440074
0.836334228515625	0.030291748046875	3802.07505940068
0.84075927734375	0.030322265625	3802.09718440063
0.845184326171875	0.030352783203125	3802.11930940057
0.849609375	0.03038330078125	3802.14143440052
0.854034423828125	0.0304107666015625	3802.16355940046
0.85845947265625	0.0304412841796875	3802.1856844004
0.862884521484375	0.0304656982421875	3802.20780940035
0.8673095703125	0.0304962158203125	3802.22993440029
0.871734619140625	0.0305267333984375	3802.25205940024
0.87615966796875	0.03055419921875	3802.27418440018
0.880584716796875	0.0305816650390625	3802.29630940012
0.885009765625	0.030609130859375	3802.31843440007
0.889434814453125	0.0306396484375	3802.34055940001
0.89385986328125	0.0306671142578125	3802.36268439996
0.898284912109375	0.030694580078125	3802.3848093999
0.9027099609375	0.03072509765625	3802.40693439985
0.907135009765625	0.030755615234375	3802.42905939979
0.91156005859375	0.0307861328125	3802.45118439973
0.915985107421875	0.0308197021484375	3802.47330939968
0.92041015625	0.03084716796875	3802.49543439962
0.924835205078125	0.0308807373046875	3802.51755939957
0.92926025390625	0.030914306640625	3802.53968439951
0.933685302734375	0.03094482421875	3802.56180939945
0.9381103515625	0.0309844970703125	3802.5839343994
0.942535400390625	0.03101806640625	3802.60605939934
0.94696044921875	0.0310546875	3802.62818439929
0.951385498046875	0.03109130859375	3802.65030939923
0.955810546875	0.0311279296875	3802.67243439918
0.960235595703125	0.0311676025390625	3802.69455939912
0.96466064453125	0.0312042236328125	3802.71668439906
0.969085693359375	0.0312469482421875	3802.73880939901
0.9735107421875	0.0312896728515625	3802.76093439895
0.977935791015625	0.0313323974609375	3802.7830593989
0.98236083984375	0.0313812255859375	3802.80518439884
0.986785888671875	0.0314300537109375	3802.82730939878
0.9912109375	0.0314788818359375	3802.84943439873
0.995635986328125	0.0315277099609375	3802.87155939867
1.00006103515625	0.0315826416015625	3802.89368439862
0.995635986328125	0.03038330078125	3802.91580939856
0.9912109375	0.0292327880859375	3802.9379343985
0.986785888671875	0.028118896484375	3802.96005939845
0.98236083984375	0.027032470703125	3802.98218439839
0.977935791015625	0.025982666015625	3803.00430939834
0.9735107421875	0.0249603271484375	3803.02643439828
0.969085693359375	0.0239593505859375	3803.04855939823
0.96466064453125	0.0229827880859375	3803.07068439817
0.960235595703125	0.0220245361328125	3803.09280939811
0.955810546875	0.02109375	3803.11493439806
0.951385498046875	0.020184326171875	3803.137059398
0.94696044921875	0.0192901611328125	3803.15918439795
0.942535400390625	0.018414306640625	3803.18130939789
0.9381103515625	0.017559814453125	3803.20343439783
0.933685302734375	0.016717529296875	3803.22555939778
0.92926025390625	0.0158966064453125	3803.24768439772
0.924835205078125	0.0150970458984375	3803.26980939767
0.92041015625	0.014306640625	3803.29193439761
0.915985107421875	0.0135345458984375	3803.31405939755
0.91156005859375	0.012774658203125	3803.3361843975
0.907135009765625	0.0120330810546875	3803.35830939744
0.9027099609375	0.0113006591796875	3803.38043439739
0.898284912109375	0.010589599609375	3803.40255939733
0.89385986328125	0.009881591796875	3803.42468439728
0.889434814453125	0.0091949462890625	3803.44680939722
0.885009765625	0.008514404296875	3803.46893439716
0.880584716796875	0.0078460693359375	3803.49105939711
0.87615966796875	0.007196044921875	3803.51318439705
0.871734619140625	0.0065521240234375	3803.535309397
0.8673095703125	0.0059234619140625	3803.55743439694
0.862884521484375	0.0053009033203125	3803.57955939688
0.85845947265625	0.0046942138671875	3803.60168439683
0.854034423828125	0.00409576416015625	3803.62380939677
0.849609375	0.00350799560546875	3803.64593439672
0.845184326171875	0.0029296875	3803.66805939666
0.84075927734375	0.00236114501953125	3803.69018439661
0.836334228515625	0.00180389404296875	3803.71230939655
0.8319091796875	0.00125335693359375	3803.73443439649
0.827484130859375	0.00071258544921875	3803.75655939644
0.82305908203125	0.0001810302734375	3803.77868439638
0.818634033203125	-0.000340606689453125	3803.80080939633
0.814208984375	-0.0008544921875	3803.82293439627
0.809783935546875	-0.00135955810546875	3803.84505939621
0.80535888671875	-0.00185546875	3803.86718439616
0.800933837890625	-0.00234344482421875	3803.8893093961
0.7965087890625	-0.00282318115234375	3803.91143439605
0.792083740234375	-0.00329498291015625	3803.93355939599
0.78765869140625	-0.00375823974609375	3803.95568439594
0.783233642578125	-0.0042138671875	3803.97780939588
0.77880859375	-0.00466064453125	3803.99993439582
0.774383544921875	-0.00510162353515625	3804.02205939577
0.76995849609375	-0.00553375244140625	3804.04418439571
0.765533447265625	-0.00595855712890625	3804.06630939566
0.7611083984375	-0.006376953125	3804.0884343956
0.756683349609375	-0.0067596435546875	3804.11055939554
0.75225830078125	-0.0071624755859375	3804.13268439549
0.747833251953125	-0.0075592041015625	3804.15480939543
0.743408203125	-0.0079437255859375	3804.17693439538
0.738983154296875	-0.0083251953125	3804.19905939532
0.73455810546875	-0.008697509765625	3804.22118439526
0.730133056640625	-0.0090667724609375	3804.24330939521
0.7257080078125	-0.0094268798828125	3804.26543439515
0.721282958984375	-0.009783935546875	3804.2875593951
0.71685791015625	-0.0101318359375	3804.30968439504
0.712432861328125	-0.0104766845703125	3804.33180939499
0.7080078125	-0.0108154296875	3804.35393439493
0.703582763671875	-0.011138916015625	3804.37605939487
0.69915771484375	-0.0114654541015625	3804.39818439482
0.694732666015625	-0.0117828369140625	3804.42030939476
0.6903076171875	-0.0121002197265625	3804.44243439471
0.685882568359375	-0.012408447265625	3804.46455939465
0.68145751953125	-0.0127105712890625	3804.48668439459
0.677032470703125	-0.013006591796875	3804.50880939454
0.672607421875	-0.013299560546875	3804.53093439448
0.668182373046875	-0.01358642578125	3804.55305939443
0.66375732421875	-0.0138702392578125	3804.57518439437
0.659332275390625	-0.0141448974609375	3804.59730939432
0.6549072265625	-0.01441650390625	3804.61943439426
0.650482177734375	-0.01468505859375	3804.6415593942
0.64605712890625	-0.0149444580078125	3804.66368439415
0.641632080078125	-0.0152008056640625	3804.68580939409
0.63720703125	-0.0154541015625	3804.70793439404
0.632781982421875	-0.0157012939453125	3804.73005939398
0.62835693359375	-0.0159423828125	3804.75218439392
0.623931884765625	-0.0161895751953125	3804.77430939387
0.6195068359375	-0.016424560546875	3804.79643439381
0.615081787109375	-0.01666259765625	3804.81855939376
0.61065673828125	-0.01689453125	3804.8406843937
0.606231689453125	-0.01712646484375	3804.86280939364
0.601806640625	-0.0173492431640625	3804.88493439359
0.597381591796875	-0.01756591796875	3804.90705939353
0.59295654296875	-0.017779541015625	3804.92918439348
0.588531494140625	-0.0179840087890625	3804.95130939342
0.5841064453125	-0.0181732177734375	3804.97343439337
0.579681396484375	-0.01837158203125	3804.99555939331
0.57525634765625	-0.0185760498046875	3805.01768439325
0.570831298828125	-0.0187774658203125	3805.0398093932
0.56640625	-0.018988037109375	3805.06193439314
0.561981201171875	-0.019183349609375	3805.08405939309
0.55755615234375	-0.0193695068359375	3805.10618439303
0.553131103515625	-0.019549560546875	3805.12830939297
0.5487060546875	-0.019732666015625	3805.15043439292
0.544281005859375	-0.0199127197265625	3805.17255939286
0.53985595703125	-0.0200927734375	3805.19468439281
0.535430908203125	-0.0202667236328125	3805.21680939275
0.531005859375	-0.0204345703125	3805.2389343927
0.526580810546875	-0.02060546875	3805.26105939264
0.52215576171875	-0.0207794189453125	3805.28318439258
0.517730712890625	-0.020947265625	3805.30530939253
0.5133056640625	-0.0211090087890625	3805.32743439247
0.508880615234375	-0.021270751953125	3805.34955939242
0.50445556640625	-0.021429443359375	3805.37168439236
0.500030517578125	-0.0215850830078125	3805.3938093923
0.49560546875	-0.02174072265625	3805.41593439225
0.491180419921875	-0.02188720703125	3805.43805939219
0.48675537109375	-0.0220367431640625	3805.46018439214
0.482330322265625	-0.0221832275390625	3805.48230939208
0.4779052734375	-0.0223297119140625	3805.50443439202
0.473480224609375	-0.02247314453125	3805.52655939197
0.46905517578125	-0.02261962890625	3805.54868439191
0.464630126953125	-0.0227569580078125	3805.57080939186
0.460205078125	-0.0228973388671875	3805.5929343918
0.455780029296875	-0.0230377197265625	3805.61505939175
0.45135498046875	-0.023175048828125	3805.63718439169
0.446929931640625	-0.023309326171875	3805.65930939163
0.4425048828125	-0.0234405517578125	3805.68143439158
0.438079833984375	-0.0235687255859375	3805.70355939152
0.43365478515625	-0.023699951171875	3805.72568439147
0.429229736328125	-0.0238311767578125	3805.74780939141
0.4248046875	-0.0239593505859375	3805.76993439135
0.420379638671875	-0.024090576171875	3805.7920593913
0.41595458984375	-0.024212646484375	3805.81418439124
0.411529541015625	-0.024334716796875	3805.83630939119
0.4071044921875	-0.024462890625	3805.85843439113
0.402679443359375	-0.0245849609375	3805.88055939108
0.39825439453125	-0.0247039794921875	3805.90268439102
0.393829345703125	-0.0248260498046875	3805.92480939096
0.389404296875	-0.0249420166015625	3805.94693439091
0.384979248046875	-0.0250579833984375	3805.96905939085
0.38055419921875	-0.0251739501953125	3805.9911843908
0.376129150390625	-0.02529296875	3806.01330939074
0.3717041015625	-0.025408935546875	3806.03543439068
0.367279052734375	-0.02552490234375	3806.05755939063
0.36285400390625	-0.0256378173828125	3806.07968439057
0.358428955078125	-0.0257537841796875	3806.10180939052
0.35400390625	-0.0258636474609375	3806.12393439046
0.349578857421875	-0.0259735107421875	3806.1460593904
0.34515380859375	-0.0260833740234375	3806.16818439035
0.340728759765625	-0.0261932373046875	3806.19030939029
0.3363037109375	-0.0263031005859375	3806.21243439024
0.331878662109375	-0.0264129638671875	3806.23455939018
0.32745361328125	-0.026519775390625	3806.25668439013
0.323028564453125	-0.02662353515625	3806.27880939007
0.318603515625	-0.0267333984375	3806.30093439001
0.314178466796875	-0.0268402099609375	3806.32305938996
0.30975341796875	-0.0269500732421875	3806.3451843899
0.305328369140625	-0.027056884765625	3806.36730938985
0.3009033203125	-0.02716064453125	3806.38943438979
0.296478271484375	-0.027264404296875	3806.41155938973
0.29205322265625	-0.0273651123046875	3806.43368438968
0.287628173828125	-0.027471923828125	3806.45580938962
0.283203125	-0.02757568359375	3806.47793438957
0.278778076171875	-0.0276763916015625	3806.50005938951
0.27435302734375	-0.0277801513671875	3806.52218438946
0.269927978515625	-0.027880859375	3806.5443093894
0.2655029296875	-0.0279815673828125	3806.56643438934
0.261077880859375	-0.028082275390625	3806.58855938929
0.25665283203125	-0.028179931640625	3806.61068438923
0.252227783203125	-0.028277587890625	3806.63280938918
0.247802734375	-0.02838134765625	3806.65493438912
0.243377685546875	-0.0284820556640625	3806.67705938906
0.23895263671875	-0.028582763671875	3806.69918438901
0.234527587890625	-0.0286773681640625	3806.72130938895
0.2301025390625	-0.0287750244140625	3806.7434343889
0.225677490234375	-0.028875732421875	3806.76555938884
0.22125244140625	-0.028973388671875	3806.78768438879
0.216827392578125	-0.029071044921875	3806.80980938873
0.21240234375	-0.029168701171875	3806.83193438867
0.207977294921875	-0.029266357421875	3806.85405938862
0.20355224609375	-0.029364013671875	3806.87618438856
0.199127197265625	-0.0294647216796875	3806.89830938851
0.1947021484375	-0.0295562744140625	3806.92043438845
0.190277099609375	-0.02965087890625	3806.94255938839
0.18585205078125	-0.0297454833984375	3806.96468438834
0.181427001953125	-0.029840087890625	3806.98680938828
0.177001953125	-0.029937744140625	3807.00893438823
0.172576904296875	-0.030035400390625	3807.03105938817
0.16815185546875	-0.0301300048828125	3807.05318438811
0.163726806640625	-0.030224609375	3807.07530938806
0.1593017578125	-0.0303253173828125	3807.097434388
0.154876708984375	-0.0304168701171875	3807.11955938795
0.15045166015625	-0.030511474609375	3807.14168438789
0.146026611328125	-0.030609130859375	3807.16380938784
0.1416015625	-0.0307037353515625	3807.18593438778
0.137176513671875	-0.03079833984375	3807.20805938772
0.13275146484375	-0.03089599609375	3807.23018438767
0.128326416015625	-0.0309906005859375	3807.25230938761
0.1239013671875	-0.031085205078125	3807.27443438756
0.119476318359375	-0.0311798095703125	3807.2965593875
0.11505126953125	-0.0312713623046875	3807.31868438744
0.110626220703125	-0.031365966796875	3807.34080938739
0.106201171875	-0.0314605712890625	3807.36293438733
0.101776123046875	-0.031561279296875	3807.38505938728
0.09735107421875	-0.03165283203125	3807.40718438722
0.092926025390625	-0.03175048828125	3807.42930938717
0.0885009765625	-0.03184814453125	3807.45143438711
0.084075927734375	-0.03194580078125	3807.47355938705
0.07965087890625	-0.0320404052734375	3807.495684387
0.075225830078125	-0.0321319580078125	3807.51780938694
0.07080078125	-0.0322296142578125	3807.53993438689
0.066375732421875	-0.03232421875	3807.56205938683
0.06195068359375	-0.032421875	3807.58418438677
0.057525634765625	-0.03251953125	3807.60630938672
0.0531005859375	-0.0326171875	3807.62843438666
0.048675537109375	-0.03271484375	3807.65055938661
0.04425048828125	-0.0328094482421875	3807.67268438655
0.039825439453125	-0.032904052734375	3807.69480938649
0.035400390625	-0.0330078125	3807.71693438644
0.030975341796875	-0.0331024169921875	3807.73905938638
0.02655029296875	-0.033203125	3807.76118438633
0.022125244140625	-0.0333038330078125	3807.78330938627
0.0177001953125	-0.0333984375	3807.80543438622
0.013275146484375	-0.0334991455078125	3807.82755938616
0.00885009765625	-0.033599853515625	3807.8496843861
0.004425048828125	-0.033697509765625	3807.87180938605
0	-0.03380126953125	3807.89393438599
0.004425048828125	-0.032647705078125	3807.91605938594
0.00885009765625	-0.0315216064453125	3807.93818438588
0.013275146484375	-0.0304351806640625	3807.96030938582
0.0177001953125	-0.0293701171875	3807.98243438577
0.022125244140625	-0.02833251953125	3808.00455938571
0.02655029296875	-0.0273162841796875	3808.02668438566
0.030975341796875	-0.026324462890625	3808.0488093856
0.035400390625	-0.0253448486328125	3808.07093438555
0.039825439453125	-0.024395751953125	3808.09305938549
0.04425048828125	-0.0234619140625	3808.11518438543
0.048675537109375	-0.02254638671875	3808.13730938538
0.0531005859375	-0.0216461181640625	3808.15943438532
0.057525634765625	-0.02076416015625	3808.18155938527
0.06195068359375	-0.0198974609375	3808.20368438521
0.066375732421875	-0.01904296875	3808.22580938515
0.07080078125	-0.018206787109375	3808.2479343851
0.075225830078125	-0.0173828125	3808.27005938504
0.07965087890625	-0.0165771484375	3808.29218438499
0.084075927734375	-0.015777587890625	3808.31430938493
0.0885009765625	-0.014996337890625	3808.33643438487
0.092926025390625	-0.014227294921875	3808.35855938482
0.09735107421875	-0.013470458984375	3808.38068438476
0.101776123046875	-0.012725830078125	3808.40280938471
0.106201171875	-0.0119903564453125	3808.42493438465
0.110626220703125	-0.0112701416015625	3808.4470593846
0.11505126953125	-0.0105621337890625	3808.46918438454
0.119476318359375	-0.00986328125	3808.49130938448
0.1239013671875	-0.009173583984375	3808.51343438443
0.128326416015625	-0.0084930419921875	3808.53555938437
0.13275146484375	-0.0078216552734375	3808.55768438432
0.137176513671875	-0.00716552734375	3808.57980938426
0.1416015625	-0.0065185546875	3808.6019343842
0.146026611328125	-0.005877685546875	3808.62405938415
0.15045166015625	-0.0052490234375	3808.64618438409
0.154876708984375	-0.00462982177734375	3808.66830938404
0.1593017578125	-0.00401947021484375	3808.69043438398
0.163726806640625	-0.003416748046875	3808.71255938393
0.16815185546875	-0.002823486328125	3808.73468438387
0.172576904296875	-0.00223876953125	3808.75680938381
0.177001953125	-0.00166961669921875	3808.77893438376
0.181427001953125	-0.001099853515625	3808.8010593837
0.18585205078125	-0.0005389404296875	3808.82318438365
0.190277099609375	1.4910888671875E-05	3808.84530938359
0.1947021484375	0.00055999755859375	3808.86743438353
0.199127197265625	0.00109771728515625	3808.88955938348
0.20355224609375	0.0016278076171875	3808.91168438342
0.207977294921875	0.00215118408203125	3808.93380938337
0.21240234375	0.00266754150390625	3808.95593438331
0.216827392578125	0.00317626953125	3808.97805938325
0.22125244140625	0.00367706298828125	3809.0001843832
0.225677490234375	0.0041705322265625	3809.02230938314
0.2301025390625	0.00465667724609375	3809.04443438309
0.234527587890625	0.00513458251953125	3809.06655938303
0.23895263671875	0.0056097412109375	3809.08868438298
0.243377685546875	0.00607666015625	3809.11080938292
0.247802734375	0.006524658203125	3809.13293438286
0.252227783203125	0.006976318359375	3809.15505938281
0.25665283203125	0.007421875	3809.17718438275
0.261077880859375	0.0078582763671875	3809.1993093827
0.2655029296875	0.0082916259765625	3809.22143438264
0.269927978515625	0.0087158203125	3809.24355938258
0.27435302734375	0.0091339111328125	3809.26568438253
0.278778076171875	0.0095458984375	3809.28780938247
0.283203125	0.009954833984375	3809.30993438242
0.287628173828125	0.0103546142578125	3809.33205938236
0.29205322265625	0.0107513427734375	3809.3541843823
0.296478271484375	0.0111358642578125	3809.37630938225
0.3009033203125	0.0115203857421875	3809.39843438219
0.305328369140625	0.011895751953125	3809.42055938214
0.30975341796875	0.0122711181640625	3809.44268438208
0.314178466796875	0.0126434326171875	3809.46480938203
0.318603515625	0.0130096435546875	3809.48693438197
0.323028564453125	0.01336669921875	3809.50905938191
0.32745361328125	0.013720703125	3809.53118438186
0.331878662109375	0.0140655517578125	3809.5533093818
0.3363037109375	0.014404296875	3809.57543438175
0.340728759765625	0.014739990234375	3809.59755938169
0.34515380859375	0.0150665283203125	3809.61968438164
0.349578857421875	0.0153900146484375	3809.64180938158
0.35400390625	0.015704345703125	3809.66393438152
0.358428955078125	0.0160186767578125	3809.68605938147
0.36285400390625	0.016326904296875	3809.70818438141
0.367279052734375	0.016632080078125	3809.73030938136
0.3717041015625	0.01693115234375	3809.7524343813
0.376129150390625	0.0172210693359375	3809.77455938124
0.38055419921875	0.017510986328125	3809.79668438119
0.384979248046875	0.0177947998046875	3809.81880938113
0.389404296875	0.0180755615234375	3809.84093438108
0.393829345703125	0.0183502197265625	3809.86305938102
0.39825439453125	0.0186187744140625	3809.88518438096
0.402679443359375	0.0188812255859375	3809.90730938091
0.4071044921875	0.0191436767578125	3809.92943438085
0.411529541015625	0.0194000244140625	3809.9515593808
0.41595458984375	0.0196502685546875	3809.97368438074
0.420379638671875	0.0198944091796875	3809.99580938069
0.4248046875	0.0201385498046875	3810.01793438063
0.429229736328125	0.02037353515625	3810.04005938057
0.43365478515625	0.020611572265625	3810.06218438052
0.438079833984375	0.0208587646484375	3810.08430938046
0.4425048828125	0.021087646484375	3810.10643438041
0.446929931640625	0.0213165283203125	3810.12855938035
0.45135498046875	0.021539306640625	3810.15068438029
0.455780029296875	0.0217559814453125	3810.17280938024
0.460205078125	0.0219696044921875	3810.19493438018
0.464630126953125	0.0221771240234375	3810.21705938013
0.46905517578125	0.022381591796875	3810.23918438007
0.473480224609375	0.0225799560546875	3810.26130938002
0.4779052734375	0.022772216796875	3810.28343437996
0.482330322265625	0.02296142578125	3810.3055593799
0.48675537109375	0.023162841796875	3810.32768437985
0.491180419921875	0.0233642578125	3810.34980937979
0.49560546875	0.0235443115234375	3810.37193437974
0.500030517578125	0.0237152099609375	3810.39405937968
0.50445556640625	0.023883056640625	3810.41618437962
0.508880615234375	0.024066162109375	3810.43830937957
0.5133056640625	0.0242431640625	3810.46043437951
0.517730712890625	0.024420166015625	3810.48255937946
0.52215576171875	0.0245819091796875	3810.5046843794
0.526580810546875	0.02474365234375	3810.52680937934
0.531005859375	0.02490234375	3810.54893437929
0.535430908203125	0.0250518798828125	3810.57105937923
0.53985595703125	0.025201416015625	3810.59318437918
0.544281005859375	0.0253509521484375	3810.61530937912
0.5487060546875	0.0254913330078125	3810.63743437907
0.553131103515625	0.0256317138671875	3810.65955937901
0.55755615234375	0.0257720947265625	3810.68168437895
0.561981201171875	0.0259063720703125	3810.7038093789
0.56640625	0.02603759765625	3810.72593437884
0.570831298828125	0.0261688232421875	3810.74805937879
0.57525634765625	0.0262939453125	3810.77018437873
0.579681396484375	0.026422119140625	3810.79230937867
0.5841064453125	0.0265411376953125	3810.81443437862
0.588531494140625	0.0266571044921875	3810.83655937856
0.59295654296875	0.0267730712890625	3810.85868437851
0.597381591796875	0.026885986328125	3810.88080937845
0.601806640625	0.0269989013671875	3810.9029343784
0.606231689453125	0.0271087646484375	3810.92505937834
0.61065673828125	0.027215576171875	3810.94718437828
0.615081787109375	0.0273193359375	3810.96930937823
0.6195068359375	0.0274200439453125	3810.99143437817
0.623931884765625	0.0275177001953125	3811.01355937812
0.62835693359375	0.0276214599609375	3811.03568437806
0.632781982421875	0.027716064453125	3811.057809378
0.63720703125	0.0278106689453125	3811.07993437795
0.641632080078125	0.0278961181640625	3811.10205937789
0.64605712890625	0.0279876708984375	3811.12418437784
0.650482177734375	0.028070068359375	3811.14630937778
0.6549072265625	0.028155517578125	3811.16843437772
0.659332275390625	0.02823486328125	3811.19055937767
0.66375732421875	0.028314208984375	3811.21268437761
0.668182373046875	0.0283905029296875	3811.23480937756
0.672607421875	0.028466796875	3811.2569343775
0.677032470703125	0.0285400390625	3811.27905937745
0.68145751953125	0.0286163330078125	3811.30118437739
0.685882568359375	0.0286834716796875	3811.32330937733
0.6903076171875	0.0287506103515625	3811.34543437728
0.694732666015625	0.0288177490234375	3811.36755937722
0.69915771484375	0.0288818359375	3811.38968437717
0.703582763671875	0.02894287109375	3811.41180937711
0.7080078125	0.0290008544921875	3811.43393437705
0.712432861328125	0.0290618896484375	3811.456059377
0.71685791015625	0.029119873046875	3811.47818437694
0.721282958984375	0.0291778564453125	3811.50030937689
0.7257080078125	0.029229736328125	3811.52243437683
0.730133056640625	0.02928466796875	3811.54455937677
0.73455810546875	0.0293365478515625	3811.56668437672
0.738983154296875	0.0293853759765625	3811.58880937666
0.743408203125	0.0294342041015625	3811.61093437661
0.747833251953125	0.0294830322265625	3811.63305937655
0.75225830078125	0.0295257568359375	3811.6551843765
0.756683349609375	0.029571533203125	3811.67730937644
0.7611083984375	0.0296112060546875	3811.69943437638
0.765533447265625	0.0296539306640625	3811.72155937633
0.76995849609375	0.029693603515625	3811.74368437627
0.774383544921875	0.0297332763671875	3811.76580937622
0.77880859375	0.02977294921875	3811.78793437616
0.783233642578125	0.0298065185546875	3811.8100593761
0.78765869140625	0.0298431396484375	3811.83218437605
0.792083740234375	0.0298797607421875	3811.85430937599
0.7965087890625	0.0299163818359375	3811.87643437594
0.800933837890625	0.029949951171875	3811.89855937588
0.80535888671875	0.0299835205078125	3811.92068437583
0.809783935546875	0.03001708984375	3811.94280937577
0.814208984375	0.0300506591796875	3811.96493437571
0.818634033203125	0.0300811767578125	3811.98705937566
0.82305908203125	0.0301116943359375	3812.0091843756
0.827484130859375	0.030145263671875	3812.03130937555
0.8319091796875	0.03017578125	3812.05343437549
0.836334228515625	0.030206298828125	3812.07555937543
0.84075927734375	0.03023681640625	3812.09768437538
0.845184326171875	0.0302642822265625	3812.11980937532
0.849609375	0.030291748046875	3812.14193437527
0.854034423828125	0.0303192138671875	3812.16405937521
0.85845947265625	0.0303436279296875	3812.18618437515
0.862884521484375	0.03037109375	3812.2083093751
0.8673095703125	0.0303985595703125	3812.23043437504
0.871734619140625	0.030426025390625	3812.25255937499
0.87615966796875	0.03045654296875	3812.27468437493
0.880584716796875	0.0304840087890625	3812.29680937488
0.885009765625	0.030511474609375	3812.31893437482
0.889434814453125	0.030535888671875	3812.34105937476
0.89385986328125	0.0305694580078125	3812.36318437471
0.898284912109375	0.030596923828125	3812.38530937465
0.9027099609375	0.0306243896484375	3812.4074343746
0.907135009765625	0.03065185546875	3812.42955937454
0.91156005859375	0.0306793212890625	3812.45168437449
0.915985107421875	0.0307098388671875	3812.47380937443
0.92041015625	0.030743408203125	3812.49593437437
0.924835205078125	0.03077392578125	3812.51805937432
0.92926025390625	0.030804443359375	3812.54018437426
0.933685302734375	0.0308349609375	3812.56230937421
0.9381103515625	0.03087158203125	3812.58443437415
0.942535400390625	0.0309051513671875	3812.60655937409
0.94696044921875	0.0309417724609375	3812.62868437404
0.951385498046875	0.0309814453125	3812.65080937398
0.955810546875	0.03101806640625	3812.67293437393
0.960235595703125	0.0310577392578125	3812.69505937387
0.96466064453125	0.031097412109375	3812.71718437381
0.969085693359375	0.0311370849609375	3812.73930937376
0.9735107421875	0.0311798095703125	3812.7614343737
0.977935791015625	0.031219482421875	3812.78355937365
0.98236083984375	0.0312652587890625	3812.80568437359
0.986785888671875	0.0313140869140625	3812.82780937354
0.9912109375	0.0313629150390625	3812.84993437348
0.995635986328125	0.0314117431640625	3812.87205937342
1.00006103515625	0.0314666748046875	3812.89418437337
0.995635986328125	0.0302642822265625	3812.91630937331
0.9912109375	0.0291107177734375	3812.93843437326
0.986785888671875	0.0279998779296875	3812.9605593732
0.98236083984375	0.0269134521484375	3812.98268437314
0.977935791015625	0.025860595703125	3813.00480937309
0.9735107421875	0.0248382568359375	3813.02693437303
0.969085693359375	0.023834228515625	3813.04905937298
0.96466064453125	0.022857666015625	3813.07118437292
0.960235595703125	0.021905517578125	3813.09330937286
0.955810546875	0.0209747314453125	3813.11543437281
0.951385498046875	0.020062255859375	3813.13755937275
0.94696044921875	0.019171142578125	3813.1596843727
0.942535400390625	0.0182952880859375	3813.18180937264
0.9381103515625	0.0174407958984375	3813.20393437259
0.933685302734375	0.0165985107421875	3813.22605937253
0.92926025390625	0.015777587890625	3813.24818437247
0.924835205078125	0.0149749755859375	3813.27030937242
0.92041015625	0.0141876220703125	3813.29243437236
0.915985107421875	0.01341552734375	3813.31455937231
0.91156005859375	0.01265869140625	3813.33668437225
0.907135009765625	0.0119171142578125	3813.35880937219
0.9027099609375	0.011187744140625	3813.38093437214
0.898284912109375	0.0104736328125	3813.40305937208
0.89385986328125	0.009771728515625	3813.42518437203
0.889434814453125	0.00908203125	3813.44730937197
0.885009765625	0.008404541015625	3813.46943437192
0.880584716796875	0.0077423095703125	3813.49155937186
0.87615966796875	0.0070892333984375	3813.5136843718
0.871734619140625	0.0064453125	3813.53580937175
0.8673095703125	0.005816650390625	3813.55793437169
0.862884521484375	0.0051971435546875	3813.58005937164
0.85845947265625	0.00458953857421875	3813.60218437158
0.854034423828125	0.00399200439453125	3813.62430937152
0.849609375	0.0034051513671875	3813.64643437147
0.845184326171875	0.002828369140625	3813.66855937141
0.84075927734375	0.002261962890625	3813.69068437136
0.836334228515625	0.00170501708984375	3813.7128093713
0.8319091796875	0.00115570068359375	3813.73493437124
0.827484130859375	0.00061614990234375	3813.75705937119
0.82305908203125	8.48388671875E-05	3813.77918437113
0.818634033203125	-0.0004361572265625	3813.80130937108
0.814208984375	-0.0009478759765625	3813.82343437102
0.809783935546875	-0.00145111083984375	3813.84555937097
0.80535888671875	-0.0019464111328125	3813.86768437091
0.800933837890625	-0.00243316650390625	3813.88980937085
0.7965087890625	-0.00291168212890625	3813.9119343708
0.792083740234375	-0.00338165283203125	3813.93405937074
0.78765869140625	-0.003843994140625	3813.95618437069
0.783233642578125	-0.0042987060546875	3813.97830937063
0.77880859375	-0.00474456787109375	3814.00043437057
0.774383544921875	-0.00518310546875	3814.02255937052
0.76995849609375	-0.00561431884765625	3814.04468437046
0.765533447265625	-0.00603851318359375	3814.06680937041
0.7611083984375	-0.006427001953125	3814.08893437035
0.756683349609375	-0.0068389892578125	3814.1110593703
0.75225830078125	-0.00723876953125	3814.13318437024
0.747833251953125	-0.0076324462890625	3814.15530937018
0.743408203125	-0.0080169677734375	3814.17743437013
0.738983154296875	-0.0083953857421875	3814.19955937007
0.73455810546875	-0.0087677001953125	3814.22168437002
0.730133056640625	-0.009136962890625	3814.24380936996
0.7257080078125	-0.0094940185546875	3814.2659343699
0.721282958984375	-0.00985107421875	3814.28805936985
0.71685791015625	-0.010198974609375	3814.31018436979
0.712432861328125	-0.010540771484375	3814.33230936974
0.7080078125	-0.01087646484375	3814.35443436968
0.703582763671875	-0.0112030029296875	3814.37655936962
0.69915771484375	-0.0115264892578125	3814.39868436957
0.694732666015625	-0.0118438720703125	3814.42080936951
0.6903076171875	-0.012158203125	3814.44293436946
0.685882568359375	-0.01246337890625	3814.4650593694
0.68145751953125	-0.012762451171875	3814.48718436935
0.677032470703125	-0.0130584716796875	3814.50930936929
0.672607421875	-0.013348388671875	3814.53143436923
0.668182373046875	-0.01363525390625	3814.55355936918
0.66375732421875	-0.013916015625	3814.57568436912
0.659332275390625	-0.0141876220703125	3814.59780936907
0.6549072265625	-0.014459228515625	3814.61993436901
0.650482177734375	-0.0147247314453125	3814.64205936895
0.64605712890625	-0.014984130859375	3814.6641843689
0.641632080078125	-0.015240478515625	3814.68630936884
0.63720703125	-0.01549072265625	3814.70843436879
0.632781982421875	-0.01573486328125	3814.73055936873
0.62835693359375	-0.0159820556640625	3814.75268436868
0.623931884765625	-0.0162322998046875	3814.77480936862
0.6195068359375	-0.0164703369140625	3814.79693436856
0.615081787109375	-0.016705322265625	3814.81905936851
0.61065673828125	-0.0169342041015625	3814.84118436845
0.606231689453125	-0.0171539306640625	3814.8633093684
0.601806640625	-0.01737060546875	3814.88543436834
0.597381591796875	-0.0175811767578125	3814.90755936828
0.59295654296875	-0.0177825927734375	3814.92968436823
0.588531494140625	-0.0179931640625	3814.95180936817
0.5841064453125	-0.018194580078125	3814.97393436812
0.579681396484375	-0.0184112548828125	3814.99605936806
0.57525634765625	-0.0186187744140625	3815.018184368
0.570831298828125	-0.01881103515625	3815.04030936795
0.56640625	-0.0190032958984375	3815.06243436789
0.561981201171875	-0.0191925048828125	3815.08455936784
0.55755615234375	-0.0193817138671875	3815.10668436778
0.553131103515625	-0.01956787109375	3815.12880936773
0.5487060546875	-0.0197509765625	3815.15093436767
0.544281005859375	-0.019927978515625	3815.17305936761
0.53985595703125	-0.0201019287109375	3815.19518436756
0.535430908203125	-0.0202789306640625	3815.2173093675
0.531005859375	-0.0204498291015625	3815.23943436745
0.526580810546875	-0.020623779296875	3815.26155936739
0.52215576171875	-0.02078857421875	3815.28368436733
0.517730712890625	-0.020953369140625	3815.30580936728
0.5133056640625	-0.0211151123046875	3815.32793436722
0.508880615234375	-0.0212738037109375	3815.35005936717
0.50445556640625	-0.021429443359375	3815.37218436711
0.500030517578125	-0.021588134765625	3815.39430936706
0.49560546875	-0.02174072265625	3815.416434367
0.491180419921875	-0.02188720703125	3815.43855936694
0.48675537109375	-0.02203369140625	3815.46068436689
0.482330322265625	-0.0221832275390625	3815.48280936683
0.4779052734375	-0.0223297119140625	3815.50493436678
0.473480224609375	-0.02247314453125	3815.52705936672
0.46905517578125	-0.0226165771484375	3815.54918436666
0.464630126953125	-0.02275390625	3815.57130936661
0.460205078125	-0.022894287109375	3815.59343436655
0.455780029296875	-0.0230316162109375	3815.6155593665
0.45135498046875	-0.0231658935546875	3815.63768436644
0.446929931640625	-0.0233001708984375	3815.65980936639
0.4425048828125	-0.023431396484375	3815.68193436633
0.438079833984375	-0.0235626220703125	3815.70405936627
0.43365478515625	-0.02369384765625	3815.72618436622
0.429229736328125	-0.023822021484375	3815.74830936616
0.4248046875	-0.0239501953125	3815.77043436611
0.420379638671875	-0.024078369140625	3815.79255936605
0.41595458984375	-0.0241973876953125	3815.81468436599
0.411529541015625	-0.024322509765625	3815.83680936594
0.4071044921875	-0.024444580078125	3815.85893436588
0.402679443359375	-0.0245697021484375	3815.88105936583
0.39825439453125	-0.024688720703125	3815.90318436577
0.393829345703125	-0.024810791015625	3815.92530936571
0.389404296875	-0.0249267578125	3815.94743436566
0.384979248046875	-0.0250457763671875	3815.9695593656
0.38055419921875	-0.0251617431640625	3815.99168436555
0.376129150390625	-0.025274658203125	3816.01380936549
0.3717041015625	-0.025390625	3816.03593436544
0.367279052734375	-0.0255035400390625	3816.05805936538
0.36285400390625	-0.0256195068359375	3816.08018436532
0.358428955078125	-0.025732421875	3816.10230936527
0.35400390625	-0.02584228515625	3816.12443436521
0.349578857421875	-0.0259490966796875	3816.14655936516
0.34515380859375	-0.0260589599609375	3816.1686843651
0.340728759765625	-0.0261688232421875	3816.19080936504
0.3363037109375	-0.0262786865234375	3816.21293436499
0.331878662109375	-0.026385498046875	3816.23505936493
0.32745361328125	-0.0264984130859375	3816.25718436488
0.323028564453125	-0.0266021728515625	3816.27930936482
0.318603515625	-0.0267059326171875	3816.30143436477
0.314178466796875	-0.026812744140625	3816.32355936471
0.30975341796875	-0.0269256591796875	3816.34568436465
0.305328369140625	-0.0270263671875	3816.3678093646
0.3009033203125	-0.027130126953125	3816.38993436454
0.296478271484375	-0.0272369384765625	3816.41205936449
0.29205322265625	-0.0273406982421875	3816.43418436443
0.287628173828125	-0.02744140625	3816.45630936437
0.283203125	-0.027545166015625	3816.47843436432
0.278778076171875	-0.0276458740234375	3816.50055936426
0.27435302734375	-0.0277496337890625	3816.52268436421
0.269927978515625	-0.0278472900390625	3816.54480936415
0.2655029296875	-0.0279510498046875	3816.56693436409
0.261077880859375	-0.0280517578125	3816.58905936404
0.25665283203125	-0.0281494140625	3816.61118436398
0.252227783203125	-0.028253173828125	3816.63330936393
0.247802734375	-0.028350830078125	3816.65543436387
0.243377685546875	-0.028448486328125	3816.67755936382
0.23895263671875	-0.028546142578125	3816.69968436376
0.234527587890625	-0.028643798828125	3816.7218093637
0.2301025390625	-0.0287384033203125	3816.74393436365
0.225677490234375	-0.028839111328125	3816.76605936359
0.22125244140625	-0.0289337158203125	3816.78818436354
0.216827392578125	-0.029034423828125	3816.81030936348
0.21240234375	-0.029132080078125	3816.83243436342
0.207977294921875	-0.0292327880859375	3816.85455936337
0.20355224609375	-0.0293243408203125	3816.87668436331
0.199127197265625	-0.0294219970703125	3816.89880936326
0.1947021484375	-0.029522705078125	3816.9209343632
0.190277099609375	-0.0296234130859375	3816.94305936315
0.18585205078125	-0.0297149658203125	3816.96518436309
0.181427001953125	-0.0298095703125	3816.98730936303
0.177001953125	-0.0299072265625	3817.00943436298
0.172576904296875	-0.0300018310546875	3817.03155936292
0.16815185546875	-0.030096435546875	3817.05368436287
0.163726806640625	-0.0301910400390625	3817.07580936281
0.1593017578125	-0.0302886962890625	3817.09793436275
0.154876708984375	-0.03038330078125	3817.1200593627
0.15045166015625	-0.03048095703125	3817.14218436264
0.146026611328125	-0.0305755615234375	3817.16430936259
0.1416015625	-0.030670166015625	3817.18643436253
0.137176513671875	-0.030767822265625	3817.20855936247
0.13275146484375	-0.030859375	3817.23068436242
0.128326416015625	-0.030950927734375	3817.25280936236
0.1239013671875	-0.031048583984375	3817.27493436231
0.119476318359375	-0.0311431884765625	3817.29705936225
0.11505126953125	-0.03123779296875	3817.3191843622
0.110626220703125	-0.031329345703125	3817.34130936214
0.106201171875	-0.031427001953125	3817.36343436208
0.101776123046875	-0.0315185546875	3817.38555936203
0.09735107421875	-0.0316131591796875	3817.40768436197
0.092926025390625	-0.0317108154296875	3817.42980936192
0.0885009765625	-0.031805419921875	3817.45193436186
0.084075927734375	-0.031903076171875	3817.4740593618
0.07965087890625	-0.0319976806640625	3817.49618436175
0.075225830078125	-0.0320892333984375	3817.51830936169
0.07080078125	-0.0321868896484375	3817.54043436164
0.066375732421875	-0.032281494140625	3817.56255936158
0.06195068359375	-0.032373046875	3817.58468436153
0.057525634765625	-0.032470703125	3817.60680936147
0.0531005859375	-0.0325714111328125	3817.62893436141
0.048675537109375	-0.032672119140625	3817.65105936136
0.04425048828125	-0.032763671875	3817.6731843613
0.039825439453125	-0.032861328125	3817.69530936125
0.035400390625	-0.032958984375	3817.71743436119
0.030975341796875	-0.033056640625	3817.73955936113
0.02655029296875	-0.0331573486328125	3817.76168436108
0.022125244140625	-0.033258056640625	3817.78380936102
0.0177001953125	-0.0333526611328125	3817.80593436097
0.013275146484375	-0.033453369140625	3817.82805936091
0.00885009765625	-0.0335540771484375	3817.85018436085
0.004425048828125	-0.0336517333984375	3817.8723093608
0	-0.0337554931640625	3817.89443436074
0.004425048828125	-0.032598876953125	3817.91655936069
0.00885009765625	-0.0314788818359375	3817.93868436063
0.013275146484375	-0.030389404296875	3817.96080936058
