Potential applied (V)	WE(1).Current (A)	Time (s)
0.004425048828125	-0.0193359375	3726.35679859185
0.00885009765625	-0.018243408203125	3726.40104859174
0.013275146484375	-0.0171966552734375	3726.44529859163
0.0177001953125	-0.016192626953125	3726.48954859152
0.022125244140625	-0.0152191162109375	3726.53379859141
0.02655029296875	-0.014276123046875	3726.57804859129
0.030975341796875	-0.0133636474609375	3726.62229859118
0.035400390625	-0.0124847412109375	3726.66654859107
0.039825439453125	-0.011627197265625	3726.71079859096
0.04425048828125	-0.010797119140625	3726.75504859085
0.048675537109375	-0.0099884033203125	3726.79929859074
0.0531005859375	-0.0092010498046875	3726.84354859062
0.057525634765625	-0.00843505859375	3726.88779859051
0.06195068359375	-0.0076934814453125	3726.9320485904
0.066375732421875	-0.00697021484375	3726.97629859029
0.07080078125	-0.00626220703125	3727.02054859018
0.075225830078125	-0.00557861328125	3727.06479859007
0.07965087890625	-0.004913330078125	3727.10904858995
0.084075927734375	-0.0042633056640625	3727.15329858984
0.0885009765625	-0.00363037109375	3727.19754858973
0.092926025390625	-0.00301300048828125	3727.24179858962
0.09735107421875	-0.0024114990234375	3727.28604858951
0.101776123046875	-0.0018341064453125	3727.3302985894
0.106201171875	-0.0012603759765625	3727.37454858928
0.110626220703125	-0.00070220947265625	3727.41879858917
0.11505126953125	-0.000157928466796875	3727.46304858906
0.119476318359375	0.000370330810546875	3727.50729858895
0.1239013671875	0.0008880615234375	3727.55154858884
0.128326416015625	0.0013934326171875	3727.59579858873
0.13275146484375	0.001885986328125	3727.64004858861
0.137176513671875	0.002366943359375	3727.6842985885
0.1416015625	0.0028363037109375	3727.72854858839
0.146026611328125	0.0032940673828125	3727.77279858828
0.15045166015625	0.003740234375	3727.81704858817
0.154876708984375	0.0041741943359375	3727.86129858805
0.1593017578125	0.00459564208984375	3727.90554858794
0.163726806640625	0.0050079345703125	3727.94979858783
0.16815185546875	0.0054095458984375	3727.99404858772
0.172576904296875	0.00579986572265625	3728.03829858761
0.177001953125	0.0061810302734375	3728.0825485875
0.181427001953125	0.0065399169921875	3728.12679858738
0.18585205078125	0.006903076171875	3728.17104858727
0.190277099609375	0.0072509765625	3728.21529858716
0.1947021484375	0.0075927734375	3728.25954858705
0.199127197265625	0.0079193115234375	3728.30379858694
0.20355224609375	0.008245849609375	3728.34804858683
0.207977294921875	0.0085662841796875	3728.39229858671
0.21240234375	0.00887451171875	3728.4365485866
0.216827392578125	0.009173583984375	3728.48079858649
0.22125244140625	0.0094635009765625	3728.52504858638
0.225677490234375	0.009747314453125	3728.56929858627
0.2301025390625	0.01002197265625	3728.61354858616
0.234527587890625	0.0102874755859375	3728.65779858604
0.23895263671875	0.010546875	3728.70204858593
0.243377685546875	0.0108001708984375	3728.74629858582
0.247802734375	0.0110443115234375	3728.79054858571
0.252227783203125	0.011285400390625	3728.8347985856
0.25665283203125	0.0115142822265625	3728.87904858549
0.261077880859375	0.011737060546875	3728.92329858537
0.2655029296875	0.0119537353515625	3728.96754858526
0.269927978515625	0.012164306640625	3729.01179858515
0.27435302734375	0.012371826171875	3729.05604858504
0.278778076171875	0.0125701904296875	3729.10029858493
0.283203125	0.012762451171875	3729.14454858482
0.287628173828125	0.01295166015625	3729.1887985847
0.29205322265625	0.013128662109375	3729.23304858459
0.296478271484375	0.0132965087890625	3729.27729858448
0.3009033203125	0.0134552001953125	3729.32154858437
0.305328369140625	0.013623046875	3729.36579858426
0.30975341796875	0.0137939453125	3729.41004858414
0.314178466796875	0.01395263671875	3729.45429858403
0.318603515625	0.0140899658203125	3729.49854858392
0.323028564453125	0.0142364501953125	3729.54279858381
0.32745361328125	0.014385986328125	3729.5870485837
0.331878662109375	0.0145263671875	3729.63129858359
0.3363037109375	0.014654541015625	3729.67554858347
0.340728759765625	0.0147796630859375	3729.71979858336
0.34515380859375	0.014898681640625	3729.76404858325
0.349578857421875	0.0150115966796875	3729.80829858314
0.35400390625	0.015118408203125	3729.85254858303
0.358428955078125	0.0152252197265625	3729.89679858292
0.36285400390625	0.0153289794921875	3729.9410485828
0.367279052734375	0.0154296875	3729.98529858269
0.3717041015625	0.0155242919921875	3730.02954858258
0.376129150390625	0.0156158447265625	3730.07379858247
0.38055419921875	0.0157012939453125	3730.11804858236
0.384979248046875	0.0157867431640625	3730.16229858225
0.389404296875	0.015869140625	3730.20654858213
0.393829345703125	0.0159454345703125	3730.25079858202
0.39825439453125	0.016021728515625	3730.29504858191
0.402679443359375	0.0160919189453125	3730.3392985818
0.4071044921875	0.016162109375	3730.38354858169
0.411529541015625	0.0162261962890625	3730.42779858158
0.41595458984375	0.0162872314453125	3730.47204858146
0.420379638671875	0.01634521484375	3730.51629858135
0.4248046875	0.0164031982421875	3730.56054858124
0.429229736328125	0.0164581298828125	3730.60479858113
0.43365478515625	0.016510009765625	3730.64904858102
0.438079833984375	0.016558837890625	3730.6932985809
0.4425048828125	0.0166046142578125	3730.73754858079
0.446929931640625	0.016650390625	3730.78179858068
0.45135498046875	0.016693115234375	3730.82604858057
0.455780029296875	0.016729736328125	3730.87029858046
0.460205078125	0.0167694091796875	3730.91454858035
0.464630126953125	0.0168060302734375	3730.95879858023
0.46905517578125	0.016839599609375	3731.00304858012
0.473480224609375	0.0168670654296875	3731.04729858001
0.4779052734375	0.0168975830078125	3731.0915485799
0.482330322265625	0.0169281005859375	3731.13579857979
0.48675537109375	0.0169525146484375	3731.18004857968
0.491180419921875	0.0169769287109375	3731.22429857956
0.49560546875	0.016998291015625	3731.26854857945
0.500030517578125	0.0170196533203125	3731.31279857934
0.50445556640625	0.0170379638671875	3731.35704857923
0.508880615234375	0.0170562744140625	3731.40129857912
0.5133056640625	0.0170745849609375	3731.44554857901
0.517730712890625	0.01708984375	3731.48979857889
0.52215576171875	0.01710205078125	3731.53404857878
0.526580810546875	0.0171142578125	3731.57829857867
0.531005859375	0.0171234130859375	3731.62254857856
0.535430908203125	0.0171356201171875	3731.66679857845
0.53985595703125	0.0171417236328125	3731.71104857834
0.544281005859375	0.0171478271484375	3731.75529857822
0.5487060546875	0.0171539306640625	3731.79954857811
0.553131103515625	0.0171600341796875	3731.843798578
0.55755615234375	0.0171600341796875	3731.88804857789
0.561981201171875	0.0171630859375	3731.93229857778
0.56640625	0.0171661376953125	3731.97654857767
0.570831298828125	0.017169189453125	3732.02079857755
0.57525634765625	0.017169189453125	3732.06504857744
0.579681396484375	0.017169189453125	3732.10929857733
0.5841064453125	0.0171661376953125	3732.15354857722
0.588531494140625	0.017156982421875	3732.19779857711
0.59295654296875	0.0171539306640625	3732.24204857699
0.597381591796875	0.01715087890625	3732.28629857688
0.601806640625	0.017144775390625	3732.33054857677
0.606231689453125	0.0171417236328125	3732.37479857666
0.61065673828125	0.0171356201171875	3732.41904857655
0.615081787109375	0.01712646484375	3732.46329857644
0.6195068359375	0.0171234130859375	3732.50754857632
0.623931884765625	0.0171173095703125	3732.55179857621
0.62835693359375	0.0171142578125	3732.5960485761
0.632781982421875	0.0171051025390625	3732.64029857599
0.63720703125	0.0170989990234375	3732.68454857588
0.641632080078125	0.01708984375	3732.72879857577
0.64605712890625	0.0170806884765625	3732.77304857565
0.650482177734375	0.017071533203125	3732.81729857554
0.6549072265625	0.0170623779296875	3732.86154857543
0.659332275390625	0.0170501708984375	3732.90579857532
0.66375732421875	0.017041015625	3732.95004857521
0.668182373046875	0.0170318603515625	3732.9942985751
0.672607421875	0.017022705078125	3733.03854857498
0.677032470703125	0.0170135498046875	3733.08279857487
0.68145751953125	0.0170074462890625	3733.12704857476
0.685882568359375	0.016998291015625	3733.17129857465
0.6903076171875	0.0169891357421875	3733.21554857454
0.694732666015625	0.01697998046875	3733.25979857443
0.69915771484375	0.0169708251953125	3733.30404857431
0.703582763671875	0.016961669921875	3733.3482985742
0.7080078125	0.0169525146484375	3733.39254857409
0.712432861328125	0.0169464111328125	3733.43679857398
0.71685791015625	0.0169403076171875	3733.48104857387
0.721282958984375	0.0169342041015625	3733.52529857375
0.7257080078125	0.0169281005859375	3733.56954857364
0.730133056640625	0.016925048828125	3733.61379857353
0.73455810546875	0.0169189453125	3733.65804857342
0.738983154296875	0.016912841796875	3733.70229857331
0.743408203125	0.01690673828125	3733.7465485732
0.747833251953125	0.01690673828125	3733.79079857308
0.75225830078125	0.0169036865234375	3733.83504857297
0.756683349609375	0.016900634765625	3733.87929857286
0.7611083984375	0.0169036865234375	3733.92354857275
0.765533447265625	0.01690673828125	3733.96779857264
0.76995849609375	0.01690673828125	3734.01204857253
0.774383544921875	0.01690673828125	3734.05629857241
0.77880859375	0.016912841796875	3734.1005485723
0.783233642578125	0.0169158935546875	3734.14479857219
0.78765869140625	0.0169219970703125	3734.18904857208
0.792083740234375	0.01693115234375	3734.23329857197
0.7965087890625	0.0169403076171875	3734.27754857186
0.800933837890625	0.016949462890625	3734.32179857174
0.80535888671875	0.016961669921875	3734.36604857163
0.809783935546875	0.0169769287109375	3734.41029857152
0.814208984375	0.0169891357421875	3734.45454857141
0.818634033203125	0.0170074462890625	3734.4987985713
0.82305908203125	0.0170257568359375	3734.54304857118
0.827484130859375	0.017047119140625	3734.58729857107
0.8319091796875	0.0170684814453125	3734.63154857096
0.836334228515625	0.01708984375	3734.67579857085
0.84075927734375	0.0171173095703125	3734.72004857074
0.845184326171875	0.0171417236328125	3734.76429857063
0.849609375	0.017169189453125	3734.80854857052
0.854034423828125	0.01719970703125	3734.8527985704
0.85845947265625	0.0172332763671875	3734.89704857029
0.862884521484375	0.017266845703125	3734.94129857018
0.8673095703125	0.0173004150390625	3734.98554857007
0.871734619140625	0.017340087890625	3735.02979856996
0.87615966796875	0.0173797607421875	3735.07404856984
0.880584716796875	0.0174224853515625	3735.11829856973
0.885009765625	0.0174652099609375	3735.16254856962
0.889434814453125	0.0175079345703125	3735.20679856951
0.89385986328125	0.0175537109375	3735.2510485694
0.898284912109375	0.0176025390625	3735.29529856929
0.9027099609375	0.0176544189453125	3735.33954856917
0.907135009765625	0.0177093505859375	3735.38379856906
0.91156005859375	0.0177642822265625	3735.42804856895
0.915985107421875	0.017822265625	3735.47229856884
0.92041015625	0.0178802490234375	3735.51654856873
0.924835205078125	0.017938232421875	3735.56079856862
0.92926025390625	0.017999267578125	3735.6050485685
0.933685302734375	0.0180633544921875	3735.64929856839
0.9381103515625	0.018133544921875	3735.69354856828
0.942535400390625	0.01820068359375	3735.73779856817
0.94696044921875	0.018267822265625	3735.78204856806
0.951385498046875	0.018341064453125	3735.82629856795
0.955810546875	0.018414306640625	3735.87054856783
0.960235595703125	0.0184906005859375	3735.91479856772
0.96466064453125	0.01856689453125	3735.95904856761
0.969085693359375	0.018646240234375	3736.0032985675
0.9735107421875	0.0187286376953125	3736.04754856739
0.977935791015625	0.0188079833984375	3736.09179856727
0.98236083984375	0.018896484375	3736.13604856716
0.986785888671875	0.0189849853515625	3736.18029856705
0.9912109375	0.0190765380859375	3736.22454856694
0.995635986328125	0.019171142578125	3736.26879856683
1.00006103515625	0.019268798828125	3736.31304856672
0.995635986328125	0.018145751953125	3736.3572985666
0.9912109375	0.01708984375	3736.40154856649
0.986785888671875	0.016082763671875	3736.44579856638
0.98236083984375	0.0151153564453125	3736.49004856627
0.977935791015625	0.0141876220703125	3736.53429856616
0.9735107421875	0.0133026123046875	3736.57854856605
0.969085693359375	0.012445068359375	3736.62279856593
0.96466064453125	0.0116119384765625	3736.66704856582
0.960235595703125	0.0108123779296875	3736.71129856571
0.955810546875	0.0100341796875	3736.7555485656
0.951385498046875	0.009283447265625	3736.79979856549
0.94696044921875	0.0085540771484375	3736.84404856538
0.942535400390625	0.0078460693359375	3736.88829856526
0.9381103515625	0.0071624755859375	3736.93254856515
0.933685302734375	0.0064910888671875	3736.97679856504
0.92926025390625	0.0058441162109375	3737.02104856493
0.924835205078125	0.0052154541015625	3737.06529856482
0.92041015625	0.004603271484375	3737.10954856471
0.915985107421875	0.00400970458984375	3737.15379856459
0.91156005859375	0.00343231201171875	3737.19804856448
0.907135009765625	0.00287109375	3737.24229856437
0.9027099609375	0.00232513427734375	3737.28654856426
0.898284912109375	0.00179443359375	3737.33079856415
0.89385986328125	0.00127685546875	3737.37504856403
0.889434814453125	0.000772705078125	3737.41929856392
0.885009765625	0.00028216552734375	3737.46354856381
0.880584716796875	-0.000193817138671875	3737.5077985637
0.87615966796875	-0.00065765380859375	3737.55204856359
0.871734619140625	-0.00110870361328125	3737.59629856348
0.8673095703125	-0.00154815673828125	3737.64054856336
0.862884521484375	-0.00197509765625	3737.68479856325
0.85845947265625	-0.00238861083984375	3737.72904856314
0.854034423828125	-0.0027923583984375	3737.77329856303
0.849609375	-0.00318572998046875	3737.81754856292
0.845184326171875	-0.00356658935546875	3737.86179856281
0.84075927734375	-0.0039373779296875	3737.90604856269
0.836334228515625	-0.0042974853515625	3737.95029856258
0.8319091796875	-0.00464752197265625	3737.99454856247
0.827484130859375	-0.00498626708984375	3738.03879856236
0.82305908203125	-0.00531646728515625	3738.08304856225
0.818634033203125	-0.0056365966796875	3738.12729856214
0.814208984375	-0.0059478759765625	3738.17154856202
0.809783935546875	-0.0062493896484375	3738.21579856191
0.80535888671875	-0.0065155029296875	3738.2600485618
0.800933837890625	-0.0068023681640625	3738.30429856169
0.7965087890625	-0.007073974609375	3738.34854856158
0.792083740234375	-0.007342529296875	3738.39279856147
0.78765869140625	-0.007598876953125	3738.43704856135
0.783233642578125	-0.00784912109375	3738.48129856124
0.77880859375	-0.0080902099609375	3738.52554856113
0.774383544921875	-0.0083251953125	3738.56979856102
0.76995849609375	-0.0085540771484375	3738.61404856091
0.765533447265625	-0.008770751953125	3738.6582985608
0.7611083984375	-0.0089874267578125	3738.70254856068
0.756683349609375	-0.00919189453125	3738.74679856057
0.75225830078125	-0.0093902587890625	3738.79104856046
0.747833251953125	-0.0095855712890625	3738.83529856035
0.743408203125	-0.009771728515625	3738.87954856024
0.738983154296875	-0.0099517822265625	3738.92379856012
0.73455810546875	-0.0101287841796875	3738.96804856001
0.730133056640625	-0.010296630859375	3739.0122985599
0.7257080078125	-0.01046142578125	3739.05654855979
0.721282958984375	-0.0106201171875	3739.10079855968
0.71685791015625	-0.0107757568359375	3739.14504855957
0.712432861328125	-0.0109222412109375	3739.18929855945
0.7080078125	-0.0110626220703125	3739.23354855934
0.703582763671875	-0.0112030029296875	3739.27779855923
0.69915771484375	-0.011334228515625	3739.32204855912
0.694732666015625	-0.011468505859375	3739.36629855901
0.6903076171875	-0.0115966796875	3739.4105485589
0.685882568359375	-0.01171875	3739.45479855878
0.68145751953125	-0.0118408203125	3739.49904855867
0.677032470703125	-0.0119598388671875	3739.54329855856
0.672607421875	-0.0120697021484375	3739.58754855845
0.668182373046875	-0.0121673583984375	3739.63179855834
0.66375732421875	-0.0122802734375	3739.67604855823
0.659332275390625	-0.012384033203125	3739.72029855811
0.6549072265625	-0.012481689453125	3739.764548558
0.650482177734375	-0.0125823974609375	3739.80879855789
0.64605712890625	-0.012677001953125	3739.85304855778
0.641632080078125	-0.0127716064453125	3739.89729855767
0.63720703125	-0.0128631591796875	3739.94154855756
0.632781982421875	-0.01295166015625	3739.98579855744
0.62835693359375	-0.013037109375	3740.03004855733
0.623931884765625	-0.0131256103515625	3740.07429855722
0.6195068359375	-0.0132080078125	3740.11854855711
0.615081787109375	-0.013287353515625	3740.162798557
0.61065673828125	-0.01336669921875	3740.20704855688
0.606231689453125	-0.0134429931640625	3740.25129855677
0.601806640625	-0.013519287109375	3740.29554855666
0.597381591796875	-0.0135894775390625	3740.33979855655
0.59295654296875	-0.0136566162109375	3740.38404855644
0.588531494140625	-0.0137237548828125	3740.42829855633
0.5841064453125	-0.013787841796875	3740.47254855621
0.579681396484375	-0.0138519287109375	3740.5167985561
0.57525634765625	-0.013916015625	3740.56104855599
0.570831298828125	-0.0139801025390625	3740.60529855588
0.56640625	-0.0140380859375	3740.64954855577
0.561981201171875	-0.0140960693359375	3740.69379855566
0.55755615234375	-0.0141510009765625	3740.73804855554
0.553131103515625	-0.0142120361328125	3740.78229855543
0.5487060546875	-0.0142669677734375	3740.82654855532
0.544281005859375	-0.0143218994140625	3740.87079855521
0.53985595703125	-0.0143798828125	3740.9150485551
0.535430908203125	-0.014434814453125	3740.95929855499
0.531005859375	-0.0144866943359375	3741.00354855487
0.526580810546875	-0.01453857421875	3741.04779855476
0.52215576171875	-0.014593505859375	3741.09204855465
0.517730712890625	-0.014642333984375	3741.13629855454
0.5133056640625	-0.0146942138671875	3741.18054855443
0.508880615234375	-0.0147430419921875	3741.22479855432
0.50445556640625	-0.0147918701171875	3741.2690485542
0.500030517578125	-0.01484375	3741.31329855409
0.49560546875	-0.0148895263671875	3741.35754855398
0.491180419921875	-0.0149383544921875	3741.40179855387
0.48675537109375	-0.0149871826171875	3741.44604855376
0.482330322265625	-0.0150360107421875	3741.49029855365
0.4779052734375	-0.0150848388671875	3741.53454855353
0.473480224609375	-0.015130615234375	3741.57879855342
0.46905517578125	-0.0151763916015625	3741.62304855331
0.464630126953125	-0.01522216796875	3741.6672985532
0.460205078125	-0.0152679443359375	3741.71154855309
0.455780029296875	-0.015313720703125	3741.75579855297
0.45135498046875	-0.0153594970703125	3741.80004855286
0.446929931640625	-0.0154052734375	3741.84429855275
0.4425048828125	-0.015447998046875	3741.88854855264
0.438079833984375	-0.01549072265625	3741.93279855253
0.43365478515625	-0.0155364990234375	3741.97704855242
0.429229736328125	-0.015582275390625	3742.0212985523
0.4248046875	-0.0156280517578125	3742.06554855219
0.420379638671875	-0.0156707763671875	3742.10979855208
0.41595458984375	-0.015716552734375	3742.15404855197
0.411529541015625	-0.0157623291015625	3742.19829855186
0.4071044921875	-0.0158050537109375	3742.24254855175
0.402679443359375	-0.015850830078125	3742.28679855163
0.39825439453125	-0.0158935546875	3742.33104855152
0.393829345703125	-0.0159393310546875	3742.37529855141
0.389404296875	-0.0159820556640625	3742.4195485513
0.384979248046875	-0.01602783203125	3742.46379855119
0.38055419921875	-0.016070556640625	3742.50804855108
0.376129150390625	-0.0161163330078125	3742.55229855096
0.3717041015625	-0.0161590576171875	3742.59654855085
0.367279052734375	-0.0162017822265625	3742.64079855074
0.36285400390625	-0.01624755859375	3742.68504855063
0.358428955078125	-0.0162933349609375	3742.72929855052
0.35400390625	-0.0163360595703125	3742.77354855041
0.349578857421875	-0.016375732421875	3742.81779855029
0.34515380859375	-0.0164215087890625	3742.86204855018
0.340728759765625	-0.01646728515625	3742.90629855007
0.3363037109375	-0.0165130615234375	3742.95054854996
0.331878662109375	-0.0165557861328125	3742.99479854985
0.32745361328125	-0.0166015625	3743.03904854973
0.323028564453125	-0.0166473388671875	3743.08329854962
0.318603515625	-0.016693115234375	3743.12754854951
0.314178466796875	-0.0167388916015625	3743.1717985494
0.30975341796875	-0.016790771484375	3743.21604854929
0.305328369140625	-0.0168365478515625	3743.26029854918
0.3009033203125	-0.0168792724609375	3743.30454854906
0.296478271484375	-0.016925048828125	3743.34879854895
0.29205322265625	-0.016973876953125	3743.39304854884
0.287628173828125	-0.017022705078125	3743.43729854873
0.283203125	-0.0170684814453125	3743.48154854862
0.278778076171875	-0.0171112060546875	3743.52579854851
0.27435302734375	-0.017156982421875	3743.57004854839
0.269927978515625	-0.01719970703125	3743.61429854828
0.2655029296875	-0.0172454833984375	3743.65854854817
0.261077880859375	-0.0172943115234375	3743.70279854806
0.25665283203125	-0.0173431396484375	3743.74704854795
0.252227783203125	-0.017388916015625	3743.79129854784
0.247802734375	-0.0174346923828125	3743.83554854772
0.243377685546875	-0.0174835205078125	3743.87979854761
0.23895263671875	-0.017529296875	3743.9240485475
0.234527587890625	-0.017578125	3743.96829854739
0.2301025390625	-0.017626953125	3744.01254854728
0.225677490234375	-0.0176727294921875	3744.05679854717
0.22125244140625	-0.0177215576171875	3744.10104854705
0.216827392578125	-0.0177703857421875	3744.14529854694
0.21240234375	-0.0178192138671875	3744.18954854683
0.207977294921875	-0.0178680419921875	3744.23379854672
0.20355224609375	-0.0179168701171875	3744.27804854661
0.199127197265625	-0.0179656982421875	3744.32229854649
0.1947021484375	-0.0180145263671875	3744.36654854638
0.190277099609375	-0.01806640625	3744.41079854627
0.18585205078125	-0.0181182861328125	3744.45504854616
0.181427001953125	-0.018170166015625	3744.49929854605
0.177001953125	-0.018218994140625	3744.54354854594
0.172576904296875	-0.0182708740234375	3744.58779854582
0.16815185546875	-0.01832275390625	3744.63204854571
0.163726806640625	-0.0183746337890625	3744.6762985456
0.1593017578125	-0.0184295654296875	3744.72054854549
0.154876708984375	-0.0184783935546875	3744.76479854538
0.15045166015625	-0.0185302734375	3744.80904854527
0.146026611328125	-0.0185821533203125	3744.85329854515
0.1416015625	-0.0186370849609375	3744.89754854504
0.137176513671875	-0.01868896484375	3744.94179854493
0.13275146484375	-0.0187469482421875	3744.98604854482
0.128326416015625	-0.0188018798828125	3745.03029854471
0.1239013671875	-0.018853759765625	3745.0745485446
0.119476318359375	-0.0189117431640625	3745.11879854448
0.11505126953125	-0.018963623046875	3745.16304854437
0.110626220703125	-0.0190216064453125	3745.20729854426
0.106201171875	-0.01907958984375	3745.25154854415
0.101776123046875	-0.019140625	3745.29579854404
0.09735107421875	-0.0191986083984375	3745.34004854393
0.092926025390625	-0.0192596435546875	3745.38429854381
0.0885009765625	-0.019317626953125	3745.4285485437
0.084075927734375	-0.019378662109375	3745.47279854359
0.07965087890625	-0.0194366455078125	3745.51704854348
0.075225830078125	-0.0194976806640625	3745.56129854337
0.07080078125	-0.0195587158203125	3745.60554854326
0.066375732421875	-0.0196197509765625	3745.64979854314
0.06195068359375	-0.019683837890625	3745.69404854303
0.057525634765625	-0.019744873046875	3745.73829854292
0.0531005859375	-0.01981201171875	3745.78254854281
0.048675537109375	-0.0198760986328125	3745.8267985427
0.04425048828125	-0.019940185546875	3745.87104854258
0.039825439453125	-0.02000732421875	3745.91529854247
0.035400390625	-0.020074462890625	3745.95954854236
0.030975341796875	-0.020147705078125	3746.00379854225
0.02655029296875	-0.02021484375	3746.04804854214
0.022125244140625	-0.020281982421875	3746.09229854203
0.0177001953125	-0.0203521728515625	3746.13654854191
0.013275146484375	-0.02042236328125	3746.1807985418
0.00885009765625	-0.0204925537109375	3746.22504854169
0.004425048828125	-0.0205657958984375	3746.26929854158
0	-0.02064208984375	3746.31354854147
0.004425048828125	-0.01949462890625	3746.35779854136
0.00885009765625	-0.0183990478515625	3746.40204854124
0.013275146484375	-0.01734619140625	3746.44629854113
0.0177001953125	-0.016339111328125	3746.49054854102
0.022125244140625	-0.0153594970703125	3746.53479854091
0.02655029296875	-0.01441650390625	3746.5790485408
0.030975341796875	-0.0135040283203125	3746.62329854069
0.035400390625	-0.0126220703125	3746.66754854057
0.039825439453125	-0.011761474609375	3746.71179854046
0.04425048828125	-0.010931396484375	3746.75604854035
0.048675537109375	-0.0101226806640625	3746.80029854024
0.0531005859375	-0.00933837890625	3746.84454854013
0.057525634765625	-0.0085723876953125	3746.88879854002
0.06195068359375	-0.0078277587890625	3746.9330485399
0.066375732421875	-0.0071075439453125	3746.97729853979
0.07080078125	-0.0064056396484375	3747.02154853968
0.075225830078125	-0.005718994140625	3747.06579853957
0.07965087890625	-0.0050537109375	3747.11004853946
0.084075927734375	-0.00440704345703125	3747.15429853934
0.0885009765625	-0.00377410888671875	3747.19854853923
0.092926025390625	-0.003157958984375	3747.24279853912
0.09735107421875	-0.00255645751953125	3747.28704853901
0.101776123046875	-0.00197052001953125	3747.3312985389
0.106201171875	-0.00140655517578125	3747.37554853879
0.110626220703125	-0.0008477783203125	3747.41979853867
0.11505126953125	-0.0003037109375	3747.46404853856
0.119476318359375	0.000223724365234375	3747.50829853845
0.1239013671875	0.0007415771484375	3747.55254853834
0.128326416015625	0.00124725341796875	3747.59679853823
0.13275146484375	0.00174041748046875	3747.64104853812
0.137176513671875	0.0022210693359375	3747.685298538
0.1416015625	0.002689208984375	3747.72954853789
0.146026611328125	0.00314727783203125	3747.77379853778
0.15045166015625	0.00359344482421875	3747.81804853767
0.154876708984375	0.0040301513671875	3747.86229853756
0.1593017578125	0.0044525146484375	3747.90654853745
0.163726806640625	0.00486541748046875	3747.95079853733
0.16815185546875	0.0052667236328125	3747.99504853722
0.172576904296875	0.0056585693359375	3748.03929853711
0.177001953125	0.0060406494140625	3748.083548537
0.181427001953125	0.006402587890625	3748.12779853689
0.18585205078125	0.0067657470703125	3748.17204853678
0.190277099609375	0.00711669921875	3748.21629853666
0.1947021484375	0.0074615478515625	3748.26054853655
0.199127197265625	0.007794189453125	3748.30479853644
0.20355224609375	0.00811767578125	3748.34904853633
0.207977294921875	0.00843505859375	3748.39329853622
0.21240234375	0.0087432861328125	3748.43754853611
0.216827392578125	0.00904541015625	3748.48179853599
0.22125244140625	0.0093414306640625	3748.52604853588
0.225677490234375	0.0096221923828125	3748.57029853577
0.2301025390625	0.00989990234375	3748.61454853566
0.234527587890625	0.0101654052734375	3748.65879853555
0.23895263671875	0.0104278564453125	3748.70304853543
0.243377685546875	0.0106842041015625	3748.74729853532
0.247802734375	0.0109283447265625	3748.79154853521
0.252227783203125	0.0111663818359375	3748.8357985351
0.25665283203125	0.0113983154296875	3748.88004853499
0.261077880859375	0.0116241455078125	3748.92429853488
0.2655029296875	0.0118438720703125	3748.96854853476
0.269927978515625	0.0120574951171875	3749.01279853465
0.27435302734375	0.0122650146484375	3749.05704853454
0.278778076171875	0.01246337890625	3749.10129853443
0.283203125	0.0126556396484375	3749.14554853432
0.287628173828125	0.0128448486328125	3749.18979853421
0.29205322265625	0.0130279541015625	3749.23404853409
0.296478271484375	0.013201904296875	3749.27829853398
0.3009033203125	0.013372802734375	3749.32254853387
0.305328369140625	0.01353759765625	3749.36679853376
0.30975341796875	0.0136993408203125	3749.41104853365
0.314178466796875	0.013861083984375	3749.45529853354
0.318603515625	0.014019775390625	3749.49954853342
0.323028564453125	0.0141632080078125	3749.54379853331
0.32745361328125	0.0143035888671875	3749.5880485332
0.331878662109375	0.01444091796875	3749.63229853309
0.3363037109375	0.0145721435546875	3749.67654853298
0.340728759765625	0.014697265625	3749.72079853287
0.34515380859375	0.014813232421875	3749.76504853275
0.349578857421875	0.0149261474609375	3749.80929853264
0.35400390625	0.015032958984375	3749.85354853253
0.358428955078125	0.0151519775390625	3749.89779853242
0.36285400390625	0.0152618408203125	3749.94204853231
0.367279052734375	0.0153594970703125	3749.98629853219
0.3717041015625	0.015447998046875	3750.03054853208
0.376129150390625	0.0155487060546875	3750.07479853197
0.38055419921875	0.015643310546875	3750.11904853186
0.384979248046875	0.015728759765625	3750.16329853175
0.389404296875	0.015814208984375	3750.20754853164
0.393829345703125	0.0158935546875	3750.25179853152
0.39825439453125	0.0159698486328125	3750.29604853141
0.402679443359375	0.0160400390625	3750.3402985313
0.4071044921875	0.0161102294921875	3750.38454853119
0.411529541015625	0.0161773681640625	3750.42879853108
0.41595458984375	0.016241455078125	3750.47304853097
0.420379638671875	0.016302490234375	3750.51729853085
0.4248046875	0.016357421875	3750.56154853074
0.429229736328125	0.016412353515625	3750.60579853063
0.43365478515625	0.0164642333984375	3750.65004853052
0.438079833984375	0.01651611328125	3750.69429853041
0.4425048828125	0.0165618896484375	3750.7385485303
0.446929931640625	0.016607666015625	3750.78279853018
0.45135498046875	0.0166473388671875	3750.82704853007
0.455780029296875	0.01668701171875	3750.87129852996
0.460205078125	0.0167236328125	3750.91554852985
0.464630126953125	0.01676025390625	3750.95979852974
0.46905517578125	0.0167938232421875	3751.00404852962
0.473480224609375	0.0168243408203125	3751.04829852951
0.4779052734375	0.0168548583984375	3751.0925485294
0.482330322265625	0.0168853759765625	3751.13679852929
0.48675537109375	0.0169097900390625	3751.18104852918
0.491180419921875	0.016937255859375	3751.22529852907
0.49560546875	0.0169586181640625	3751.26954852896
0.500030517578125	0.01697998046875	3751.31379852884
0.50445556640625	0.016998291015625	3751.35804852873
0.508880615234375	0.0170166015625	3751.40229852862
0.5133056640625	0.0170318603515625	3751.44654852851
0.517730712890625	0.017047119140625	3751.4907985284
0.52215576171875	0.017059326171875	3751.53504852828
0.526580810546875	0.017071533203125	3751.57929852817
0.531005859375	0.017083740234375	3751.62354852806
0.535430908203125	0.0170928955078125	3751.66779852795
0.53985595703125	0.01710205078125	3751.71204852784
0.544281005859375	0.017108154296875	3751.75629852773
0.5487060546875	0.0171142578125	3751.80054852761
0.553131103515625	0.017120361328125	3751.8447985275
0.55755615234375	0.0171234130859375	3751.88904852739
0.561981201171875	0.01712646484375	3751.93329852728
0.56640625	0.0171295166015625	3751.97754852717
0.570831298828125	0.0171295166015625	3752.02179852706
0.57525634765625	0.0171295166015625	3752.06604852694
0.579681396484375	0.0171295166015625	3752.11029852683
0.5841064453125	0.0171295166015625	3752.15454852672
0.588531494140625	0.0171234130859375	3752.19879852661
0.59295654296875	0.0171234130859375	3752.2430485265
0.597381591796875	0.0171173095703125	3752.28729852639
0.601806640625	0.0171142578125	3752.33154852627
0.606231689453125	0.017108154296875	3752.37579852616
0.61065673828125	0.01710205078125	3752.42004852605
0.615081787109375	0.017095947265625	3752.46429852594
0.6195068359375	0.01708984375	3752.50854852583
0.623931884765625	0.017083740234375	3752.55279852571
0.62835693359375	0.017083740234375	3752.5970485256
0.632781982421875	0.0170745849609375	3752.64129852549
0.63720703125	0.0170654296875	3752.68554852538
0.641632080078125	0.0170562744140625	3752.72979852527
0.64605712890625	0.017047119140625	3752.77404852516
0.650482177734375	0.0170379638671875	3752.81829852504
0.6549072265625	0.01702880859375	3752.86254852493
0.659332275390625	0.0170196533203125	3752.90679852482
0.66375732421875	0.0170074462890625	3752.95104852471
0.668182373046875	0.016998291015625	3752.9952985246
0.672607421875	0.0169891357421875	3753.03954852449
0.677032470703125	0.01697998046875	3753.08379852437
0.68145751953125	0.0169708251953125	3753.12804852426
0.685882568359375	0.0169586181640625	3753.17229852415
0.6903076171875	0.016949462890625	3753.21654852404
0.694732666015625	0.016937255859375	3753.26079852393
0.69915771484375	0.016925048828125	3753.30504852382
0.703582763671875	0.0169158935546875	3753.3492985237
0.7080078125	0.01690673828125	3753.39354852359
0.712432861328125	0.016900634765625	3753.43779852348
0.71685791015625	0.01689453125	3753.48204852337
0.721282958984375	0.0168853759765625	3753.52629852326
0.7257080078125	0.0168731689453125	3753.57054852315
0.730133056640625	0.016864013671875	3753.61479852303
0.73455810546875	0.01685791015625	3753.65904852292
0.738983154296875	0.016851806640625	3753.70329852281
0.743408203125	0.0168426513671875	3753.7475485227
0.747833251953125	0.0168365478515625	3753.79179852259
0.75225830078125	0.0168304443359375	3753.83604852247
0.756683349609375	0.0168243408203125	3753.88029852236
0.7611083984375	0.0168212890625	3753.92454852225
0.765533447265625	0.0168182373046875	3753.96879852214
0.76995849609375	0.0168121337890625	3754.01304852203
0.774383544921875	0.01680908203125	3754.05729852192
0.77880859375	0.01680908203125	3754.1015485218
0.783233642578125	0.01680908203125	3754.14579852169
0.78765869140625	0.01680908203125	3754.19004852158
0.792083740234375	0.01680908203125	3754.23429852147
0.7965087890625	0.01680908203125	3754.27854852136
0.800933837890625	0.0168121337890625	3754.32279852125
0.80535888671875	0.016815185546875	3754.36704852113
0.809783935546875	0.0168212890625	3754.41129852102
0.814208984375	0.016827392578125	3754.45554852091
0.818634033203125	0.01683349609375	3754.4997985208
0.82305908203125	0.0168426513671875	3754.54404852069
0.827484130859375	0.016851806640625	3754.58829852058
0.8319091796875	0.0168670654296875	3754.63254852046
0.836334228515625	0.016876220703125	3754.67679852035
0.84075927734375	0.016888427734375	3754.72104852024
0.845184326171875	0.0169036865234375	3754.76529852013
0.849609375	0.0169219970703125	3754.80954852002
0.854034423828125	0.016937255859375	3754.85379851991
0.85845947265625	0.01695556640625	3754.89804851979
0.862884521484375	0.016973876953125	3754.94229851968
0.8673095703125	0.016998291015625	3754.98654851957
0.871734619140625	0.0170196533203125	3755.03079851946
0.87615966796875	0.017047119140625	3755.07504851935
0.880584716796875	0.0170745849609375	3755.11929851924
0.885009765625	0.0171051025390625	3755.16354851912
0.889434814453125	0.0171356201171875	3755.20779851901
0.89385986328125	0.0171661376953125	3755.2520485189
0.898284912109375	0.0171966552734375	3755.29629851879
0.9027099609375	0.0172332763671875	3755.34054851868
0.907135009765625	0.0172698974609375	3755.38479851856
0.91156005859375	0.0173095703125	3755.42904851845
0.915985107421875	0.017352294921875	3755.47329851834
0.92041015625	0.0173980712890625	3755.51754851823
0.924835205078125	0.01744384765625	3755.56179851812
0.92926025390625	0.01749267578125	3755.60604851801
0.933685302734375	0.01754150390625	3755.65029851789
0.9381103515625	0.0176025390625	3755.69454851778
0.942535400390625	0.017657470703125	3755.73879851767
0.94696044921875	0.017718505859375	3755.78304851756
0.951385498046875	0.0177764892578125	3755.82729851745
0.955810546875	0.017840576171875	3755.87154851734
0.960235595703125	0.01790771484375	3755.91579851722
0.96466064453125	0.017974853515625	3755.96004851711
0.969085693359375	0.018048095703125	3756.004298517
0.9735107421875	0.018121337890625	3756.04854851689
0.977935791015625	0.018194580078125	3756.09279851678
0.98236083984375	0.01827392578125	3756.13704851667
0.986785888671875	0.0183563232421875	3756.18129851655
0.9912109375	0.0184417724609375	3756.22554851644
0.995635986328125	0.0185333251953125	3756.26979851633
1.00006103515625	0.0186279296875	3756.31404851622
0.995635986328125	0.0175048828125	3756.35829851611
0.9912109375	0.0164459228515625	3756.402548516
0.986785888671875	0.0154388427734375	3756.44679851588
0.98236083984375	0.0144744873046875	3756.49104851577
0.977935791015625	0.0135498046875	3756.53529851566
0.9735107421875	0.012664794921875	3756.57954851555
0.969085693359375	0.011810302734375	3756.62379851544
0.96466064453125	0.010980224609375	3756.66804851532
0.960235595703125	0.0101837158203125	3756.71229851521
0.955810546875	0.0094146728515625	3756.7565485151
0.951385498046875	0.0086669921875	3756.80079851499
0.94696044921875	0.0079437255859375	3756.84504851488
0.942535400390625	0.0072479248046875	3756.88929851477
0.9381103515625	0.0065673828125	3756.93354851465
0.933685302734375	0.0059051513671875	3756.97779851454
0.92926025390625	0.0052642822265625	3757.02204851443
0.924835205078125	0.00464508056640625	3757.06629851432
0.92041015625	0.00404266357421875	3757.11054851421
0.915985107421875	0.0034576416015625	3757.1547985141
0.91156005859375	0.00288909912109375	3757.19904851398
0.907135009765625	0.00233673095703125	3757.24329851387
0.9027099609375	0.00179931640625	3757.28754851376
0.898284912109375	0.0012762451171875	3757.33179851365
0.89385986328125	0.000767822265625	3757.37604851354
0.889434814453125	0.00027239990234375	3757.42029851343
0.885009765625	-0.00020867919921875	3757.46454851331
0.880584716796875	-0.00067596435546875	3757.5087985132
0.87615966796875	-0.00113067626953125	3757.55304851309
0.871734619140625	-0.0015728759765625	3757.59729851298
0.8673095703125	-0.002003173828125	3757.64154851287
0.862884521484375	-0.00242095947265625	3757.68579851276
0.85845947265625	-0.0028253173828125	3757.73004851264
0.854034423828125	-0.00322021484375	3757.77429851253
0.849609375	-0.0036041259765625	3757.81854851242
0.845184326171875	-0.0039764404296875	3757.86279851231
0.84075927734375	-0.00433868408203125	3757.9070485122
0.836334228515625	-0.00468994140625	3757.95129851209
0.8319091796875	-0.00503082275390625	3757.99554851197
0.827484130859375	-0.0053619384765625	3758.03979851186
0.82305908203125	-0.0056829833984375	3758.08404851175
0.818634033203125	-0.0059942626953125	3758.12829851164
0.814208984375	-0.0062969970703125	3758.17254851153
0.809783935546875	-0.0065643310546875	3758.21679851141
0.80535888671875	-0.00684814453125	3758.2610485113
0.800933837890625	-0.007122802734375	3758.30529851119
0.7965087890625	-0.007391357421875	3758.34954851108
0.792083740234375	-0.007647705078125	3758.39379851097
0.78765869140625	-0.0078948974609375	3758.43804851086
0.783233642578125	-0.008135986328125	3758.48229851074
0.77880859375	-0.0083709716796875	3758.52654851063
0.774383544921875	-0.0085968017578125	3758.57079851052
0.76995849609375	-0.008819580078125	3758.61504851041
0.765533447265625	-0.0090301513671875	3758.6592985103
0.7611083984375	-0.0092376708984375	3758.70354851019
0.756683349609375	-0.0094329833984375	3758.74779851007
0.75225830078125	-0.009625244140625	3758.79204850996
0.747833251953125	-0.009814453125	3758.83629850985
0.743408203125	-0.0099945068359375	3758.88054850974
0.738983154296875	-0.0101654052734375	3758.92479850963
0.73455810546875	-0.0103363037109375	3758.96904850952
0.730133056640625	-0.010498046875	3759.0132985094
0.7257080078125	-0.01065673828125	3759.05754850929
0.721282958984375	-0.010809326171875	3759.10179850918
0.71685791015625	-0.010955810546875	3759.14604850907
0.712432861328125	-0.01109619140625	3759.19029850896
0.7080078125	-0.0112335205078125	3759.23454850885
0.703582763671875	-0.0113677978515625	3759.27879850873
0.69915771484375	-0.0114959716796875	3759.32304850862
0.694732666015625	-0.0116241455078125	3759.36729850851
0.6903076171875	-0.0117462158203125	3759.4115485084
0.685882568359375	-0.011865234375	3759.45579850829
0.68145751953125	-0.0119842529296875	3759.50004850817
0.677032470703125	-0.01209716796875	3759.54429850806
0.672607421875	-0.012200927734375	3759.58854850795
0.668182373046875	-0.0123046875	3759.63279850784
0.66375732421875	-0.0123992919921875	3759.67704850773
0.659332275390625	-0.0124969482421875	3759.72129850762
0.6549072265625	-0.012591552734375	3759.7655485075
0.650482177734375	-0.012689208984375	3759.80979850739
0.64605712890625	-0.01278076171875	3759.85404850728
0.641632080078125	-0.0128692626953125	3759.89829850717
0.63720703125	-0.012957763671875	3759.94254850706
0.632781982421875	-0.013043212890625	3759.98679850695
0.62835693359375	-0.01312255859375	3760.03104850683
0.623931884765625	-0.0132110595703125	3760.07529850672
0.6195068359375	-0.013287353515625	3760.11954850661
0.615081787109375	-0.0133636474609375	3760.1637985065
0.61065673828125	-0.01343994140625	3760.20804850639
0.606231689453125	-0.01351318359375	3760.25229850628
0.601806640625	-0.0135833740234375	3760.29654850616
0.597381591796875	-0.0136505126953125	3760.34079850605
0.59295654296875	-0.0137176513671875	3760.38504850594
0.588531494140625	-0.0137786865234375	3760.42929850583
0.5841064453125	-0.0138427734375	3760.47354850572
0.579681396484375	-0.01390380859375	3760.51779850561
0.57525634765625	-0.01396484375	3760.56204850549
0.570831298828125	-0.0140228271484375	3760.60629850538
0.56640625	-0.014080810546875	3760.65054850527
0.561981201171875	-0.0141357421875	3760.69479850516
0.55755615234375	-0.014190673828125	3760.73904850505
0.553131103515625	-0.01424560546875	3760.78329850493
0.5487060546875	-0.014300537109375	3760.82754850482
0.544281005859375	-0.01435546875	3760.87179850471
0.53985595703125	-0.0144073486328125	3760.9160485046
0.535430908203125	-0.0144622802734375	3760.96029850449
0.531005859375	-0.0145111083984375	3761.00454850438
0.526580810546875	-0.01456298828125	3761.04879850426
0.52215576171875	-0.0146148681640625	3761.09304850415
0.517730712890625	-0.014666748046875	3761.13729850404
0.5133056640625	-0.0147125244140625	3761.18154850393
0.508880615234375	-0.014764404296875	3761.22579850382
0.50445556640625	-0.0148101806640625	3761.27004850371
0.500030517578125	-0.0148590087890625	3761.31429850359
0.49560546875	-0.0149078369140625	3761.35854850348
0.491180419921875	-0.01495361328125	3761.40279850337
0.48675537109375	-0.0149993896484375	3761.44704850326
0.482330322265625	-0.015045166015625	3761.49129850315
0.4779052734375	-0.0150909423828125	3761.53554850304
0.473480224609375	-0.01513671875	3761.57979850292
0.46905517578125	-0.0151824951171875	3761.62404850281
0.464630126953125	-0.015228271484375	3761.6682985027
0.460205078125	-0.0152740478515625	3761.71254850259
0.455780029296875	-0.0153167724609375	3761.75679850248
0.45135498046875	-0.015362548828125	3761.80104850237
0.446929931640625	-0.0154083251953125	3761.84529850225
0.4425048828125	-0.0154510498046875	3761.88954850214
0.438079833984375	-0.0154937744140625	3761.93379850203
0.43365478515625	-0.01553955078125	3761.97804850192
0.429229736328125	-0.015582275390625	3762.02229850181
0.4248046875	-0.015625	3762.0665485017
0.420379638671875	-0.0156707763671875	3762.11079850158
0.41595458984375	-0.01571044921875	3762.15504850147
0.411529541015625	-0.0157562255859375	3762.19929850136
0.4071044921875	-0.0157989501953125	3762.24354850125
0.402679443359375	-0.0158416748046875	3762.28779850114
0.39825439453125	-0.015887451171875	3762.33204850102
0.393829345703125	-0.01593017578125	3762.37629850091
0.389404296875	-0.0159759521484375	3762.4205485008
0.384979248046875	-0.0160186767578125	3762.46479850069
0.38055419921875	-0.0160614013671875	3762.50904850058
0.376129150390625	-0.016107177734375	3762.55329850047
0.3717041015625	-0.0161529541015625	3762.59754850035
0.367279052734375	-0.0161956787109375	3762.64179850024
0.36285400390625	-0.016241455078125	3762.68604850013
0.358428955078125	-0.0162872314453125	3762.73029850002
0.35400390625	-0.0163299560546875	3762.77454849991
0.349578857421875	-0.01636962890625	3762.8187984998
0.34515380859375	-0.0164154052734375	3762.86304849968
0.340728759765625	-0.016461181640625	3762.90729849957
0.3363037109375	-0.0165069580078125	3762.95154849946
0.331878662109375	-0.0165496826171875	3762.99579849935
0.32745361328125	-0.016595458984375	3763.04004849924
0.323028564453125	-0.0166412353515625	3763.08429849913
0.318603515625	-0.01668701171875	3763.12854849901
0.314178466796875	-0.0167327880859375	3763.1727984989
0.30975341796875	-0.0167816162109375	3763.21704849879
0.305328369140625	-0.016827392578125	3763.26129849868
0.3009033203125	-0.0168731689453125	3763.30554849857
0.296478271484375	-0.0169189453125	3763.34979849846
0.29205322265625	-0.0169647216796875	3763.39404849834
0.287628173828125	-0.0170135498046875	3763.43829849823
0.283203125	-0.0170562744140625	3763.48254849812
0.278778076171875	-0.0171051025390625	3763.52679849801
0.27435302734375	-0.0171478271484375	3763.5710484979
0.269927978515625	-0.017193603515625	3763.61529849778
0.2655029296875	-0.0172393798828125	3763.65954849767
0.261077880859375	-0.01728515625	3763.70379849756
0.25665283203125	-0.0173309326171875	3763.74804849745
0.252227783203125	-0.017376708984375	3763.79229849734
0.247802734375	-0.0174224853515625	3763.83654849723
0.243377685546875	-0.0174713134765625	3763.88079849711
0.23895263671875	-0.0175201416015625	3763.925048497
0.234527587890625	-0.0175689697265625	3763.96929849689
0.2301025390625	-0.0176116943359375	3764.01354849678
0.225677490234375	-0.0176605224609375	3764.05779849667
0.22125244140625	-0.0177093505859375	3764.10204849656
0.216827392578125	-0.0177581787109375	3764.14629849644
0.21240234375	-0.01781005859375	3764.19054849633
0.207977294921875	-0.0178558349609375	3764.23479849622
0.20355224609375	-0.0179046630859375	3764.27904849611
0.199127197265625	-0.0179534912109375	3764.323298496
0.1947021484375	-0.0180023193359375	3764.36754849589
0.190277099609375	-0.01805419921875	3764.41179849577
0.18585205078125	-0.01810302734375	3764.45604849566
0.181427001953125	-0.0181549072265625	3764.50029849555
0.177001953125	-0.018206787109375	3764.54454849544
0.172576904296875	-0.018255615234375	3764.58879849533
0.16815185546875	-0.0183074951171875	3764.63304849522
0.163726806640625	-0.0183563232421875	3764.6772984951
0.1593017578125	-0.018408203125	3764.72154849499
0.154876708984375	-0.018463134765625	3764.76579849488
0.15045166015625	-0.0185150146484375	3764.81004849477
0.146026611328125	-0.01856689453125	3764.85429849466
0.1416015625	-0.018621826171875	3764.89854849455
0.137176513671875	-0.0186767578125	3764.94279849443
0.13275146484375	-0.0187286376953125	3764.98704849432
0.128326416015625	-0.0187835693359375	3765.03129849421
0.1239013671875	-0.0188385009765625	3765.0755484941
0.119476318359375	-0.018896484375	3765.11979849399
0.11505126953125	-0.0189483642578125	3765.16404849387
0.110626220703125	-0.01900634765625	3765.20829849376
0.106201171875	-0.0190643310546875	3765.25254849365
0.101776123046875	-0.0191192626953125	3765.29679849354
0.09735107421875	-0.0191802978515625	3765.34104849343
0.092926025390625	-0.01923828125	3765.38529849332
0.0885009765625	-0.01929931640625	3765.4295484932
0.084075927734375	-0.0193603515625	3765.47379849309
0.07965087890625	-0.0194183349609375	3765.51804849298
0.075225830078125	-0.0194793701171875	3765.56229849287
0.07080078125	-0.0195404052734375	3765.60654849276
0.066375732421875	-0.0196014404296875	3765.65079849265
0.06195068359375	-0.01966552734375	3765.69504849253
0.057525634765625	-0.019732666015625	3765.73929849242
0.0531005859375	-0.0197967529296875	3765.78354849231
0.048675537109375	-0.01986083984375	3765.8277984922
0.04425048828125	-0.019927978515625	3765.87204849209
0.039825439453125	-0.0199951171875	3765.91629849198
0.035400390625	-0.0200653076171875	3765.96054849186
0.030975341796875	-0.0201324462890625	3766.00479849175
0.02655029296875	-0.02020263671875	3766.04904849164
0.022125244140625	-0.020269775390625	3766.09329849153
0.0177001953125	-0.0203399658203125	3766.13754849142
0.013275146484375	-0.02041015625	3766.18179849131
0.00885009765625	-0.0204833984375	3766.22604849119
0.004425048828125	-0.020556640625	3766.27029849108
0	-0.0206329345703125	3766.31454849097
0.004425048828125	-0.0194854736328125	3766.35879849086
0.00885009765625	-0.0183929443359375	3766.40304849075
0.013275146484375	-0.017340087890625	3766.44729849063
0.0177001953125	-0.0163330078125	3766.49154849052
0.022125244140625	-0.0153594970703125	3766.53579849041
0.02655029296875	-0.0144134521484375	3766.5800484903
0.030975341796875	-0.0135040283203125	3766.62429849019
0.035400390625	-0.0126190185546875	3766.66854849008
0.039825439453125	-0.011761474609375	3766.71279848996
0.04425048828125	-0.010931396484375	3766.75704848985
0.048675537109375	-0.010125732421875	3766.80129848974
0.0531005859375	-0.0093414306640625	3766.84554848963
0.057525634765625	-0.0085784912109375	3766.88979848952
0.06195068359375	-0.0078338623046875	3766.93404848941
0.066375732421875	-0.0071136474609375	3766.97829848929
0.07080078125	-0.00640869140625	3767.02254848918
0.075225830078125	-0.00572509765625	3767.06679848907
0.07965087890625	-0.005059814453125	3767.11104848896
0.084075927734375	-0.00441375732421875	3767.15529848885
0.0885009765625	-0.0037811279296875	3767.19954848874
0.092926025390625	-0.003165283203125	3767.24379848862
0.09735107421875	-0.0025640869140625	3767.28804848851
0.101776123046875	-0.0019793701171875	3767.3322984884
0.106201171875	-0.00141510009765625	3767.37654848829
0.110626220703125	-0.00085723876953125	3767.42079848818
0.11505126953125	-0.000313568115234375	3767.46504848806
0.119476318359375	0.0002139892578125	3767.50929848795
0.1239013671875	0.000731201171875	3767.55354848784
0.128326416015625	0.00123687744140625	3767.59779848773
0.13275146484375	0.001729736328125	3767.64204848762
0.137176513671875	0.00220977783203125	3767.68629848751
0.1416015625	0.00267852783203125	3767.7305484874
0.146026611328125	0.003135986328125	3767.77479848728
0.15045166015625	0.00358245849609375	3767.81904848717
0.154876708984375	0.0040185546875	3767.86329848706
0.1593017578125	0.00444061279296875	3767.90754848695
0.163726806640625	0.0048529052734375	3767.95179848684
0.16815185546875	0.005255126953125	3767.99604848672
0.172576904296875	0.00564697265625	3768.04029848661
0.177001953125	0.00602783203125	3768.0845484865
0.181427001953125	0.006390380859375	3768.12879848639
0.18585205078125	0.0067535400390625	3768.17304848628
0.190277099609375	0.0071044921875	3768.21729848617
0.1947021484375	0.0074493408203125	3768.26154848605
0.199127197265625	0.007781982421875	3768.30579848594
0.20355224609375	0.0081024169921875	3768.35004848583
0.207977294921875	0.0084197998046875	3768.39429848572
0.21240234375	0.00872802734375	3768.43854848561
0.216827392578125	0.009033203125	3768.4827984855
0.22125244140625	0.009326171875	3768.52704848538
0.225677490234375	0.0096099853515625	3768.57129848527
0.2301025390625	0.0098876953125	3768.61554848516
0.234527587890625	0.0101531982421875	3768.65979848505
0.23895263671875	0.0104156494140625	3768.70404848494
0.243377685546875	0.0106719970703125	3768.74829848483
0.247802734375	0.010919189453125	3768.79254848471
0.252227783203125	0.0111572265625	3768.8367984846
0.25665283203125	0.01138916015625	3768.88104848449
0.261077880859375	0.011614990234375	3768.92529848438
0.2655029296875	0.011834716796875	3768.96954848427
0.269927978515625	0.01204833984375	3769.01379848415
0.27435302734375	0.0122528076171875	3769.05804848404
0.278778076171875	0.0124542236328125	3769.10229848393
0.283203125	0.012646484375	3769.14654848382
0.287628173828125	0.0128326416015625	3769.19079848371
0.29205322265625	0.0130157470703125	3769.2350484836
0.296478271484375	0.0131927490234375	3769.27929848348
0.3009033203125	0.013360595703125	3769.32354848337
0.305328369140625	0.0135284423828125	3769.36779848326
0.30975341796875	0.0136871337890625	3769.41204848315
0.314178466796875	0.0138519287109375	3769.45629848304
0.318603515625	0.014007568359375	3769.50054848293
0.323028564453125	0.0141510009765625	3769.54479848281
0.32745361328125	0.014288330078125	3769.5890484827
0.331878662109375	0.0144256591796875	3769.63329848259
0.3363037109375	0.0145538330078125	3769.67754848248
0.340728759765625	0.0146759033203125	3769.72179848237
0.34515380859375	0.014794921875	3769.76604848226
0.349578857421875	0.0149078369140625	3769.81029848214
0.35400390625	0.0150238037109375	3769.85454848203
0.358428955078125	0.0151397705078125	3769.89879848192
0.36285400390625	0.015240478515625	3769.94304848181
0.367279052734375	0.01533203125	3769.9872984817
0.3717041015625	0.015435791015625	3770.03154848159
0.376129150390625	0.0155364990234375	3770.07579848147
0.38055419921875	0.0156280517578125	3770.12004848136
0.384979248046875	0.0157135009765625	3770.16429848125
0.389404296875	0.0157958984375	3770.20854848114
0.393829345703125	0.0158721923828125	3770.25279848103
0.39825439453125	0.0159454345703125	3770.29704848091
0.402679443359375	0.0160186767578125	3770.3412984808
0.4071044921875	0.0160888671875	3770.38554848069
0.411529541015625	0.0161529541015625	3770.42979848058
0.41595458984375	0.016217041015625	3770.47404848047
0.420379638671875	0.0162750244140625	3770.51829848036
0.4248046875	0.0163330078125	3770.56254848024
0.429229736328125	0.016387939453125	3770.60679848013
0.43365478515625	0.0164398193359375	3770.65104848002
0.438079833984375	0.016485595703125	3770.69529847991
0.4425048828125	0.016534423828125	3770.7395484798
0.446929931640625	0.0165771484375	3770.78379847969
0.45135498046875	0.016619873046875	3770.82804847957
0.455780029296875	0.01666259765625	3770.87229847946
0.460205078125	0.01669921875	3770.91654847935
0.464630126953125	0.01673583984375	3770.96079847924
0.46905517578125	0.016766357421875	3771.00504847913
0.473480224609375	0.016796875	3771.04929847902
0.4779052734375	0.016827392578125	3771.0935484789
0.482330322265625	0.0168548583984375	3771.13779847879
0.48675537109375	0.01688232421875	3771.18204847868
0.491180419921875	0.01690673828125	3771.22629847857
0.49560546875	0.0169281005859375	3771.27054847846
0.500030517578125	0.016949462890625	3771.31479847835
0.50445556640625	0.0169677734375	3771.35904847823
0.508880615234375	0.016986083984375	3771.40329847812
0.5133056640625	0.01700439453125	3771.44754847801
0.517730712890625	0.0170166015625	3771.4917984779
0.52215576171875	0.01702880859375	3771.53604847779
0.526580810546875	0.017041015625	3771.58029847768
0.531005859375	0.0170501708984375	3771.62454847756
0.535430908203125	0.0170623779296875	3771.66879847745
0.53985595703125	0.0170684814453125	3771.71304847734
0.544281005859375	0.01707763671875	3771.75729847723
0.5487060546875	0.0170806884765625	3771.80154847712
0.553131103515625	0.017083740234375	3771.845798477
0.55755615234375	0.01708984375	3771.89004847689
0.561981201171875	0.0170928955078125	3771.93429847678
0.56640625	0.017095947265625	3771.97854847667
0.570831298828125	0.017095947265625	3772.02279847656
0.57525634765625	0.017095947265625	3772.06704847645
0.579681396484375	0.0170928955078125	3772.11129847633
0.5841064453125	0.0170928955078125	3772.15554847622
0.588531494140625	0.0170867919921875	3772.19979847611
0.59295654296875	0.0170867919921875	3772.244048476
0.597381591796875	0.0170806884765625	3772.28829847589
0.601806640625	0.01707763671875	3772.33254847578
0.606231689453125	0.017071533203125	3772.37679847566
0.61065673828125	0.0170654296875	3772.42104847555
0.615081787109375	0.017059326171875	3772.46529847544
0.6195068359375	0.0170501708984375	3772.50954847533
0.623931884765625	0.0170440673828125	3772.55379847522
0.62835693359375	0.017041015625	3772.59804847511
0.632781982421875	0.017034912109375	3772.64229847499
0.63720703125	0.0170257568359375	3772.68654847488
0.641632080078125	0.0170166015625	3772.73079847477
0.64605712890625	0.0170074462890625	3772.77504847466
0.650482177734375	0.0169952392578125	3772.81929847455
0.6549072265625	0.016986083984375	3772.86354847444
0.659332275390625	0.0169769287109375	3772.90779847432
0.66375732421875	0.0169647216796875	3772.95204847421
0.668182373046875	0.0169525146484375	3772.9962984741
0.672607421875	0.016943359375	3773.04054847399
0.677032470703125	0.0169342041015625	3773.08479847388
0.68145751953125	0.0169219970703125	3773.12904847376
0.685882568359375	0.016912841796875	3773.17329847365
0.6903076171875	0.016900634765625	3773.21754847354
0.694732666015625	0.0168914794921875	3773.26179847343
0.69915771484375	0.0168792724609375	3773.30604847332
0.703582763671875	0.0168701171875	3773.35029847321
0.7080078125	0.01685791015625	3773.39454847309
0.712432861328125	0.0168487548828125	3773.43879847298
0.71685791015625	0.016839599609375	3773.48304847287
0.721282958984375	0.016827392578125	3773.52729847276
0.7257080078125	0.0168182373046875	3773.57154847265
0.730133056640625	0.0168121337890625	3773.61579847254
0.73455810546875	0.0167999267578125	3773.66004847242
0.738983154296875	0.016790771484375	3773.70429847231
0.743408203125	0.01678466796875	3773.7485484722
0.747833251953125	0.0167755126953125	3773.79279847209
0.75225830078125	0.0167694091796875	3773.83704847198
0.756683349609375	0.0167633056640625	3773.88129847187
0.7611083984375	0.0167572021484375	3773.92554847175
0.765533447265625	0.0167510986328125	3773.96979847164
0.76995849609375	0.016748046875	3774.01404847153
0.774383544921875	0.0167449951171875	3774.05829847142
0.77880859375	0.0167449951171875	3774.10254847131
0.783233642578125	0.0167449951171875	3774.1467984712
0.78765869140625	0.0167449951171875	3774.19104847108
0.792083740234375	0.016741943359375	3774.23529847097
0.7965087890625	0.0167449951171875	3774.27954847086
0.800933837890625	0.016748046875	3774.32379847075
0.80535888671875	0.016748046875	3774.36804847064
0.809783935546875	0.0167510986328125	3774.41229847053
0.814208984375	0.016754150390625	3774.45654847041
0.818634033203125	0.01676025390625	3774.5007984703
0.82305908203125	0.016766357421875	3774.54504847019
0.827484130859375	0.0167755126953125	3774.58929847008
0.8319091796875	0.01678466796875	3774.63354846997
0.836334228515625	0.0167938232421875	3774.67779846985
0.84075927734375	0.0168060302734375	3774.72204846974
0.845184326171875	0.0168212890625	3774.76629846963
0.849609375	0.01683349609375	3774.81054846952
0.854034423828125	0.016851806640625	3774.85479846941
0.85845947265625	0.0168670654296875	3774.8990484693
0.862884521484375	0.01688232421875	3774.94329846918
0.8673095703125	0.0169036865234375	3774.98754846907
0.871734619140625	0.0169281005859375	3775.03179846896
0.87615966796875	0.016949462890625	3775.07604846885
0.880584716796875	0.0169769287109375	3775.12029846874
0.885009765625	0.0170013427734375	3775.16454846863
0.889434814453125	0.01702880859375	3775.20879846851
0.89385986328125	0.017059326171875	3775.2530484684
0.898284912109375	0.0170928955078125	3775.29729846829
0.9027099609375	0.0171295166015625	3775.34154846818
0.907135009765625	0.0171630859375	3775.38579846807
0.91156005859375	0.01719970703125	3775.43004846796
0.915985107421875	0.0172393798828125	3775.47429846784
0.92041015625	0.0172821044921875	3775.51854846773
0.924835205078125	0.0173248291015625	3775.56279846762
0.92926025390625	0.0173736572265625	3775.60704846751
0.933685302734375	0.0174224853515625	3775.6512984674
0.9381103515625	0.0174774169921875	3775.69554846729
0.942535400390625	0.0175323486328125	3775.73979846717
0.94696044921875	0.01759033203125	3775.78404846706
0.951385498046875	0.0176483154296875	3775.82829846695
0.955810546875	0.01771240234375	3775.87254846684
0.960235595703125	0.0177764892578125	3775.91679846673
0.96466064453125	0.0178436279296875	3775.96104846661
0.969085693359375	0.017913818359375	3776.0052984665
0.9735107421875	0.0179840087890625	3776.04954846639
0.977935791015625	0.0180572509765625	3776.09379846628
0.98236083984375	0.0181365966796875	3776.13804846617
0.986785888671875	0.018218994140625	3776.18229846606
0.9912109375	0.0183074951171875	3776.22654846594
0.995635986328125	0.01839599609375	3776.27079846583
1.00006103515625	0.018487548828125	3776.31504846572
0.995635986328125	0.017364501953125	3776.35929846561
0.9912109375	0.0163055419921875	3776.4035484655
0.986785888671875	0.0152984619140625	3776.44779846539
0.98236083984375	0.0143310546875	3776.49204846527
0.977935791015625	0.013409423828125	3776.53629846516
0.9735107421875	0.0125244140625	3776.58054846505
0.969085693359375	0.0116668701171875	3776.62479846494
0.96466064453125	0.010845947265625	3776.66904846483
0.960235595703125	0.01004638671875	3776.71329846472
0.955810546875	0.00927734375	3776.7575484646
0.951385498046875	0.00853271484375	3776.80179846449
0.94696044921875	0.0078125	3776.84604846438
0.942535400390625	0.0071136474609375	3776.89029846427
0.9381103515625	0.00643310546875	3776.93454846416
0.933685302734375	0.00577392578125	3776.97879846405
0.92926025390625	0.005133056640625	3777.02304846393
0.924835205078125	0.00451629638671875	3777.06729846382
0.92041015625	0.00391387939453125	3777.11154846371
0.915985107421875	0.003331298828125	3777.1557984636
0.91156005859375	0.00276458740234375	3777.20004846349
0.907135009765625	0.002213134765625	3777.24429846337
0.9027099609375	0.0016778564453125	3777.28854846326
0.898284912109375	0.00115692138671875	3777.33279846315
0.89385986328125	0.00064971923828125	3777.37704846304
0.889434814453125	0.00015625	3777.42129846293
0.885009765625	-0.000322540283203125	3777.46554846282
0.880584716796875	-0.0007879638671875	3777.5097984627
0.87615966796875	-0.0012408447265625	3777.55404846259
0.871734619140625	-0.00168121337890625	3777.59829846248
0.8673095703125	-0.00210906982421875	3777.64254846237
0.862884521484375	-0.0025250244140625	3777.68679846226
0.85845947265625	-0.00292755126953125	3777.73104846215
0.854034423828125	-0.0033203125	3777.77529846203
0.849609375	-0.00370269775390625	3777.81954846192
0.845184326171875	-0.00407257080078125	3777.86379846181
0.84075927734375	-0.00443267822265625	3777.9080484617
0.836334228515625	-0.0047821044921875	3777.95229846159
0.8319091796875	-0.00512054443359375	3777.99654846148
0.827484130859375	-0.0054498291015625	3778.04079846136
0.82305908203125	-0.00576995849609375	3778.08504846125
0.818634033203125	-0.00607818603515625	3778.12929846114
0.814208984375	-0.006353759765625	3778.17354846103
0.809783935546875	-0.0066436767578125	3778.21779846092
0.80535888671875	-0.0069244384765625	3778.26204846081
0.800933837890625	-0.007196044921875	3778.30629846069
0.7965087890625	-0.0074615478515625	3778.35054846058
0.792083740234375	-0.0077178955078125	3778.39479846047
0.78765869140625	-0.0079620361328125	3778.43904846036
0.783233642578125	-0.008203125	3778.48329846025
0.77880859375	-0.00843505859375	3778.52754846014
0.774383544921875	-0.0086578369140625	3778.57179846002
0.76995849609375	-0.0088775634765625	3778.61604845991
0.765533447265625	-0.009088134765625	3778.6602984598
0.7611083984375	-0.0092926025390625	3778.70454845969
0.756683349609375	-0.0094879150390625	3778.74879845958
0.75225830078125	-0.0096771240234375	3778.79304845946
0.747833251953125	-0.00986328125	3778.83729845935
0.743408203125	-0.010040283203125	3778.88154845924
0.738983154296875	-0.010211181640625	3778.92579845913
0.73455810546875	-0.0103759765625	3778.97004845902
0.730133056640625	-0.0105377197265625	3779.01429845891
0.7257080078125	-0.0106964111328125	3779.05854845879
0.721282958984375	-0.010845947265625	3779.10279845868
0.71685791015625	-0.0109893798828125	3779.14704845857
0.712432861328125	-0.0111297607421875	3779.19129845846
0.7080078125	-0.0112640380859375	3779.23554845835
0.703582763671875	-0.011395263671875	3779.27979845824
0.69915771484375	-0.0115234375	3779.32404845812
0.694732666015625	-0.0116455078125	3779.36829845801
0.6903076171875	-0.011767578125	3779.4125484579
0.685882568359375	-0.0118865966796875	3779.45679845779
0.68145751953125	-0.0120025634765625	3779.50104845768
0.677032470703125	-0.0121124267578125	3779.54529845757
0.672607421875	-0.0122161865234375	3779.58954845745
0.668182373046875	-0.0123199462890625	3779.63379845734
0.66375732421875	-0.0124114990234375	3779.67804845723
0.659332275390625	-0.012506103515625	3779.72229845712
0.6549072265625	-0.0126007080078125	3779.76654845701
0.650482177734375	-0.0126953125	3779.8107984569
0.64605712890625	-0.01279296875	3779.85504845678
0.641632080078125	-0.01287841796875	3779.89929845667
0.63720703125	-0.0129638671875	3779.94354845656
0.632781982421875	-0.0130462646484375	3779.98779845645
0.62835693359375	-0.013128662109375	3780.03204845634
0.623931884765625	-0.0132110595703125	3780.07629845622
0.6195068359375	-0.013287353515625	3780.12054845611
0.615081787109375	-0.013360595703125	3780.164798456
0.61065673828125	-0.0134368896484375	3780.20904845589
0.606231689453125	-0.0135101318359375	3780.25329845578
0.601806640625	-0.0135772705078125	3780.29754845567
0.597381591796875	-0.0136444091796875	3780.34179845555
0.59295654296875	-0.01370849609375	3780.38604845544
0.588531494140625	-0.0137725830078125	3780.43029845533
0.5841064453125	-0.0138336181640625	3780.47454845522
0.579681396484375	-0.0138946533203125	3780.51879845511
0.57525634765625	-0.01395263671875	3780.563048455
0.570831298828125	-0.014013671875	3780.60729845488
0.56640625	-0.0140716552734375	3780.65154845477
0.561981201171875	-0.01412353515625	3780.69579845466
0.55755615234375	-0.0141815185546875	3780.74004845455
0.553131103515625	-0.0142364501953125	3780.78429845444
0.5487060546875	-0.014288330078125	3780.82854845433
0.544281005859375	-0.0143402099609375	3780.87279845421
0.53985595703125	-0.0143951416015625	3780.9170484541
0.535430908203125	-0.014447021484375	3780.96129845399
0.531005859375	-0.014495849609375	3781.00554845388
0.526580810546875	-0.0145477294921875	3781.04979845377
0.52215576171875	-0.0145965576171875	3781.09404845365
0.517730712890625	-0.0146453857421875	3781.13829845354
0.5133056640625	-0.014697265625	3781.18254845343
0.508880615234375	-0.0147430419921875	3781.22679845332
0.50445556640625	-0.0147918701171875	3781.27104845321
0.500030517578125	-0.014837646484375	3781.3152984531
0.49560546875	-0.0148834228515625	3781.35954845299
0.491180419921875	-0.01492919921875	3781.40379845287
0.48675537109375	-0.0149749755859375	3781.44804845276
0.482330322265625	-0.015020751953125	3781.49229845265
0.4779052734375	-0.0150665283203125	3781.53654845254
0.473480224609375	-0.0151123046875	3781.58079845243
0.46905517578125	-0.0151580810546875	3781.62504845231
0.464630126953125	-0.0152008056640625	3781.6692984522
0.460205078125	-0.01524658203125	3781.71354845209
0.455780029296875	-0.015289306640625	3781.75779845198
0.45135498046875	-0.0153350830078125	3781.80204845187
0.446929931640625	-0.0153778076171875	3781.84629845176
0.4425048828125	-0.015423583984375	3781.89054845164
0.438079833984375	-0.01546630859375	3781.93479845153
0.43365478515625	-0.0155120849609375	3781.97904845142
0.429229736328125	-0.0155548095703125	3782.02329845131
0.4248046875	-0.0155975341796875	3782.0675484512
0.420379638671875	-0.0156402587890625	3782.11179845109
0.41595458984375	-0.01568603515625	3782.15604845097
0.411529541015625	-0.015728759765625	3782.20029845086
0.4071044921875	-0.015771484375	3782.24454845075
0.402679443359375	-0.015814208984375	3782.28879845064
0.39825439453125	-0.0158599853515625	3782.33304845053
0.393829345703125	-0.0159027099609375	3782.37729845042
0.389404296875	-0.0159454345703125	3782.4215484503
0.384979248046875	-0.0159912109375	3782.46579845019
0.38055419921875	-0.0160369873046875	3782.51004845008
0.376129150390625	-0.0160797119140625	3782.55429844997
0.3717041015625	-0.0161224365234375	3782.59854844986
0.367279052734375	-0.016168212890625	3782.64279844974
0.36285400390625	-0.0162139892578125	3782.68704844963
0.358428955078125	-0.0162567138671875	3782.73129844952
0.35400390625	-0.016302490234375	3782.77554844941
0.349578857421875	-0.0163421630859375	3782.8197984493
0.34515380859375	-0.0163848876953125	3782.86404844919
0.340728759765625	-0.0164337158203125	3782.90829844907
0.3363037109375	-0.0164764404296875	3782.95254844896
0.331878662109375	-0.016522216796875	3782.99679844885
0.32745361328125	-0.0165679931640625	3783.04104844874
0.323028564453125	-0.01661376953125	3783.08529844863
0.318603515625	-0.0166595458984375	3783.12954844852
0.314178466796875	-0.0167022705078125	3783.1737984484
0.30975341796875	-0.0167510986328125	3783.21804844829
0.305328369140625	-0.016796875	3783.26229844818
0.3009033203125	-0.0168426513671875	3783.30654844807
0.296478271484375	-0.0168853759765625	3783.35079844796
0.29205322265625	-0.0169342041015625	3783.39504844785
0.287628173828125	-0.01697998046875	3783.43929844773
0.283203125	-0.0170257568359375	3783.48354844762
0.278778076171875	-0.017071533203125	3783.52779844751
0.27435302734375	-0.0171173095703125	3783.5720484474
0.269927978515625	-0.0171630859375	3783.61629844729
0.2655029296875	-0.017205810546875	3783.66054844718
0.261077880859375	-0.0172515869140625	3783.70479844706
0.25665283203125	-0.01729736328125	3783.74904844695
0.252227783203125	-0.01734619140625	3783.79329844684
0.247802734375	-0.0173919677734375	3783.83754844673
0.243377685546875	-0.0174407958984375	3783.88179844662
0.23895263671875	-0.0174896240234375	3783.9260484465
0.234527587890625	-0.017535400390625	3783.97029844639
0.2301025390625	-0.017584228515625	3784.01454844628
0.225677490234375	-0.0176300048828125	3784.05879844617
0.22125244140625	-0.0176788330078125	3784.10304844606
0.216827392578125	-0.0177276611328125	3784.14729844595
0.21240234375	-0.0177764892578125	3784.19154844583
0.207977294921875	-0.017828369140625	3784.23579844572
0.20355224609375	-0.017877197265625	3784.28004844561
0.199127197265625	-0.0179229736328125	3784.3242984455
0.1947021484375	-0.0179718017578125	3784.36854844539
0.190277099609375	-0.0180206298828125	3784.41279844528
0.18585205078125	-0.018072509765625	3784.45704844516
0.181427001953125	-0.018121337890625	3784.50129844505
0.177001953125	-0.0181732177734375	3784.54554844494
0.172576904296875	-0.0182220458984375	3784.58979844483
0.16815185546875	-0.01827392578125	3784.63404844472
0.163726806640625	-0.0183258056640625	3784.67829844461
0.1593017578125	-0.018377685546875	3784.72254844449
0.154876708984375	-0.0184295654296875	3784.76679844438
0.15045166015625	-0.0184844970703125	3784.81104844427
0.146026611328125	-0.018536376953125	3784.85529844416
0.1416015625	-0.0185882568359375	3784.89954844405
0.137176513671875	-0.0186431884765625	3784.94379844394
0.13275146484375	-0.0186981201171875	3784.98804844382
0.128326416015625	-0.01875	3785.03229844371
0.1239013671875	-0.018804931640625	3785.0765484436
0.119476318359375	-0.0188629150390625	3785.12079844349
0.11505126953125	-0.018914794921875	3785.16504844338
0.110626220703125	-0.0189727783203125	3785.20929844327
0.106201171875	-0.0190338134765625	3785.25354844315
0.101776123046875	-0.0190887451171875	3785.29779844304
0.09735107421875	-0.019146728515625	3785.34204844293
0.092926025390625	-0.0192047119140625	3785.38629844282
0.0885009765625	-0.0192657470703125	3785.43054844271
0.084075927734375	-0.01932373046875	3785.47479844259
0.07965087890625	-0.0193878173828125	3785.51904844248
0.075225830078125	-0.01944580078125	3785.56329844237
0.07080078125	-0.0195068359375	3785.60754844226
0.066375732421875	-0.01956787109375	3785.65179844215
0.06195068359375	-0.01962890625	3785.69604844204
0.057525634765625	-0.019696044921875	3785.74029844192
0.0531005859375	-0.01976318359375	3785.78454844181
0.048675537109375	-0.019830322265625	3785.8287984417
0.04425048828125	-0.0198944091796875	3785.87304844159
0.039825439453125	-0.019964599609375	3785.91729844148
0.035400390625	-0.0200286865234375	3785.96154844137
0.030975341796875	-0.020098876953125	3786.00579844125
0.02655029296875	-0.0201690673828125	3786.05004844114
0.022125244140625	-0.0202362060546875	3786.09429844103
0.0177001953125	-0.0203094482421875	3786.13854844092
0.013275146484375	-0.020379638671875	3786.18279844081
0.00885009765625	-0.020452880859375	3786.2270484407
0.004425048828125	-0.020526123046875	3786.27129844058
0	-0.020599365234375	3786.31554844047
0.004425048828125	-0.0194549560546875	3786.35979844036
0.00885009765625	-0.018359375	3786.40404844025
0.013275146484375	-0.0173095703125	3786.44829844014
