Potential applied (V)	WE(1).Current (A)	Time (s)
0.004425048828125	-0.00159271240234375	3410.92713438824
0.00885009765625	-0.0009368896484375	3411.14838638768
0.013275146484375	-0.0003648681640625	3411.36963838712
0.0177001953125	0.000140228271484375	3411.59089038656
0.022125244140625	0.00058868408203125	3411.812142386
0.02655029296875	0.00099029541015625	3412.03339438544
0.030975341796875	0.00135101318359375	3412.25464638489
0.035400390625	0.0016754150390625	3412.47589838433
0.039825439453125	0.00196502685546875	3412.69715038377
0.04425048828125	0.00222381591796875	3412.91840238321
0.048675537109375	0.0024566650390625	3413.13965438265
0.0531005859375	0.00266448974609375	3413.36090638209
0.057525634765625	0.00285003662109375	3413.58215838153
0.06195068359375	0.0030194091796875	3413.80341038098
0.066375732421875	0.0031744384765625	3414.02466238042
0.07080078125	0.0033135986328125	3414.24591437986
0.075225830078125	0.0034381103515625	3414.4671663793
0.07965087890625	0.00354888916015625	3414.68841837874
0.084075927734375	0.003648681640625	3414.90967037818
0.0885009765625	0.00373626708984375	3415.13092237762
0.092926025390625	0.00381591796875	3415.35217437706
0.09735107421875	0.0038861083984375	3415.57342637651
0.101776123046875	0.00394775390625	3415.79467837595
0.106201171875	0.00400146484375	3416.01593037539
0.110626220703125	0.00404937744140625	3416.23718237483
0.11505126953125	0.0040899658203125	3416.45843437427
0.119476318359375	0.004122314453125	3416.67968637371
0.1239013671875	0.0041522216796875	3416.90093837315
0.128326416015625	0.00417724609375	3417.1221903726
0.13275146484375	0.0041973876953125	3417.34344237204
0.137176513671875	0.0042144775390625	3417.56469437148
0.1416015625	0.004227294921875	3417.78594637092
0.146026611328125	0.0042364501953125	3418.00719837036
0.15045166015625	0.0042431640625	3418.2284503698
0.154876708984375	0.00424591064453125	3418.44970236924
0.1593017578125	0.00424591064453125	3418.67095436869
0.163726806640625	0.0042462158203125	3418.89220636813
0.16815185546875	0.00424407958984375	3419.11345836757
0.172576904296875	0.00423858642578125	3419.33471036701
0.177001953125	0.00423126220703125	3419.55596236645
0.181427001953125	0.00422454833984375	3419.77721436589
0.18585205078125	0.0042138671875	3419.99846636533
0.190277099609375	0.00420318603515625	3420.21971836478
0.1947021484375	0.0041943359375	3420.44097036422
0.199127197265625	0.0041851806640625	3420.66222236366
0.20355224609375	0.004171142578125	3420.8834743631
0.207977294921875	0.0041571044921875	3421.10472636254
0.21240234375	0.004144287109375	3421.32597836198
0.216827392578125	0.00412933349609375	3421.54723036142
0.22125244140625	0.00411529541015625	3421.76848236087
0.225677490234375	0.00410186767578125	3421.98973436031
0.2301025390625	0.00408905029296875	3422.21098635975
0.234527587890625	0.00407440185546875	3422.43223835919
0.23895263671875	0.0040594482421875	3422.65349035863
0.243377685546875	0.00404632568359375	3422.87474235807
0.247802734375	0.004031982421875	3423.09599435751
0.252227783203125	0.00401763916015625	3423.31724635695
0.25665283203125	0.0040032958984375	3423.5384983564
0.261077880859375	0.00398956298828125	3423.75975035584
0.2655029296875	0.003974609375	3423.98100235528
0.269927978515625	0.0039617919921875	3424.20225435472
0.27435302734375	0.00394744873046875	3424.42350635416
0.278778076171875	0.00393402099609375	3424.6447583536
0.283203125	0.00392120361328125	3424.86601035304
0.287628173828125	0.0039093017578125	3425.08726235249
0.29205322265625	0.00389739990234375	3425.30851435193
0.296478271484375	0.00388458251953125	3425.52976635137
0.3009033203125	0.00387237548828125	3425.75101835081
0.305328369140625	0.003861083984375	3425.97227035025
0.30975341796875	0.00385040283203125	3426.19352234969
0.314178466796875	0.00384307861328125	3426.41477434913
0.318603515625	0.003831787109375	3426.63602634858
0.323028564453125	0.00382110595703125	3426.85727834802
0.32745361328125	0.0038104248046875	3427.07853034746
0.331878662109375	0.0038006591796875	3427.2997823469
0.3363037109375	0.0037908935546875	3427.52103434634
0.340728759765625	0.00378204345703125	3427.74228634578
0.34515380859375	0.00377227783203125	3427.96353834522
0.349578857421875	0.0037640380859375	3428.18479034467
0.35400390625	0.00375244140625	3428.40604234411
0.358428955078125	0.0037445068359375	3428.62729434355
0.36285400390625	0.00373687744140625	3428.84854634299
0.367279052734375	0.00373046875	3429.06979834243
0.3717041015625	0.00372283935546875	3429.29105034187
0.376129150390625	0.00371551513671875	3429.51230234131
0.38055419921875	0.00370849609375	3429.73355434076
0.384979248046875	0.00370147705078125	3429.9548063402
0.389404296875	0.00369476318359375	3430.17605833964
0.393829345703125	0.0036871337890625	3430.39731033908
0.39825439453125	0.00368011474609375	3430.61856233852
0.402679443359375	0.00367340087890625	3430.83981433796
0.4071044921875	0.00366668701171875	3431.0610663374
0.411529541015625	0.003660888671875	3431.28231833685
0.41595458984375	0.0036541748046875	3431.50357033629
0.420379638671875	0.0036474609375	3431.72482233573
0.4248046875	0.003641357421875	3431.94607433517
0.429229736328125	0.00363616943359375	3432.16732633461
0.43365478515625	0.00362945556640625	3432.38857833405
0.438079833984375	0.003624267578125	3432.60983033349
0.4425048828125	0.0036181640625	3432.83108233293
0.446929931640625	0.00361236572265625	3433.05233433238
0.45135498046875	0.0036065673828125	3433.27358633182
0.455780029296875	0.00360198974609375	3433.49483833126
0.460205078125	0.00359649658203125	3433.7160903307
0.464630126953125	0.00359222412109375	3433.93734233014
0.46905517578125	0.0035870361328125	3434.15859432958
0.473480224609375	0.0035833740234375	3434.37984632902
0.4779052734375	0.0035784912109375	3434.60109832847
0.482330322265625	0.00357421875	3434.82235032791
0.48675537109375	0.003570556640625	3435.04360232735
0.491180419921875	0.00356689453125	3435.26485432679
0.49560546875	0.00356231689453125	3435.48610632623
0.500030517578125	0.0035595703125	3435.70735832567
0.50445556640625	0.0035565185546875	3435.92861032511
0.508880615234375	0.003553466796875	3436.14986232456
0.5133056640625	0.0035504150390625	3436.371114324
0.517730712890625	0.00354766845703125	3436.59236632344
0.52215576171875	0.00354461669921875	3436.81361832288
0.526580810546875	0.00354217529296875	3437.03487032232
0.531005859375	0.0035394287109375	3437.25612232176
0.535430908203125	0.00353729248046875	3437.4773743212
0.53985595703125	0.00353546142578125	3437.69862632065
0.544281005859375	0.00353363037109375	3437.91987832009
0.5487060546875	0.00353057861328125	3438.14113031953
0.553131103515625	0.00353057861328125	3438.36238231897
0.55755615234375	0.00352935791015625	3438.58363431841
0.561981201171875	0.00352752685546875	3438.80488631785
0.56640625	0.00352691650390625	3439.02613831729
0.570831298828125	0.00352691650390625	3439.24739031674
0.57525634765625	0.00352691650390625	3439.46864231618
0.579681396484375	0.00352569580078125	3439.68989431562
0.5841064453125	0.00352691650390625	3439.91114631506
0.588531494140625	0.0035260009765625	3440.1323983145
0.59295654296875	0.00352752685546875	3440.35365031394
0.597381591796875	0.0035284423828125	3440.57490231338
0.601806640625	0.00352996826171875	3440.79615431282
0.606231689453125	0.00353302001953125	3441.01740631227
0.61065673828125	0.0035357666015625	3441.23865831171
0.615081787109375	0.00353790283203125	3441.45991031115
0.6195068359375	0.0035406494140625	3441.68116231059
0.623931884765625	0.00354400634765625	3441.90241431003
0.62835693359375	0.00355224609375	3442.12366630947
0.632781982421875	0.00355621337890625	3442.34491830891
0.63720703125	0.00355987548828125	3442.56617030836
0.641632080078125	0.003564453125	3442.7874223078
0.64605712890625	0.00356964111328125	3443.00867430724
0.650482177734375	0.0035748291015625	3443.22992630668
0.6549072265625	0.00358062744140625	3443.45117830612
0.659332275390625	0.00358612060546875	3443.67243030556
0.66375732421875	0.0035931396484375	3443.893682305
0.668182373046875	0.0036004638671875	3444.11493430445
0.672607421875	0.0036083984375	3444.33618630389
0.677032470703125	0.0036163330078125	3444.55743830333
0.68145751953125	0.0036248779296875	3444.77869030277
0.685882568359375	0.00363372802734375	3444.99994230221
0.6903076171875	0.00364349365234375	3445.22119430165
0.694732666015625	0.00365234375	3445.44244630109
0.69915771484375	0.0036627197265625	3445.66369830054
0.703582763671875	0.00367279052734375	3445.88495029998
0.7080078125	0.00368408203125	3446.10620229942
0.712432861328125	0.00369659423828125	3446.32745429886
0.71685791015625	0.00370880126953125	3446.5487062983
0.721282958984375	0.00372161865234375	3446.76995829774
0.7257080078125	0.0037347412109375	3446.99121029718
0.730133056640625	0.00374969482421875	3447.21246229663
0.73455810546875	0.0037640380859375	3447.43371429607
0.738983154296875	0.00377899169921875	3447.65496629551
0.743408203125	0.00379150390625	3447.87621829495
0.747833251953125	0.00380889892578125	3448.09747029439
0.75225830078125	0.00382659912109375	3448.31872229383
0.756683349609375	0.00384368896484375	3448.53997429327
0.7611083984375	0.0038623046875	3448.76122629272
0.765533447265625	0.003880615234375	3448.98247829216
0.76995849609375	0.00390045166015625	3449.2037302916
0.774383544921875	0.0039208984375	3449.42498229104
0.77880859375	0.00394073486328125	3449.64623429048
0.783233642578125	0.00396209716796875	3449.86748628992
0.78765869140625	0.003984375	3450.08873828936
0.792083740234375	0.00400909423828125	3450.3099902888
0.7965087890625	0.004034423828125	3450.53124228825
0.800933837890625	0.00405914306640625	3450.75249428769
0.80535888671875	0.004085693359375	3450.97374628713
0.809783935546875	0.0041131591796875	3451.19499828657
0.814208984375	0.0041412353515625	3451.41625028601
0.818634033203125	0.0041717529296875	3451.63750228545
0.82305908203125	0.004202880859375	3451.85875428489
0.827484130859375	0.0042340087890625	3452.08000628434
0.8319091796875	0.00426666259765625	3452.30125828378
0.836334228515625	0.00430267333984375	3452.52251028322
0.84075927734375	0.00433807373046875	3452.74376228266
0.845184326171875	0.00437530517578125	3452.9650142821
0.849609375	0.0044134521484375	3453.18626628154
0.854034423828125	0.00445343017578125	3453.40751828098
0.85845947265625	0.00449554443359375	3453.62877028043
0.862884521484375	0.00453643798828125	3453.85002227987
0.8673095703125	0.00458160400390625	3454.07127427931
0.871734619140625	0.00462860107421875	3454.29252627875
0.87615966796875	0.00467681884765625	3454.51377827819
0.880584716796875	0.00472747802734375	3454.73503027763
0.885009765625	0.0047772216796875	3454.95628227707
0.889434814453125	0.00483062744140625	3455.17753427652
0.89385986328125	0.00488433837890625	3455.39878627596
0.898284912109375	0.00494140625	3455.6200382754
0.9027099609375	0.004998779296875	3455.84129027484
0.907135009765625	0.00505828857421875	3456.06254227428
0.91156005859375	0.005120849609375	3456.28379427372
0.915985107421875	0.00518310546875	3456.50504627316
0.92041015625	0.00524810791015625	3456.72629827261
0.924835205078125	0.00531402587890625	3456.94755027205
0.92926025390625	0.00538299560546875	3457.16880227149
0.933685302734375	0.00545379638671875	3457.39005427093
0.9381103515625	0.00552947998046875	3457.61130627037
0.942535400390625	0.005604248046875	3457.83255826981
0.94696044921875	0.00568023681640625	3458.05381026925
0.951385498046875	0.0057586669921875	3458.27506226869
0.955810546875	0.00584075927734375	3458.49631426814
0.960235595703125	0.00592529296875	3458.71756626758
0.96466064453125	0.006011962890625	3458.93881826702
0.969085693359375	0.00609130859375	3459.16007026646
0.9735107421875	0.006182861328125	3459.3813222659
0.977935791015625	0.0062713623046875	3459.60257426534
0.98236083984375	0.0063690185546875	3459.82382626478
0.986785888671875	0.006475830078125	3460.04507826423
0.9912109375	0.0065826416015625	3460.26633026367
0.995635986328125	0.006695556640625	3460.48758226311
1.00006103515625	0.006817626953125	3460.70883426255
0.995635986328125	0.0058868408203125	3460.93008626199
0.9912109375	0.005096435546875	3461.15133826143
0.986785888671875	0.00440277099609375	3461.37259026087
0.98236083984375	0.0037860107421875	3461.59384226032
0.977935791015625	0.00323089599609375	3461.81509425976
0.9735107421875	0.00272796630859375	3462.0363462592
0.969085693359375	0.00226654052734375	3462.25759825864
0.96466064453125	0.00184234619140625	3462.47885025808
0.960235595703125	0.001451416015625	3462.70010225752
0.955810546875	0.00108978271484375	3462.92135425696
0.951385498046875	0.000755615234375	3463.14260625641
0.94696044921875	0.000444854736328125	3463.36385825585
0.942535400390625	0.000157135009765625	3463.58511025529
0.9381103515625	-0.0001097412109375	3463.80636225473
0.933685302734375	-0.0003612060546875	3464.02761425417
0.92926025390625	-0.00059051513671875	3464.24886625361
0.924835205078125	-0.00080230712890625	3464.47011825305
0.92041015625	-0.00100006103515625	3464.6913702525
0.915985107421875	-0.001181640625	3464.91262225194
0.91156005859375	-0.00135040283203125	3465.13387425138
0.907135009765625	-0.00150634765625	3465.35512625082
0.9027099609375	-0.00165130615234375	3465.57637825026
0.898284912109375	-0.00178314208984375	3465.7976302497
0.89385986328125	-0.00190643310546875	3466.01888224914
0.889434814453125	-0.00201934814453125	3466.24013424859
0.885009765625	-0.002122802734375	3466.46138624803
0.880584716796875	-0.00221893310546875	3466.68263824747
0.87615966796875	-0.0023065185546875	3466.90389024691
0.871734619140625	-0.00238739013671875	3467.12514224635
0.8673095703125	-0.0024627685546875	3467.34639424579
0.862884521484375	-0.00253143310546875	3467.56764624523
0.85845947265625	-0.00259368896484375	3467.78889824467
0.854034423828125	-0.00265167236328125	3468.01015024412
0.849609375	-0.00270416259765625	3468.23140224356
0.845184326171875	-0.0027532958984375	3468.452654243
0.84075927734375	-0.0027984619140625	3468.67390624244
0.836334228515625	-0.00283935546875	3468.89515824188
0.8319091796875	-0.00287750244140625	3469.11641024132
0.827484130859375	-0.0029132080078125	3469.33766224076
0.82305908203125	-0.00294525146484375	3469.55891424021
0.818634033203125	-0.0029736328125	3469.78016623965
0.814208984375	-0.00300079345703125	3470.00141823909
0.809783935546875	-0.003026123046875	3470.22267023853
0.80535888671875	-0.00304931640625	3470.44392223797
0.800933837890625	-0.0030712890625	3470.66517423741
0.7965087890625	-0.00309112548828125	3470.88642623685
0.792083740234375	-0.00310943603515625	3471.1076782363
0.78765869140625	-0.00312530517578125	3471.32893023574
0.783233642578125	-0.0031414794921875	3471.55018223518
0.77880859375	-0.0031561279296875	3471.77143423462
0.774383544921875	-0.00317047119140625	3471.99268623406
0.76995849609375	-0.00318359375	3472.2139382335
0.765533447265625	-0.00319549560546875	3472.43519023294
0.7611083984375	-0.00320709228515625	3472.65644223239
0.756683349609375	-0.00321746826171875	3472.87769423183
0.75225830078125	-0.00322845458984375	3473.09894623127
0.747833251953125	-0.0032379150390625	3473.32019823071
0.743408203125	-0.0032470703125	3473.54145023015
0.738983154296875	-0.003253173828125	3473.76270222959
0.73455810546875	-0.00326171875	3473.98395422903
0.730133056640625	-0.00326995849609375	3474.20520622848
0.7257080078125	-0.0032769775390625	3474.42645822792
0.721282958984375	-0.00328369140625	3474.64771022736
0.71685791015625	-0.00329132080078125	3474.8689622268
0.712432861328125	-0.00329742431640625	3475.09021422624
0.7080078125	-0.00330413818359375	3475.31146622568
0.703582763671875	-0.0033111572265625	3475.53271822512
0.69915771484375	-0.0033160400390625	3475.75397022456
0.694732666015625	-0.00332183837890625	3475.97522222401
0.6903076171875	-0.00332733154296875	3476.19647422345
0.685882568359375	-0.0033319091796875	3476.41772622289
0.68145751953125	-0.00333465576171875	3476.63897822233
0.677032470703125	-0.00334136962890625	3476.86023022177
0.672607421875	-0.00334716796875	3477.08148222121
0.668182373046875	-0.00335235595703125	3477.30273422065
0.66375732421875	-0.00335723876953125	3477.5239862201
0.659332275390625	-0.003363037109375	3477.74523821954
0.6549072265625	-0.00336761474609375	3477.96649021898
0.650482177734375	-0.00337188720703125	3478.18774221842
0.64605712890625	-0.00337646484375	3478.40899421786
0.641632080078125	-0.00338226318359375	3478.6302462173
0.63720703125	-0.003387451171875	3478.85149821674
0.632781982421875	-0.00339141845703125	3479.07275021619
0.62835693359375	-0.00339569091796875	3479.29400221563
0.623931884765625	-0.00340362548828125	3479.51525421507
0.6195068359375	-0.0034063720703125	3479.73650621451
0.615081787109375	-0.003409423828125	3479.95775821395
0.61065673828125	-0.00341400146484375	3480.17901021339
0.606231689453125	-0.0034185791015625	3480.40026221283
0.601806640625	-0.00342376708984375	3480.62151421228
0.597381591796875	-0.00342926025390625	3480.84276621172
0.59295654296875	-0.00343475341796875	3481.06401821116
0.588531494140625	-0.00344085693359375	3481.2852702106
0.5841064453125	-0.003443603515625	3481.50652221004
0.579681396484375	-0.0034503173828125	3481.72777420948
0.57525634765625	-0.00345672607421875	3481.94902620892
0.570831298828125	-0.0034637451171875	3482.17027820837
0.56640625	-0.00347076416015625	3482.39153020781
0.561981201171875	-0.003477783203125	3482.61278220725
0.55755615234375	-0.00348480224609375	3482.83403420669
0.553131103515625	-0.0034912109375	3483.05528620613
0.5487060546875	-0.00349853515625	3483.27653820557
0.544281005859375	-0.0035040283203125	3483.49779020501
0.53985595703125	-0.003511962890625	3483.71904220446
0.535430908203125	-0.0035198974609375	3483.9402942039
0.531005859375	-0.0035272216796875	3484.16154620334
0.526580810546875	-0.00353515625	3484.38279820278
0.52215576171875	-0.00354400634765625	3484.60405020222
0.517730712890625	-0.00355194091796875	3484.82530220166
0.5133056640625	-0.0035601806640625	3485.0465542011
0.508880615234375	-0.0035687255859375	3485.26780620054
0.50445556640625	-0.00357696533203125	3485.48905819999
0.500030517578125	-0.00358489990234375	3485.71031019943
0.49560546875	-0.00359375	3485.93156219887
0.491180419921875	-0.00360260009765625	3486.15281419831
0.48675537109375	-0.00361114501953125	3486.37406619775
0.482330322265625	-0.00362060546875	3486.59531819719
0.4779052734375	-0.00363006591796875	3486.81657019663
0.473480224609375	-0.0036395263671875	3487.03782219608
0.46905517578125	-0.003648681640625	3487.25907419552
0.464630126953125	-0.0036572265625	3487.48032619496
0.460205078125	-0.00366668701171875	3487.7015781944
0.455780029296875	-0.0036767578125	3487.92283019384
0.45135498046875	-0.003685302734375	3488.14408219328
0.446929931640625	-0.0036962890625	3488.36533419272
0.4425048828125	-0.0037060546875	3488.58658619217
0.438079833984375	-0.0037152099609375	3488.80783819161
0.43365478515625	-0.00372528076171875	3489.02909019105
0.429229736328125	-0.0037347412109375	3489.25034219049
0.4248046875	-0.00374603271484375	3489.47159418993
0.420379638671875	-0.003756103515625	3489.69284618937
0.41595458984375	-0.00376678466796875	3489.91409818881
0.411529541015625	-0.00377685546875	3490.13535018826
0.4071044921875	-0.00378692626953125	3490.3566021877
0.402679443359375	-0.0037969970703125	3490.57785418714
0.39825439453125	-0.00380767822265625	3490.79910618658
0.393829345703125	-0.003818359375	3491.02035818602
0.389404296875	-0.0038275146484375	3491.24161018546
0.384979248046875	-0.003839111328125	3491.4628621849
0.38055419921875	-0.00385009765625	3491.68411418435
0.376129150390625	-0.00386077880859375	3491.90536618379
0.3717041015625	-0.00387237548828125	3492.12661818323
0.367279052734375	-0.0038824462890625	3492.34787018267
0.36285400390625	-0.0038934326171875	3492.56912218211
0.358428955078125	-0.00390411376953125	3492.79037418155
0.35400390625	-0.0039154052734375	3493.01162618099
0.349578857421875	-0.00392333984375	3493.23287818043
0.34515380859375	-0.003935546875	3493.45413017988
0.340728759765625	-0.00394683837890625	3493.67538217932
0.3363037109375	-0.0039581298828125	3493.89663417876
0.331878662109375	-0.003970947265625	3494.1178861782
0.32745361328125	-0.0039825439453125	3494.33913817764
0.323028564453125	-0.00399383544921875	3494.56039017708
0.318603515625	-0.00400604248046875	3494.78164217652
0.314178466796875	-0.0040179443359375	3495.00289417597
0.30975341796875	-0.0040338134765625	3495.22414617541
0.305328369140625	-0.00404541015625	3495.44539817485
0.3009033203125	-0.00405670166015625	3495.66665017429
0.296478271484375	-0.00406982421875	3495.88790217373
0.29205322265625	-0.00408203125	3496.10915417317
0.287628173828125	-0.00409515380859375	3496.33040617261
0.283203125	-0.00410888671875	3496.55165817206
0.278778076171875	-0.00412200927734375	3496.7729101715
0.27435302734375	-0.00413543701171875	3496.99416217094
0.269927978515625	-0.00414764404296875	3497.21541417038
0.2655029296875	-0.00416168212890625	3497.43666616982
0.261077880859375	-0.00417449951171875	3497.65791816926
0.25665283203125	-0.0041888427734375	3497.8791701687
0.252227783203125	-0.00420440673828125	3498.10042216815
0.247802734375	-0.00421966552734375	3498.32167416759
0.243377685546875	-0.00423431396484375	3498.54292616703
0.23895263671875	-0.00424835205078125	3498.76417816647
0.234527587890625	-0.004263916015625	3498.98543016591
0.2301025390625	-0.00427734375	3499.20668216535
0.225677490234375	-0.00429229736328125	3499.42793416479
0.22125244140625	-0.0043084716796875	3499.64918616424
0.216827392578125	-0.00432525634765625	3499.87043816368
0.21240234375	-0.00434051513671875	3500.09169016312
0.207977294921875	-0.00435791015625	3500.31294216256
0.20355224609375	-0.0043743896484375	3500.534194162
0.199127197265625	-0.0043914794921875	3500.75544616144
0.1947021484375	-0.004407958984375	3500.97669816088
0.190277099609375	-0.00442596435546875	3501.19795016033
0.18585205078125	-0.0044439697265625	3501.41920215977
0.181427001953125	-0.0044622802734375	3501.64045415921
0.177001953125	-0.00448089599609375	3501.86170615865
0.172576904296875	-0.0044989013671875	3502.08295815809
0.16815185546875	-0.00451812744140625	3502.30421015753
0.163726806640625	-0.00453765869140625	3502.52546215697
0.1593017578125	-0.004556884765625	3502.74671415641
0.154876708984375	-0.0045751953125	3502.96796615586
0.15045166015625	-0.004595947265625	3503.1892181553
0.146026611328125	-0.0046173095703125	3503.41047015474
0.1416015625	-0.004638671875	3503.63172215418
0.137176513671875	-0.0046600341796875	3503.85297415362
0.13275146484375	-0.0046826171875	3504.07422615306
0.128326416015625	-0.00470550537109375	3504.2954781525
0.1239013671875	-0.0047271728515625	3504.51673015195
0.119476318359375	-0.00475128173828125	3504.73798215139
0.11505126953125	-0.004771728515625	3504.95923415083
0.110626220703125	-0.004796142578125	3505.18048615027
0.106201171875	-0.0048211669921875	3505.40173814971
0.101776123046875	-0.00484649658203125	3505.62299014915
0.09735107421875	-0.00487152099609375	3505.84424214859
0.092926025390625	-0.0048974609375	3506.06549414804
0.0885009765625	-0.0049237060546875	3506.28674614748
0.084075927734375	-0.004951171875	3506.50799814692
0.07965087890625	-0.00497894287109375	3506.72925014636
0.075225830078125	-0.0050054931640625	3506.9505021458
0.07080078125	-0.0050341796875	3507.17175414524
0.066375732421875	-0.00506317138671875	3507.39300614468
0.06195068359375	-0.00509124755859375	3507.61425814413
0.057525634765625	-0.0051214599609375	3507.83551014357
0.0531005859375	-0.00515167236328125	3508.05676214301
0.048675537109375	-0.00518280029296875	3508.27801414245
0.04425048828125	-0.00521331787109375	3508.49926614189
0.039825439453125	-0.005244140625	3508.72051814133
0.035400390625	-0.00527587890625	3508.94177014077
0.030975341796875	-0.00531005859375	3509.16302214022
0.02655029296875	-0.00534332275390625	3509.38427413966
0.022125244140625	-0.0053778076171875	3509.6055261391
0.0177001953125	-0.00541229248046875	3509.82677813854
0.013275146484375	-0.00544647216796875	3510.04803013798
0.00885009765625	-0.005482177734375	3510.26928213742
0.004425048828125	-0.005518798828125	3510.49053413686
0	-0.00555572509765625	3510.7117861363
0.004425048828125	-0.00452056884765625	3510.93303813575
0.00885009765625	-0.003621826171875	3511.15429013519
0.013275146484375	-0.00282928466796875	3511.37554213463
0.0177001953125	-0.0021234130859375	3511.59679413407
0.022125244140625	-0.00149261474609375	3511.81804613351
0.02655029296875	-0.000926513671875	3512.03929813295
0.030975341796875	-0.00041680908203125	3512.26055013239
0.035400390625	4.388427734375E-05	3512.48180213184
0.039825439453125	0.000459503173828125	3512.70305413128
0.04425048828125	0.00083648681640625	3512.92430613072
0.048675537109375	0.00117950439453125	3513.14555813016
0.0531005859375	0.00149017333984375	3513.3668101296
0.057525634765625	0.00176910400390625	3513.58806212904
0.06195068359375	0.002020263671875	3513.80931412848
0.066375732421875	0.0022479248046875	3514.03056612793
0.07080078125	0.002452392578125	3514.25181812737
0.075225830078125	0.00263641357421875	3514.47307012681
0.07965087890625	0.0027960205078125	3514.69432212625
0.084075927734375	0.00294952392578125	3514.91557412569
0.0885009765625	0.00308868408203125	3515.13682612513
0.092926025390625	0.00321533203125	3515.35807812457
0.09735107421875	0.003328857421875	3515.57933012402
0.101776123046875	0.0034307861328125	3515.80058212346
0.106201171875	0.003521728515625	3516.0218341229
0.110626220703125	0.00360137939453125	3516.24308612234
0.11505126953125	0.00367279052734375	3516.46433812178
0.119476318359375	0.00373382568359375	3516.68559012122
0.1239013671875	0.00378997802734375	3516.90684212066
0.128326416015625	0.00384002685546875	3517.12809412011
0.13275146484375	0.0038818359375	3517.34934611955
0.137176513671875	0.0039190673828125	3517.57059811899
0.1416015625	0.0039508056640625	3517.79185011843
0.146026611328125	0.00397674560546875	3518.01310211787
0.15045166015625	0.004000244140625	3518.23435411731
0.154876708984375	0.0040185546875	3518.45560611675
0.1593017578125	0.0040325927734375	3518.6768581162
0.163726806640625	0.00404449462890625	3518.89811011564
0.16815185546875	0.0040533447265625	3519.11936211508
0.172576904296875	0.0040594482421875	3519.34061411452
0.177001953125	0.00406402587890625	3519.56186611396
0.181427001953125	0.0040655517578125	3519.7831181134
0.18585205078125	0.00406524658203125	3520.00437011284
0.190277099609375	0.004063720703125	3520.22562211228
0.1947021484375	0.00406036376953125	3520.44687411173
0.199127197265625	0.0040557861328125	3520.66812611117
0.20355224609375	0.00404937744140625	3520.88937811061
0.207977294921875	0.0040411376953125	3521.11063011005
0.21240234375	0.00403289794921875	3521.33188210949
0.216827392578125	0.00402496337890625	3521.55313410893
0.22125244140625	0.004014892578125	3521.77438610837
0.225677490234375	0.00400787353515625	3521.99563810782
0.2301025390625	0.003997802734375	3522.21689010726
0.234527587890625	0.003984375	3522.4381421067
0.23895263671875	0.00397308349609375	3522.65939410614
0.243377685546875	0.0039630126953125	3522.88064610558
0.247802734375	0.00394989013671875	3523.10189810502
0.252227783203125	0.00393646240234375	3523.32315010446
0.25665283203125	0.00392578125	3523.54440210391
0.261077880859375	0.00391510009765625	3523.76565410335
0.2655029296875	0.003905029296875	3523.98690610279
0.269927978515625	0.003892822265625	3524.20815810223
0.27435302734375	0.0038800048828125	3524.42941010167
0.278778076171875	0.00386871337890625	3524.65066210111
0.283203125	0.00385650634765625	3524.87191410055
0.287628173828125	0.0038458251953125	3525.0931661
0.29205322265625	0.0038336181640625	3525.31441809944
0.296478271484375	0.00382232666015625	3525.53567009888
0.3009033203125	0.00381134033203125	3525.75692209832
0.305328369140625	0.0038006591796875	3525.97817409776
0.30975341796875	0.003790283203125	3526.1994260972
0.314178466796875	0.00378326416015625	3526.42067809664
0.318603515625	0.00377227783203125	3526.64193009609
0.323028564453125	0.00376068115234375	3526.86318209553
0.32745361328125	0.00375091552734375	3527.08443409497
0.331878662109375	0.00374053955078125	3527.30568609441
0.3363037109375	0.00373138427734375	3527.52693809385
0.340728759765625	0.003721923828125	3527.74819009329
0.34515380859375	0.0037127685546875	3527.96944209273
0.349578857421875	0.00370391845703125	3528.19069409217
0.35400390625	0.00369232177734375	3528.41194609162
0.358428955078125	0.00368408203125	3528.63319809106
0.36285400390625	0.0036761474609375	3528.8544500905
0.367279052734375	0.00366851806640625	3529.07570208994
0.3717041015625	0.00366058349609375	3529.29695408938
0.376129150390625	0.00365264892578125	3529.51820608882
0.38055419921875	0.0036456298828125	3529.73945808826
0.384979248046875	0.00363922119140625	3529.96071008771
0.389404296875	0.00363189697265625	3530.18196208715
0.393829345703125	0.0036236572265625	3530.40321408659
0.39825439453125	0.00361663818359375	3530.62446608603
0.402679443359375	0.003609619140625	3530.84571808547
0.4071044921875	0.00360198974609375	3531.06697008491
0.411529541015625	0.00359527587890625	3531.28822208435
0.41595458984375	0.0035882568359375	3531.5094740838
0.420379638671875	0.0035821533203125	3531.73072608324
0.4248046875	0.00357574462890625	3531.95197808268
0.429229736328125	0.00356903076171875	3532.17323008212
0.43365478515625	0.00356231689453125	3532.39448208156
0.438079833984375	0.003555908203125	3532.615734081
0.4425048828125	0.00354949951171875	3532.83698608044
0.446929931640625	0.0035430908203125	3533.05823807989
0.45135498046875	0.00353759765625	3533.27949007933
0.455780029296875	0.003531494140625	3533.50074207877
0.460205078125	0.0035247802734375	3533.72199407821
0.464630126953125	0.0035198974609375	3533.94324607765
0.46905517578125	0.00351318359375	3534.16449807709
0.473480224609375	0.00350860595703125	3534.38575007653
0.4779052734375	0.0035040283203125	3534.60700207598
0.482330322265625	0.00349884033203125	3534.82825407542
0.48675537109375	0.0034942626953125	3535.04950607486
0.491180419921875	0.00349029541015625	3535.2707580743
0.49560546875	0.00348480224609375	3535.49201007374
0.500030517578125	0.00348114013671875	3535.71326207318
0.50445556640625	0.0034771728515625	3535.93451407262
0.508880615234375	0.00347198486328125	3536.15576607207
0.5133056640625	0.00346832275390625	3536.37701807151
0.517730712890625	0.0034649658203125	3536.59827007095
0.52215576171875	0.003460693359375	3536.81952207039
0.526580810546875	0.00345794677734375	3537.04077406983
0.531005859375	0.00345550537109375	3537.26202606927
0.535430908203125	0.0034527587890625	3537.48327806871
0.53985595703125	0.00345001220703125	3537.70453006815
0.544281005859375	0.00344757080078125	3537.9257820676
0.5487060546875	0.0034442138671875	3538.14703406704
0.553131103515625	0.00344329833984375	3538.36828606648
0.55755615234375	0.003441162109375	3538.58953806592
0.561981201171875	0.00343963623046875	3538.81079006536
0.56640625	0.003438720703125	3539.0320420648
0.570831298828125	0.00343780517578125	3539.25329406424
0.57525634765625	0.0034381103515625	3539.47454606369
0.579681396484375	0.00343719482421875	3539.69579806313
0.5841064453125	0.00343658447265625	3539.91705006257
0.588531494140625	0.00343414306640625	3540.13830206201
0.59295654296875	0.00343505859375	3540.35955406145
0.597381591796875	0.00343658447265625	3540.58080606089
0.601806640625	0.0034381103515625	3540.80205806033
0.606231689453125	0.0034393310546875	3541.02331005978
0.61065673828125	0.003441162109375	3541.24456205922
0.615081787109375	0.0034423828125	3541.46581405866
0.6195068359375	0.00344482421875	3541.6870660581
0.623931884765625	0.0034478759765625	3541.90831805754
0.62835693359375	0.00345550537109375	3542.12957005698
0.632781982421875	0.00345855712890625	3542.35082205642
0.63720703125	0.00346160888671875	3542.57207405587
0.641632080078125	0.00346649169921875	3542.79332605531
0.64605712890625	0.00346954345703125	3543.01457805475
0.650482177734375	0.00347412109375	3543.23583005419
0.6549072265625	0.00347869873046875	3543.45708205363
0.659332275390625	0.00348358154296875	3543.67833405307
0.66375732421875	0.00348907470703125	3543.89958605251
0.668182373046875	0.00349517822265625	3544.12083805196
0.672607421875	0.003502197265625	3544.3420900514
0.677032470703125	0.00350830078125	3544.56334205084
0.68145751953125	0.00351593017578125	3544.78459405028
0.685882568359375	0.00352325439453125	3545.00584604972
0.6903076171875	0.00353179931640625	3545.22709804916
0.694732666015625	0.0035394287109375	3545.4483500486
0.69915771484375	0.00354827880859375	3545.66960204804
0.703582763671875	0.00355712890625	3545.89085404749
0.7080078125	0.00356719970703125	3546.11210604693
0.712432861328125	0.00357818603515625	3546.33335804637
0.71685791015625	0.0035888671875	3546.55461004581
0.721282958984375	0.0036004638671875	3546.77586204525
0.7257080078125	0.00361328125	3546.99711404469
0.730133056640625	0.003626708984375	3547.21836604413
0.73455810546875	0.003638916015625	3547.43961804358
0.738983154296875	0.0036529541015625	3547.66087004302
0.743408203125	0.00366363525390625	3547.88212204246
0.747833251953125	0.00367889404296875	3548.1033740419
0.75225830078125	0.00369354248046875	3548.32462604134
0.756683349609375	0.003709716796875	3548.54587804078
0.7611083984375	0.00372711181640625	3548.76713004022
0.765533447265625	0.0037445068359375	3548.98838203967
0.76995849609375	0.00376251220703125	3549.20963403911
0.774383544921875	0.00378082275390625	3549.43088603855
0.77880859375	0.00380035400390625	3549.65213803799
0.783233642578125	0.00382049560546875	3549.87339003743
0.78765869140625	0.003841552734375	3550.09464203687
0.792083740234375	0.003863525390625	3550.31589403631
0.7965087890625	0.00388641357421875	3550.53714603576
0.800933837890625	0.00390960693359375	3550.7583980352
0.80535888671875	0.00393402099609375	3550.97965003464
0.809783935546875	0.00395904541015625	3551.20090203408
0.814208984375	0.003985595703125	3551.42215403352
0.818634033203125	0.00401458740234375	3551.64340603296
0.82305908203125	0.0040423583984375	3551.8646580324
0.827484130859375	0.00407257080078125	3552.08591003185
0.8319091796875	0.00410369873046875	3552.30716203129
0.836334228515625	0.00413726806640625	3552.52841403073
0.84075927734375	0.0041705322265625	3552.74966603017
0.845184326171875	0.00420623779296875	3552.97091802961
0.849609375	0.004241943359375	3553.19217002905
0.854034423828125	0.00428070068359375	3553.41342202849
0.85845947265625	0.0043206787109375	3553.63467402794
0.862884521484375	0.0043603515625	3553.85592602738
0.8673095703125	0.004403076171875	3554.07717802682
0.871734619140625	0.00444732666015625	3554.29843002626
0.87615966796875	0.00449310302734375	3554.5196820257
0.880584716796875	0.0045404052734375	3554.74093402514
0.885009765625	0.00458984375	3554.96218602458
0.889434814453125	0.00464019775390625	3555.18343802402
0.89385986328125	0.0046917724609375	3555.40469002347
0.898284912109375	0.0047454833984375	3555.62594202291
0.9027099609375	0.0048028564453125	3555.84719402235
0.907135009765625	0.00485992431640625	3556.06844602179
0.91156005859375	0.004920654296875	3556.28969802123
0.915985107421875	0.0049810791015625	3556.51095002067
0.92041015625	0.00504486083984375	3556.73220202011
0.924835205078125	0.00510894775390625	3556.95345401956
0.92926025390625	0.00517608642578125	3557.174706019
0.933685302734375	0.005244140625	3557.39595801844
0.9381103515625	0.0053192138671875	3557.61721001788
0.942535400390625	0.00539154052734375	3557.83846201732
0.94696044921875	0.00546539306640625	3558.05971401676
0.951385498046875	0.00554351806640625	3558.2809660162
0.955810546875	0.005623779296875	3558.50221801565
0.960235595703125	0.00570892333984375	3558.72347001509
0.96466064453125	0.00579559326171875	3558.94472201453
0.969085693359375	0.00588470458984375	3559.16597401397
0.9735107421875	0.00597930908203125	3559.38722601341
0.977935791015625	0.0060736083984375	3559.60847801285
0.98236083984375	0.0061676025390625	3559.82973001229
0.986785888671875	0.006268310546875	3560.05098201174
0.9912109375	0.0063751220703125	3560.27223401118
0.995635986328125	0.0064910888671875	3560.49348601062
1.00006103515625	0.0066131591796875	3560.71473801006
0.995635986328125	0.0056884765625	3560.9359900095
0.9912109375	0.004906005859375	3561.15724200894
0.986785888671875	0.00422088623046875	3561.37849400838
0.98236083984375	0.003612060546875	3561.59974600783
0.977935791015625	0.00306427001953125	3561.82099800727
0.9735107421875	0.0025701904296875	3562.04225000671
0.969085693359375	0.00211761474609375	3562.26350200615
0.96466064453125	0.00170135498046875	3562.48475400559
0.960235595703125	0.00131744384765625	3562.70600600503
0.955810546875	0.00096282958984375	3562.92725800447
0.951385498046875	0.0006353759765625	3563.14851000391
0.94696044921875	0.0003319091796875	3563.36976200336
0.942535400390625	5.0384521484375E-05	3563.5910140028
0.9381103515625	-0.000209930419921875	3563.81226600224
0.933685302734375	-0.000454345703125	3564.03351800168
0.92926025390625	-0.00067840576171875	3564.25477000112
0.924835205078125	-0.000885009765625	3564.47602200056
0.92041015625	-0.00107574462890625	3564.697274
0.915985107421875	-0.00125274658203125	3564.91852599945
0.91156005859375	-0.0014154052734375	3565.13977799889
0.907135009765625	-0.001566162109375	3565.36102999833
0.9027099609375	-0.0017059326171875	3565.58228199777
0.898284912109375	-0.00183349609375	3565.80353399721
0.89385986328125	-0.00195159912109375	3566.02478599665
0.889434814453125	-0.00206024169921875	3566.24603799609
0.885009765625	-0.00216094970703125	3566.46728999554
0.880584716796875	-0.00225250244140625	3566.68854199498
0.87615966796875	-0.00233642578125	3566.90979399442
0.871734619140625	-0.00241363525390625	3567.13104599386
0.8673095703125	-0.0024859619140625	3567.3522979933
0.862884521484375	-0.00255096435546875	3567.57354999274
0.85845947265625	-0.00261016845703125	3567.79480199218
0.854034423828125	-0.00266510009765625	3568.01605399163
0.849609375	-0.002716064453125	3568.23730599107
0.845184326171875	-0.0027618408203125	3568.45855799051
0.84075927734375	-0.00280487060546875	3568.67980998995
0.836334228515625	-0.00284393310546875	3568.90106198939
0.8319091796875	-0.00287994384765625	3569.12231398883
0.827484130859375	-0.00291229248046875	3569.34356598827
0.82305908203125	-0.00294342041015625	3569.56481798772
0.818634033203125	-0.00297088623046875	3569.78606998716
0.814208984375	-0.0029962158203125	3570.0073219866
0.809783935546875	-0.00301971435546875	3570.22857398604
0.80535888671875	-0.003040771484375	3570.44982598548
0.800933837890625	-0.00306121826171875	3570.67107798492
0.7965087890625	-0.003079833984375	3570.89232998436
0.792083740234375	-0.00309722900390625	3571.11358198381
0.78765869140625	-0.00311370849609375	3571.33483398325
0.783233642578125	-0.0031292724609375	3571.55608598269
0.77880859375	-0.00314239501953125	3571.77733798213
0.774383544921875	-0.0031561279296875	3571.99858998157
0.76995849609375	-0.003167724609375	3572.21984198101
0.765533447265625	-0.00317901611328125	3572.44109398045
0.7611083984375	-0.00319061279296875	3572.66234597989
0.756683349609375	-0.00320068359375	3572.88359797934
0.75225830078125	-0.00321075439453125	3573.10484997878
0.747833251953125	-0.0032196044921875	3573.32610197822
0.743408203125	-0.003228759765625	3573.54735397766
0.738983154296875	-0.00323455810546875	3573.7686059771
0.73455810546875	-0.0032421875	3573.98985797654
0.730133056640625	-0.0032501220703125	3574.21110997598
0.7257080078125	-0.0032574462890625	3574.43236197543
0.721282958984375	-0.00326324462890625	3574.65361397487
0.71685791015625	-0.0032708740234375	3574.87486597431
0.712432861328125	-0.00327789306640625	3575.09611797375
0.7080078125	-0.00328460693359375	3575.31736997319
0.703582763671875	-0.00329010009765625	3575.53862197263
0.69915771484375	-0.003294677734375	3575.75987397207
0.694732666015625	-0.00329986572265625	3575.98112597152
0.6903076171875	-0.0033038330078125	3576.20237797096
0.685882568359375	-0.00331085205078125	3576.4236299704
0.68145751953125	-0.003316650390625	3576.64488196984
0.677032470703125	-0.00332122802734375	3576.86613396928
0.672607421875	-0.00332763671875	3577.08738596872
0.668182373046875	-0.00333251953125	3577.30863796816
0.66375732421875	-0.00333709716796875	3577.52988996761
0.659332275390625	-0.0033428955078125	3577.75114196705
0.6549072265625	-0.00334869384765625	3577.97239396649
0.650482177734375	-0.00335235595703125	3578.19364596593
0.64605712890625	-0.0033575439453125	3578.41489796537
0.641632080078125	-0.00336181640625	3578.63614996481
0.63720703125	-0.003365478515625	3578.85740196425
0.632781982421875	-0.00336883544921875	3579.0786539637
0.62835693359375	-0.003372802734375	3579.29990596314
0.623931884765625	-0.0033831787109375	3579.52115796258
0.6195068359375	-0.00338623046875	3579.74240996202
0.615081787109375	-0.00339111328125	3579.96366196146
0.61065673828125	-0.00339630126953125	3580.1849139609
0.606231689453125	-0.0034014892578125	3580.40616596034
0.601806640625	-0.0034075927734375	3580.62741795978
0.597381591796875	-0.0034124755859375	3580.84866995923
0.59295654296875	-0.0034185791015625	3581.06992195867
0.588531494140625	-0.00342437744140625	3581.29117395811
0.5841064453125	-0.00342803955078125	3581.51242595755
0.579681396484375	-0.00343475341796875	3581.73367795699
0.57525634765625	-0.00344085693359375	3581.95492995643
0.570831298828125	-0.00344818115234375	3582.17618195587
0.56640625	-0.00345458984375	3582.39743395532
0.561981201171875	-0.0034619140625	3582.61868595476
0.55755615234375	-0.00346923828125	3582.8399379542
0.553131103515625	-0.0034759521484375	3583.06118995364
0.5487060546875	-0.00348419189453125	3583.28244195308
0.544281005859375	-0.00348968505859375	3583.50369395252
0.53985595703125	-0.00349822998046875	3583.72494595196
0.535430908203125	-0.0035052490234375	3583.94619795141
0.531005859375	-0.00351348876953125	3584.16744995085
0.526580810546875	-0.00352203369140625	3584.38870195029
0.52215576171875	-0.00352996826171875	3584.60995394973
0.517730712890625	-0.0035382080078125	3584.83120594917
0.5133056640625	-0.00354583740234375	3585.05245794861
0.508880615234375	-0.00355499267578125	3585.27370994805
0.50445556640625	-0.00356292724609375	3585.4949619475
0.500030517578125	-0.00357208251953125	3585.71621394694
0.49560546875	-0.00358062744140625	3585.93746594638
0.491180419921875	-0.00359039306640625	3586.15871794582
0.48675537109375	-0.00359893798828125	3586.37996994526
0.482330322265625	-0.00360809326171875	3586.6012219447
0.4779052734375	-0.00361724853515625	3586.82247394414
0.473480224609375	-0.00362701416015625	3587.04372594359
0.46905517578125	-0.00363616943359375	3587.26497794303
0.464630126953125	-0.00364501953125	3587.48622994247
0.460205078125	-0.00365478515625	3587.70748194191
0.455780029296875	-0.00366485595703125	3587.92873394135
0.45135498046875	-0.00367523193359375	3588.14998594079
0.446929931640625	-0.00368560791015625	3588.37123794023
0.4425048828125	-0.00369659423828125	3588.59248993968
0.438079833984375	-0.00370635986328125	3588.81374193912
0.43365478515625	-0.0037164306640625	3589.03499393856
0.429229736328125	-0.0037255859375	3589.256245938
0.4248046875	-0.003736572265625	3589.47749793744
0.420379638671875	-0.00374603271484375	3589.69874993688
0.41595458984375	-0.0037567138671875	3589.92000193632
0.411529541015625	-0.00376678466796875	3590.14125393576
0.4071044921875	-0.0037774658203125	3590.36250593521
0.402679443359375	-0.00378753662109375	3590.58375793465
0.39825439453125	-0.003798828125	3590.80500993409
0.393829345703125	-0.003809814453125	3591.02626193353
0.389404296875	-0.003819580078125	3591.24751393297
0.384979248046875	-0.0038299560546875	3591.46876593241
0.38055419921875	-0.00384063720703125	3591.69001793185
0.376129150390625	-0.00385162353515625	3591.9112699313
0.3717041015625	-0.00386260986328125	3592.13252193074
0.367279052734375	-0.00387359619140625	3592.35377393018
0.36285400390625	-0.0038848876953125	3592.57502592962
0.358428955078125	-0.00389556884765625	3592.79627792906
0.35400390625	-0.00390625	3593.0175299285
0.349578857421875	-0.003914794921875	3593.23878192794
0.34515380859375	-0.00392608642578125	3593.46003392739
0.340728759765625	-0.00393707275390625	3593.68128592683
0.3363037109375	-0.00394866943359375	3593.90253792627
0.331878662109375	-0.003961181640625	3594.12378992571
0.32745361328125	-0.00397247314453125	3594.34504192515
0.323028564453125	-0.00398468017578125	3594.56629392459
0.318603515625	-0.00399627685546875	3594.78754592403
0.314178466796875	-0.0040081787109375	3595.00879792348
0.30975341796875	-0.00402374267578125	3595.23004992292
0.305328369140625	-0.00403594970703125	3595.45130192236
0.3009033203125	-0.0040472412109375	3595.6725539218
0.296478271484375	-0.00405975341796875	3595.89380592124
0.29205322265625	-0.00407196044921875	3596.11505792068
0.287628173828125	-0.00408447265625	3596.33630992012
0.283203125	-0.004097900390625	3596.55756191957
0.278778076171875	-0.0041107177734375	3596.77881391901
0.27435302734375	-0.00412445068359375	3597.00006591845
0.269927978515625	-0.00413726806640625	3597.22131791789
0.2655029296875	-0.0041522216796875	3597.44256991733
0.261077880859375	-0.00416595458984375	3597.66382191677
0.25665283203125	-0.0041796875	3597.88507391621
0.252227783203125	-0.00419464111328125	3598.10632591565
0.247802734375	-0.00420928955078125	3598.3275779151
0.243377685546875	-0.0042242431640625	3598.54882991454
0.23895263671875	-0.00423919677734375	3598.77008191398
0.234527587890625	-0.0042547607421875	3598.99133391342
0.2301025390625	-0.00426849365234375	3599.21258591286
0.225677490234375	-0.004283447265625	3599.4338379123
0.22125244140625	-0.00430023193359375	3599.65508991174
0.216827392578125	-0.0043157958984375	3599.87634191119
0.21240234375	-0.00433258056640625	3600.09759391063
0.207977294921875	-0.00434906005859375	3600.31884591007
0.20355224609375	-0.0043658447265625	3600.54009790951
0.199127197265625	-0.0043829345703125	3600.76134990895
0.1947021484375	-0.004400634765625	3600.98260190839
0.190277099609375	-0.00441619873046875	3601.20385390783
0.18585205078125	-0.00443359375	3601.42510590728
0.181427001953125	-0.00445220947265625	3601.64635790672
0.177001953125	-0.00447174072265625	3601.86760990616
0.172576904296875	-0.0044903564453125	3602.0888619056
0.16815185546875	-0.00450897216796875	3602.31011390504
0.163726806640625	-0.00452850341796875	3602.53136590448
0.1593017578125	-0.00454803466796875	3602.75261790392
0.154876708984375	-0.00456695556640625	3602.97386990337
0.15045166015625	-0.00458740234375	3603.19512190281
0.146026611328125	-0.00460723876953125	3603.41637390225
0.1416015625	-0.00462921142578125	3603.63762590169
0.137176513671875	-0.0046514892578125	3603.85887790113
0.13275146484375	-0.00467254638671875	3604.08012990057
0.128326416015625	-0.0046954345703125	3604.30138190001
0.1239013671875	-0.00471893310546875	3604.52263389946
0.119476318359375	-0.004742431640625	3604.7438858989
0.11505126953125	-0.00476287841796875	3604.96513789834
0.110626220703125	-0.00478790283203125	3605.18638989778
0.106201171875	-0.004813232421875	3605.40764189722
0.101776123046875	-0.0048382568359375	3605.62889389666
0.09735107421875	-0.0048638916015625	3605.8501458961
0.092926025390625	-0.0048895263671875	3606.07139789555
0.0885009765625	-0.00491851806640625	3606.29264989499
0.084075927734375	-0.00494659423828125	3606.51390189443
0.07965087890625	-0.00497314453125	3606.73515389387
0.075225830078125	-0.00499786376953125	3606.95640589331
0.07080078125	-0.00502716064453125	3607.17765789275
0.066375732421875	-0.005057373046875	3607.39890989219
0.06195068359375	-0.0050872802734375	3607.62016189163
0.057525634765625	-0.00511688232421875	3607.84141389108
0.0531005859375	-0.0051470947265625	3608.06266589052
0.048675537109375	-0.00517822265625	3608.28391788996
0.04425048828125	-0.0052099609375	3608.5051698894
0.039825439453125	-0.0052410888671875	3608.72642188884
0.035400390625	-0.0052740478515625	3608.94767388828
0.030975341796875	-0.00530670166015625	3609.16892588772
0.02655029296875	-0.00534027099609375	3609.39017788717
0.022125244140625	-0.00537384033203125	3609.61142988661
0.0177001953125	-0.00540802001953125	3609.83268188605
0.013275146484375	-0.005443115234375	3610.05393388549
0.00885009765625	-0.005478515625	3610.27518588493
0.004425048828125	-0.00551513671875	3610.49643788437
0	-0.0055535888671875	3610.71768988381
0.004425048828125	-0.004521484375	3610.93894188326
0.00885009765625	-0.0036224365234375	3611.1601938827
0.013275146484375	-0.00282989501953125	3611.38144588214
0.0177001953125	-0.0021246337890625	3611.60269788158
0.022125244140625	-0.00149505615234375	3611.82394988102
0.02655029296875	-0.000928955078125	3612.04520188046
0.030975341796875	-0.0004195556640625	3612.2664538799
0.035400390625	4.06585693359375E-05	3612.48770587935
0.039825439453125	0.00045623779296875	3612.70895787879
0.04425048828125	0.00083343505859375	3612.93020987823
0.048675537109375	0.001175537109375	3613.15146187767
0.0531005859375	0.00148651123046875	3613.37271387711
0.057525634765625	0.0017657470703125	3613.59396587655
0.06195068359375	0.0020172119140625	3613.81521787599
0.066375732421875	0.0022442626953125	3614.03646987544
0.07080078125	0.00244873046875	3614.25772187488
0.075225830078125	0.00263336181640625	3614.47897387432
0.07965087890625	0.0027935791015625	3614.70022587376
0.084075927734375	0.0029461669921875	3614.9214778732
0.0885009765625	0.0030865478515625	3615.14272987264
0.092926025390625	0.00321380615234375	3615.36398187208
0.09735107421875	0.00332611083984375	3615.58523387152
0.101776123046875	0.0034283447265625	3615.80648587097
0.106201171875	0.003519287109375	3616.02773787041
0.110626220703125	0.0035992431640625	3616.24898986985
0.11505126953125	0.00367095947265625	3616.47024186929
0.119476318359375	0.00373199462890625	3616.69149386873
0.1239013671875	0.0037884521484375	3616.91274586817
0.128326416015625	0.003837890625	3617.13399786761
0.13275146484375	0.00388092041015625	3617.35524986706
0.137176513671875	0.0039178466796875	3617.5765018665
0.1416015625	0.00394927978515625	3617.79775386594
0.146026611328125	0.00397705078125	3618.01900586538
0.15045166015625	0.0039996337890625	3618.24025786482
0.154876708984375	0.00401763916015625	3618.46150986426
0.1593017578125	0.004031982421875	3618.6827618637
0.163726806640625	0.004044189453125	3618.90401386315
0.16815185546875	0.00405242919921875	3619.12526586259
0.172576904296875	0.00405975341796875	3619.34651786203
0.177001953125	0.0040631103515625	3619.56776986147
0.181427001953125	0.0040655517578125	3619.78902186091
0.18585205078125	0.00406494140625	3620.01027386035
0.190277099609375	0.00406280517578125	3620.23152585979
0.1947021484375	0.0040594482421875	3620.45277785924
0.199127197265625	0.00405609130859375	3620.67402985868
0.20355224609375	0.0040496826171875	3620.89528185812
0.207977294921875	0.00404327392578125	3621.11653385756
0.21240234375	0.00403411865234375	3621.337785857
0.216827392578125	0.004024658203125	3621.55903785644
0.22125244140625	0.00401519775390625	3621.78028985588
0.225677490234375	0.00400482177734375	3622.00154185533
0.2301025390625	0.00399566650390625	3622.22279385477
0.234527587890625	0.00398223876953125	3622.44404585421
0.23895263671875	0.00397125244140625	3622.66529785365
0.243377685546875	0.0039599609375	3622.88654985309
0.247802734375	0.0039471435546875	3623.10780185253
0.252227783203125	0.003935546875	3623.32905385197
0.25665283203125	0.00392333984375	3623.55030585142
0.261077880859375	0.0039129638671875	3623.77155785086
0.2655029296875	0.0039013671875	3623.9928098503
0.269927978515625	0.00388885498046875	3624.21406184974
0.27435302734375	0.00387664794921875	3624.43531384918
0.278778076171875	0.00386474609375	3624.65656584862
0.283203125	0.0038525390625	3624.87781784806
0.287628173828125	0.00384063720703125	3625.0990698475
0.29205322265625	0.003829345703125	3625.32032184695
0.296478271484375	0.003818359375	3625.54157384639
0.3009033203125	0.003807373046875	3625.76282584583
0.305328369140625	0.00379669189453125	3625.98407784527
0.30975341796875	0.00378570556640625	3626.20532984471
0.314178466796875	0.0037786865234375	3626.42658184415
0.318603515625	0.00376678466796875	3626.64783384359
0.323028564453125	0.003756103515625	3626.86908584304
0.32745361328125	0.00374542236328125	3627.09033784248
0.331878662109375	0.00373626708984375	3627.31158984192
0.3363037109375	0.00372650146484375	3627.53284184136
0.340728759765625	0.00371673583984375	3627.7540938408
0.34515380859375	0.00370758056640625	3627.97534584024
0.349578857421875	0.00369781494140625	3628.19659783968
0.35400390625	0.0036865234375	3628.41784983913
0.358428955078125	0.00367767333984375	3628.63910183857
0.36285400390625	0.00366912841796875	3628.86035383801
0.367279052734375	0.00366119384765625	3629.08160583745
0.3717041015625	0.00365264892578125	3629.30285783689
0.376129150390625	0.00364532470703125	3629.52410983633
0.38055419921875	0.00363677978515625	3629.74536183577
0.384979248046875	0.0036297607421875	3629.96661383522
0.389404296875	0.00362274169921875	3630.18786583466
0.393829345703125	0.00361419677734375	3630.4091178341
0.39825439453125	0.0036077880859375	3630.63036983354
0.402679443359375	0.0036004638671875	3630.85162183298
0.4071044921875	0.00359283447265625	3631.07287383242
0.411529541015625	0.00358551025390625	3631.29412583186
0.41595458984375	0.00357818603515625	3631.51537783131
0.420379638671875	0.00357177734375	3631.73662983075
0.4248046875	0.00356414794921875	3631.95788183019
0.429229736328125	0.0035577392578125	3632.17913382963
0.43365478515625	0.00355072021484375	3632.40038582907
0.438079833984375	0.00354461669921875	3632.62163782851
0.4425048828125	0.0035382080078125	3632.84288982795
0.446929931640625	0.00353271484375	3633.06414182739
0.45135498046875	0.00352569580078125	3633.28539382684
0.455780029296875	0.00352020263671875	3633.50664582628
0.460205078125	0.00351409912109375	3633.72789782572
0.464630126953125	0.00350860595703125	3633.94914982516
0.46905517578125	0.00350128173828125	3634.1704018246
0.473480224609375	0.00349609375	3634.39165382404
0.4779052734375	0.0034912109375	3634.61290582348
0.482330322265625	0.00348602294921875	3634.83415782293
0.48675537109375	0.0034814453125	3635.05540982237
0.491180419921875	0.0034765625	3635.27666182181
0.49560546875	0.00347137451171875	3635.49791382125
0.500030517578125	0.0034674072265625	3635.71916582069
0.50445556640625	0.00346343994140625	3635.94041782013
0.508880615234375	0.003458251953125	3636.16166981957
0.5133056640625	0.00345458984375	3636.38292181902
0.517730712890625	0.0034515380859375	3636.60417381846
0.52215576171875	0.00344757080078125	3636.8254258179
0.526580810546875	0.0034442138671875	3637.04667781734
0.531005859375	0.00344146728515625	3637.26792981678
0.535430908203125	0.0034381103515625	3637.48918181622
0.53985595703125	0.00343536376953125	3637.71043381566
0.544281005859375	0.00343292236328125	3637.93168581511
0.5487060546875	0.0034295654296875	3638.15293781455
0.553131103515625	0.00342803955078125	3638.37418981399
0.55755615234375	0.00342559814453125	3638.59544181343
0.561981201171875	0.0034246826171875	3638.81669381287
0.56640625	0.00342315673828125	3639.03794581231
0.570831298828125	0.003421630859375	3639.25919781175
0.57525634765625	0.00342132568359375	3639.4804498112
0.579681396484375	0.00342010498046875	3639.70170181064
0.5841064453125	0.00342041015625	3639.92295381008
0.588531494140625	0.00341796875	3640.14420580952
0.59295654296875	0.0034185791015625	3640.36545780896
0.597381591796875	0.00342010498046875	3640.5867098084
0.601806640625	0.00342071533203125	3640.80796180784
0.606231689453125	0.0034222412109375	3641.02921380729
0.61065673828125	0.00342437744140625	3641.25046580673
0.615081787109375	0.00342681884765625	3641.47171780617
0.6195068359375	0.003428955078125	3641.69296980561
0.623931884765625	0.003431396484375	3641.91422180505
0.62835693359375	0.00343902587890625	3642.13547380449
0.632781982421875	0.003441162109375	3642.35672580393
0.63720703125	0.00344329833984375	3642.57797780337
0.641632080078125	0.00344757080078125	3642.79922980282
0.64605712890625	0.003450927734375	3643.02048180226
0.650482177734375	0.0034552001953125	3643.2417338017
0.6549072265625	0.00345855712890625	3643.46298580114
0.659332275390625	0.00346466064453125	3643.68423780058
0.66375732421875	0.0034698486328125	3643.90548980002
0.668182373046875	0.0034759521484375	3644.12674179946
0.672607421875	0.0034814453125	3644.34799379891
0.677032470703125	0.003487548828125	3644.56924579835
0.68145751953125	0.00349578857421875	3644.79049779779
0.685882568359375	0.00350311279296875	3645.01174979723
0.6903076171875	0.00351104736328125	3645.23300179667
0.694732666015625	0.0035186767578125	3645.45425379611
0.69915771484375	0.0035272216796875	3645.67550579555
0.703582763671875	0.00353546142578125	3645.896757795
0.7080078125	0.00354522705078125	3646.11800979444
0.712432861328125	0.00355560302734375	3646.33926179388
0.71685791015625	0.003565673828125	3646.56051379332
0.721282958984375	0.003577880859375	3646.78176579276
0.7257080078125	0.0035882568359375	3647.0030177922
0.730133056640625	0.0036004638671875	3647.22426979164
0.73455810546875	0.0036126708984375	3647.44552179109
0.738983154296875	0.00362640380859375	3647.66677379053
0.743408203125	0.0036376953125	3647.88802578997
0.747833251953125	0.00365325927734375	3648.10927778941
0.75225830078125	0.0036676025390625	3648.33052978885
0.756683349609375	0.0036834716796875	3648.55178178829
0.7611083984375	0.00369964599609375	3648.77303378773
0.765533447265625	0.0037158203125	3648.99428578718
0.76995849609375	0.00373321533203125	3649.21553778662
0.774383544921875	0.00375213623046875	3649.43678978606
0.77880859375	0.00377044677734375	3649.6580417855
0.783233642578125	0.00378997802734375	3649.87929378494
0.78765869140625	0.003809814453125	3650.10054578438
0.792083740234375	0.00383087158203125	3650.32179778382
0.7965087890625	0.0038531494140625	3650.54304978326
0.800933837890625	0.00387725830078125	3650.76430178271
0.80535888671875	0.0039007568359375	3650.98555378215
0.809783935546875	0.0039251708984375	3651.20680578159
0.814208984375	0.00395050048828125	3651.42805778103
0.818634033203125	0.00397735595703125	3651.64930978047
0.82305908203125	0.00400543212890625	3651.87056177991
0.827484130859375	0.004034423828125	3652.09181377935
0.8319091796875	0.00406463623046875	3652.3130657788
0.836334228515625	0.00409576416015625	3652.53431777824
0.84075927734375	0.00412872314453125	3652.75556977768
0.845184326171875	0.0041632080078125	3652.97682177712
0.849609375	0.00419891357421875	3653.19807377656
0.854034423828125	0.00423675537109375	3653.419325776
0.85845947265625	0.0042755126953125	3653.64057777544
0.862884521484375	0.00431396484375	3653.86182977489
0.8673095703125	0.00435516357421875	3654.08308177433
0.871734619140625	0.00439849853515625	3654.30433377377
0.87615966796875	0.004443359375	3654.52558577321
0.880584716796875	0.00448944091796875	3654.74683777265
0.885009765625	0.00453643798828125	3654.96808977209
0.889434814453125	0.00458587646484375	3655.18934177153
0.89385986328125	0.00463653564453125	3655.41059377098
0.898284912109375	0.00469024658203125	3655.63184577042
0.9027099609375	0.00474456787109375	3655.85309776986
0.907135009765625	0.00480072021484375	3656.0743497693
0.91156005859375	0.00485870361328125	3656.29560176874
0.915985107421875	0.00491729736328125	3656.51685376818
0.92041015625	0.00497955322265625	3656.73810576762
0.924835205078125	0.0050433349609375	3656.95935776707
0.92926025390625	0.005108642578125	3657.18060976651
0.933685302734375	0.0051751708984375	3657.40186176595
0.9381103515625	0.00524810791015625	3657.62311376539
0.942535400390625	0.00531982421875	3657.84436576483
0.94696044921875	0.00539306640625	3658.06561776427
0.951385498046875	0.00546905517578125	3658.28686976371
0.955810546875	0.00554779052734375	3658.50812176316
0.960235595703125	0.0056304931640625	3658.7293737626
0.96466064453125	0.00571563720703125	3658.95062576204
0.969085693359375	0.0058038330078125	3659.17187776148
0.9735107421875	0.0058978271484375	3659.39312976092
0.977935791015625	0.00599151611328125	3659.61438176036
0.98236083984375	0.00609161376953125	3659.8356337598
0.986785888671875	0.00618896484375	3660.05688575924
0.9912109375	0.0062957763671875	3660.27813775869
0.995635986328125	0.00640869140625	3660.49938975813
1.00006103515625	0.0065277099609375	3660.72064175757
0.995635986328125	0.0056060791015625	3660.94189375701
0.9912109375	0.004825439453125	3661.16314575645
0.986785888671875	0.00414215087890625	3661.38439775589
0.98236083984375	0.00353515625	3661.60564975533
0.977935791015625	0.0029901123046875	3661.82690175478
0.9735107421875	0.0024981689453125	3662.04815375422
0.969085693359375	0.0020477294921875	3662.26940575366
0.96466064453125	0.00163482666015625	3662.4906577531
0.960235595703125	0.00125396728515625	3662.71190975254
0.955810546875	0.00090301513671875	3662.93316175198
0.951385498046875	0.00057861328125	3663.15441375142
0.94696044921875	0.0002779541015625	3663.37566575087
0.942535400390625	3.57055664062494E-07	3663.59691775031
0.9381103515625	-0.00025677490234375	3663.81816974975
0.933685302734375	-0.00049835205078125	3664.03942174919
0.92926025390625	-0.00071807861328125	3664.26067374863
0.924835205078125	-0.000921630859375	3664.48192574807
0.92041015625	-0.00110992431640625	3664.70317774751
0.915985107421875	-0.00128387451171875	3664.92442974696
0.91156005859375	-0.0014447021484375	3665.1456817464
0.907135009765625	-0.00159210205078125	3665.36693374584
0.9027099609375	-0.00172882080078125	3665.58818574528
0.898284912109375	-0.00185455322265625	3665.80943774472
0.89385986328125	-0.00196990966796875	3666.03068974416
0.889434814453125	-0.002076416015625	3666.2519417436
0.885009765625	-0.0021746826171875	3666.47319374305
0.880584716796875	-0.0022637939453125	3666.69444574249
0.87615966796875	-0.00234588623046875	3666.91569774193
0.871734619140625	-0.002421875	3667.13694974137
0.8673095703125	-0.00249114990234375	3667.35820174081
0.862884521484375	-0.0025543212890625	3667.57945374025
0.85845947265625	-0.002611083984375	3667.80070573969
0.854034423828125	-0.00266448974609375	3668.02195773913
0.849609375	-0.00271392822265625	3668.24320973858
0.845184326171875	-0.0027581787109375	3668.46446173802
0.84075927734375	-0.0027996826171875	3668.68571373746
0.836334228515625	-0.00283721923828125	3668.9069657369
0.8319091796875	-0.00287139892578125	3669.12821773634
0.827484130859375	-0.00290313720703125	3669.34946973578
0.82305908203125	-0.00293365478515625	3669.57072173522
0.818634033203125	-0.0029595947265625	3669.79197373467
0.814208984375	-0.0029833984375	3670.01322573411
0.809783935546875	-0.003006591796875	3670.23447773355
0.80535888671875	-0.00302734375	3670.45572973299
0.800933837890625	-0.00304718017578125	3670.67698173243
0.7965087890625	-0.00306488037109375	3670.89823373187
0.792083740234375	-0.0030816650390625	3671.11948573131
0.78765869140625	-0.00309844970703125	3671.34073773076
0.783233642578125	-0.0031121826171875	3671.5619897302
0.77880859375	-0.00312591552734375	3671.78324172964
0.774383544921875	-0.0031378173828125	3672.00449372908
0.76995849609375	-0.0031500244140625	3672.22574572852
0.765533447265625	-0.00316131591796875	3672.44699772796
0.7611083984375	-0.00317138671875	3672.6682497274
0.756683349609375	-0.00318206787109375	3672.88950172685
0.75225830078125	-0.00319122314453125	3673.11075372629
0.747833251953125	-0.00319854736328125	3673.33200572573
0.743408203125	-0.00320831298828125	3673.55325772517
0.738983154296875	-0.00321258544921875	3673.77450972461
0.73455810546875	-0.003221435546875	3673.99576172405
0.730133056640625	-0.0032281494140625	3674.21701372349
0.7257080078125	-0.00323516845703125	3674.43826572294
0.721282958984375	-0.0032427978515625	3674.65951772238
0.71685791015625	-0.00325164794921875	3674.88076972182
0.712432861328125	-0.00325836181640625	3675.10202172126
0.7080078125	-0.00326416015625	3675.3232737207
0.703582763671875	-0.00326904296875	3675.54452572014
0.69915771484375	-0.00327301025390625	3675.76577771958
0.694732666015625	-0.0032769775390625	3675.98702971903
0.6903076171875	-0.00328399658203125	3676.20828171847
0.685882568359375	-0.00329010009765625	3676.42953371791
0.68145751953125	-0.0032958984375	3676.65078571735
0.677032470703125	-0.003302001953125	3676.87203771679
0.672607421875	-0.00330780029296875	3677.09328971623
0.668182373046875	-0.0033123779296875	3677.31454171567
0.66375732421875	-0.00331573486328125	3677.53579371511
0.659332275390625	-0.0033209228515625	3677.75704571456
0.6549072265625	-0.0033258056640625	3677.978297714
0.650482177734375	-0.00333099365234375	3678.19954971344
0.64605712890625	-0.0033367919921875	3678.42080171288
0.641632080078125	-0.00333953857421875	3678.64205371232
0.63720703125	-0.003343505859375	3678.86330571176
0.632781982421875	-0.00334747314453125	3679.0845577112
0.62835693359375	-0.003353271484375	3679.30580971065
0.623931884765625	-0.0033636474609375	3679.52706171009
0.6195068359375	-0.003367919921875	3679.74831370953
0.615081787109375	-0.00337158203125	3679.96956570897
0.61065673828125	-0.00337799072265625	3680.19081770841
0.606231689453125	-0.00338348388671875	3680.41206970785
0.601806640625	-0.0033892822265625	3680.63332170729
0.597381591796875	-0.00339447021484375	3680.85457370674
0.59295654296875	-0.00340087890625	3681.07582570618
0.588531494140625	-0.003406982421875	3681.29707770562
0.5841064453125	-0.00341094970703125	3681.51832970506
0.579681396484375	-0.0034173583984375	3681.7395817045
0.57525634765625	-0.00342376708984375	3681.96083370394
0.570831298828125	-0.003431396484375	3682.18208570338
0.56640625	-0.0034381103515625	3682.40333770283
0.561981201171875	-0.00344451904296875	3682.62458970227
0.55755615234375	-0.0034521484375	3682.84584170171
0.553131103515625	-0.0034588623046875	3683.06709370115
0.5487060546875	-0.00346649169921875	3683.28834570059
0.544281005859375	-0.00347320556640625	3683.50959770003
0.53985595703125	-0.0034808349609375	3683.73084969947
0.535430908203125	-0.00348907470703125	3683.95210169892
0.531005859375	-0.003497314453125	3684.17335369836
0.526580810546875	-0.00350494384765625	3684.3946056978
0.52215576171875	-0.0035137939453125	3684.61585769724
0.517730712890625	-0.00352142333984375	3684.83710969668
0.5133056640625	-0.00352935791015625	3685.05836169612
0.508880615234375	-0.00353790283203125	3685.27961369556
0.50445556640625	-0.003546142578125	3685.500865695
0.500030517578125	-0.0035552978515625	3685.72211769445
0.49560546875	-0.00356414794921875	3685.94336969389
0.491180419921875	-0.00357269287109375	3686.16462169333
0.48675537109375	-0.0035833740234375	3686.38587369277
0.482330322265625	-0.00359161376953125	3686.60712569221
0.4779052734375	-0.00360137939453125	3686.82837769165
0.473480224609375	-0.00361114501953125	3687.04962969109
0.46905517578125	-0.0036212158203125	3687.27088169054
0.464630126953125	-0.0036297607421875	3687.49213368998
0.460205078125	-0.00364044189453125	3687.71338568942
0.455780029296875	-0.00364959716796875	3687.93463768886
0.45135498046875	-0.00365997314453125	3688.1558896883
0.446929931640625	-0.00366912841796875	3688.37714168774
0.4425048828125	-0.0036798095703125	3688.59839368718
0.438079833984375	-0.003690185546875	3688.81964568663
0.43365478515625	-0.0037017822265625	3689.04089768607
0.429229736328125	-0.00371185302734375	3689.26214968551
0.4248046875	-0.0037213134765625	3689.48340168495
0.420379638671875	-0.003731689453125	3689.70465368439
0.41595458984375	-0.0037420654296875	3689.92590568383
0.411529541015625	-0.0037518310546875	3690.14715768327
0.4071044921875	-0.00376251220703125	3690.36840968272
0.402679443359375	-0.00377288818359375	3690.58966168216
0.39825439453125	-0.00378326416015625	3690.8109136816
0.393829345703125	-0.00379425048828125	3691.03216568104
0.389404296875	-0.003802490234375	3691.25341768048
0.384979248046875	-0.0038140869140625	3691.47466967992
0.38055419921875	-0.00382537841796875	3691.69592167936
0.376129150390625	-0.00383544921875	3691.91717367881
0.3717041015625	-0.00384765625	3692.13842567825
0.367279052734375	-0.00385772705078125	3692.35967767769
0.36285400390625	-0.00386962890625	3692.58092967713
0.358428955078125	-0.0038800048828125	3692.80218167657
0.35400390625	-0.00389129638671875	3693.02343367601
0.349578857421875	-0.00390045166015625	3693.24468567545
0.34515380859375	-0.0039111328125	3693.4659376749
0.340728759765625	-0.00392242431640625	3693.68718967434
0.3363037109375	-0.00393341064453125	3693.90844167378
0.331878662109375	-0.00394622802734375	3694.12969367322
0.32745361328125	-0.00395660400390625	3694.35094567266
0.323028564453125	-0.00396820068359375	3694.5721976721
0.318603515625	-0.0039801025390625	3694.79344967154
0.314178466796875	-0.00399261474609375	3695.01470167098
0.30975341796875	-0.00400787353515625	3695.23595367043
0.305328369140625	-0.00402069091796875	3695.45720566987
0.3009033203125	-0.004031982421875	3695.67845766931
0.296478271484375	-0.0040447998046875	3695.89970966875
0.29205322265625	-0.004056396484375	3696.12096166819
0.287628173828125	-0.0040692138671875	3696.34221366763
0.283203125	-0.00408203125	3696.56346566707
0.278778076171875	-0.00409576416015625	3696.78471766652
0.27435302734375	-0.00410888671875	3697.00596966596
0.269927978515625	-0.0041217041015625	3697.2272216654
0.2655029296875	-0.00413543701171875	3697.44847366484
0.261077880859375	-0.004149169921875	3697.66972566428
0.25665283203125	-0.00416229248046875	3697.89097766372
0.252227783203125	-0.00417694091796875	3698.11222966316
0.247802734375	-0.00419097900390625	3698.33348166261
0.243377685546875	-0.0042059326171875	3698.55473366205
0.23895263671875	-0.00422088623046875	3698.77598566149
0.234527587890625	-0.00423583984375	3698.99723766093
0.2301025390625	-0.00425079345703125	3699.21848966037
0.225677490234375	-0.00426605224609375	3699.43974165981
0.22125244140625	-0.00428192138671875	3699.66099365925
0.216827392578125	-0.004298095703125	3699.8822456587
0.21240234375	-0.00431488037109375	3700.10349765814
0.207977294921875	-0.00433135986328125	3700.32474965758
0.20355224609375	-0.0043487548828125	3700.54600165702
0.199127197265625	-0.0043658447265625	3700.76725365646
0.1947021484375	-0.0043829345703125	3700.9885056559
0.190277099609375	-0.00440032958984375	3701.20975765534
0.18585205078125	-0.0044189453125	3701.43100965479
0.181427001953125	-0.00443572998046875	3701.65226165423
0.177001953125	-0.004454345703125	3701.87351365367
0.172576904296875	-0.0044732666015625	3702.09476565311
0.16815185546875	-0.0044921875	3702.31601765255
0.163726806640625	-0.0045123291015625	3702.53726965199
0.1593017578125	-0.0045318603515625	3702.75852165143
0.154876708984375	-0.00455108642578125	3702.97977365087
0.15045166015625	-0.00457183837890625	3703.20102565032
0.146026611328125	-0.00459259033203125	3703.42227764976
0.1416015625	-0.0046142578125	3703.6435296492
0.137176513671875	-0.00463531494140625	3703.86478164864
0.13275146484375	-0.0046575927734375	3704.08603364808
0.128326416015625	-0.00467926025390625	3704.30728564752
0.1239013671875	-0.00470245361328125	3704.52853764696
0.119476318359375	-0.00472564697265625	3704.74978964641
0.11505126953125	-0.00474761962890625	3704.97104164585
0.110626220703125	-0.004771728515625	3705.19229364529
0.106201171875	-0.00479766845703125	3705.41354564473
0.101776123046875	-0.0048223876953125	3705.63479764417
0.09735107421875	-0.004847412109375	3705.85604964361
0.092926025390625	-0.0048736572265625	3706.07730164305
0.0885009765625	-0.0049005126953125	3706.2985536425
0.084075927734375	-0.0049267578125	3706.51980564194
0.07965087890625	-0.0049542236328125	3706.74105764138
0.075225830078125	-0.00498046875	3706.96230964082
0.07080078125	-0.00500885009765625	3707.18356164026
0.066375732421875	-0.005037841796875	3707.4048136397
0.06195068359375	-0.0050689697265625	3707.62606563914
0.057525634765625	-0.005098876953125	3707.84731763859
0.0531005859375	-0.005130615234375	3708.06856963803
0.048675537109375	-0.00516143798828125	3708.28982163747
0.04425048828125	-0.00519195556640625	3708.51107363691
0.039825439453125	-0.0052239990234375	3708.73232563635
0.035400390625	-0.0052569580078125	3708.95357763579
0.030975341796875	-0.00529083251953125	3709.17482963523
0.02655029296875	-0.00532470703125	3709.39608163468
0.022125244140625	-0.00535858154296875	3709.61733363412
0.0177001953125	-0.00539459228515625	3709.83858563356
0.013275146484375	-0.00542938232421875	3710.059837633
0.00885009765625	-0.00546478271484375	3710.28108963244
0.004425048828125	-0.00550201416015625	3710.50234163188
0	-0.00554046630859375	3710.72359363132
0.004425048828125	-0.0045068359375	3710.94484563077
0.00885009765625	-0.0036077880859375	3711.16609763021
0.013275146484375	-0.00281646728515625	3711.38734962965
