Potential applied (V)	WE(1).Current (A)	Time (s)
0.004425048828125	-0.003150634765625	3712.77497362614
0.00885009765625	-0.00249755859375	3712.78382362612
0.013275146484375	-0.00185455322265625	3712.7926736261
0.0177001953125	-0.00121978759765625	3712.80152362608
0.022125244140625	-0.000592041015625	3712.81037362606
0.02655029296875	3.08258056640625E-05	3712.81922362603
0.030975341796875	0.0006463623046875	3712.82807362601
0.035400390625	0.00125701904296875	3712.83692362599
0.039825439453125	0.00186370849609375	3712.84577362597
0.04425048828125	0.0024652099609375	3712.85462362594
0.048675537109375	0.00306243896484375	3712.86347362592
0.0531005859375	0.00365692138671875	3712.8723236259
0.057525634765625	0.00424530029296875	3712.88117362588
0.06195068359375	0.00483062744140625	3712.89002362585
0.066375732421875	0.00541107177734375	3712.89887362583
0.07080078125	0.00598846435546875	3712.90772362581
0.075225830078125	0.0065618896484375	3712.91657362579
0.07965087890625	0.0071136474609375	3712.92542362576
0.084075927734375	0.007684326171875	3712.93427362574
0.0885009765625	0.008245849609375	3712.94312362572
0.092926025390625	0.008807373046875	3712.9519736257
0.09735107421875	0.0093658447265625	3712.96082362567
0.101776123046875	0.0099090576171875	3712.96967362565
0.106201171875	0.010455322265625	3712.97852362563
0.110626220703125	0.0110015869140625	3712.98737362561
0.11505126953125	0.0115478515625	3712.99622362559
0.119476318359375	0.0120819091796875	3713.00507362556
0.1239013671875	0.012615966796875	3713.01392362554
0.128326416015625	0.0131500244140625	3713.02277362552
0.13275146484375	0.013677978515625	3713.0316236255
0.137176513671875	0.0141998291015625	3713.04047362547
0.1416015625	0.0147216796875	3713.04932362545
0.146026611328125	0.015240478515625	3713.05817362543
0.15045166015625	0.0157562255859375	3713.06702362541
0.154876708984375	0.0162689208984375	3713.07587362538
0.1593017578125	0.0167755126953125	3713.08472362536
0.163726806640625	0.017279052734375	3713.09357362534
0.16815185546875	0.01778564453125	3713.10242362532
0.172576904296875	0.0182861328125	3713.1112736253
0.177001953125	0.018780517578125	3713.12012362527
0.181427001953125	0.0192779541015625	3713.12897362525
0.18585205078125	0.0197662353515625	3713.13782362523
0.190277099609375	0.0202545166015625	3713.14667362521
0.1947021484375	0.020733642578125	3713.15552362518
0.199127197265625	0.0212158203125	3713.16437362516
0.20355224609375	0.02169189453125	3713.17322362514
0.207977294921875	0.02216796875	3713.18207362512
0.21240234375	0.0226409912109375	3713.19092362509
0.216827392578125	0.0231109619140625	3713.19977362507
0.22125244140625	0.02357177734375	3713.20862362505
0.225677490234375	0.0240447998046875	3713.21747362503
0.2301025390625	0.0245086669921875	3713.226323625
0.234527587890625	0.024969482421875	3713.23517362498
0.23895263671875	0.0254302978515625	3713.24402362496
0.243377685546875	0.0258880615234375	3713.25287362494
0.247802734375	0.0263427734375	3713.26172362492
0.252227783203125	0.0267913818359375	3713.27057362489
0.25665283203125	0.0272430419921875	3713.27942362487
0.261077880859375	0.027691650390625	3713.28827362485
0.2655029296875	0.0281341552734375	3713.29712362483
0.269927978515625	0.02857666015625	3713.3059736248
0.27435302734375	0.029010009765625	3713.31482362478
0.278778076171875	0.029449462890625	3713.32367362476
0.283203125	0.0298797607421875	3713.33252362474
0.287628173828125	0.030316162109375	3713.34137362471
0.29205322265625	0.030743408203125	3713.35022362469
0.296478271484375	0.0311676025390625	3713.35907362467
0.3009033203125	0.0315887451171875	3713.36792362465
0.305328369140625	0.0320159912109375	3713.37677362463
0.30975341796875	0.0324310302734375	3713.3856236246
0.314178466796875	0.0328460693359375	3713.39447362458
0.318603515625	0.03326416015625	3713.40332362456
0.323028564453125	0.0336761474609375	3713.41217362454
0.32745361328125	0.034088134765625	3713.42102362451
0.331878662109375	0.0344940185546875	3713.42987362449
0.3363037109375	0.034906005859375	3713.43872362447
0.340728759765625	0.0353271484375	3713.44757362445
0.34515380859375	0.035736083984375	3713.45642362442
0.349578857421875	0.0361297607421875	3713.4652736244
0.35400390625	0.0365264892578125	3713.47412362438
0.358428955078125	0.0369232177734375	3713.48297362436
0.36285400390625	0.03731689453125	3713.49182362433
0.367279052734375	0.0377044677734375	3713.50067362431
0.3717041015625	0.038092041015625	3713.50952362429
0.376129150390625	0.0384796142578125	3713.51837362427
0.38055419921875	0.038861083984375	3713.52722362424
0.384979248046875	0.0392364501953125	3713.53607362422
0.389404296875	0.0396148681640625	3713.5449236242
0.393829345703125	0.03997802734375	3713.55377362418
0.39825439453125	0.0403472900390625	3713.56262362416
0.402679443359375	0.04071044921875	3713.57147362413
0.4071044921875	0.041070556640625	3713.58032362411
0.411529541015625	0.0414337158203125	3713.58917362409
0.41595458984375	0.0417877197265625	3713.59802362407
0.420379638671875	0.0421417236328125	3713.60687362404
0.4248046875	0.0424896240234375	3713.61572362402
0.429229736328125	0.042852783203125	3713.624573624
0.43365478515625	0.043218994140625	3713.63342362398
0.438079833984375	0.043597412109375	3713.64227362395
0.4425048828125	0.0439544677734375	3713.65112362393
0.446929931640625	0.0442962646484375	3713.65997362391
0.45135498046875	0.0446197509765625	3713.66882362389
0.455780029296875	0.044940185546875	3713.67767362387
0.460205078125	0.045263671875	3713.68652362384
0.464630126953125	0.04560546875	3713.69537362382
0.46905517578125	0.0459503173828125	3713.7042236238
0.473480224609375	0.0462982177734375	3713.71307362378
0.4779052734375	0.0466522216796875	3713.72192362375
0.482330322265625	0.046990966796875	3713.73077362373
0.48675537109375	0.0473175048828125	3713.73962362371
0.491180419921875	0.047637939453125	3713.74847362369
0.49560546875	0.0479522705078125	3713.75732362366
0.500030517578125	0.0482696533203125	3713.76617362364
0.50445556640625	0.0485809326171875	3713.77502362362
0.508880615234375	0.048895263671875	3713.7838736236
0.5133056640625	0.04920654296875	3713.79272362357
0.517730712890625	0.0495086669921875	3713.80157362355
0.52215576171875	0.0498138427734375	3713.81042362353
0.526580810546875	0.050115966796875	3713.81927362351
0.531005859375	0.050421142578125	3713.82812362349
0.535430908203125	0.050714111328125	3713.83697362346
0.53985595703125	0.0510009765625	3713.84582362344
0.544281005859375	0.051300048828125	3713.85467362342
0.5487060546875	0.0515838623046875	3713.8635236234
0.553131103515625	0.0518707275390625	3713.87237362337
0.55755615234375	0.05216064453125	3713.88122362335
0.561981201171875	0.0524505615234375	3713.89007362333
0.56640625	0.0527374267578125	3713.89892362331
0.570831298828125	0.0530242919921875	3713.90777362328
0.57525634765625	0.0532989501953125	3713.91662362326
0.579681396484375	0.053570556640625	3713.92547362324
0.5841064453125	0.053839111328125	3713.93432362322
0.588531494140625	0.0541046142578125	3713.94317362319
0.59295654296875	0.05438232421875	3713.95202362317
0.597381591796875	0.05465087890625	3713.96087362315
0.601806640625	0.0549041748046875	3713.96972362313
0.606231689453125	0.055169677734375	3713.97857362311
0.61065673828125	0.0554168701171875	3713.98742362308
0.615081787109375	0.0556793212890625	3713.99627362306
0.6195068359375	0.0559356689453125	3714.00512362304
0.623931884765625	0.0561920166015625	3714.01397362302
0.62835693359375	0.056451416015625	3714.02282362299
0.632781982421875	0.056695556640625	3714.03167362297
0.63720703125	0.0569427490234375	3714.04052362295
0.641632080078125	0.0571807861328125	3714.04937362293
0.64605712890625	0.057421875	3714.0582236229
0.650482177734375	0.0576690673828125	3714.06707362288
0.6549072265625	0.0579193115234375	3714.07592362286
0.659332275390625	0.058154296875	3714.08477362284
0.66375732421875	0.0583892822265625	3714.09362362281
0.668182373046875	0.0586151123046875	3714.10247362279
0.672607421875	0.05885009765625	3714.11132362277
0.677032470703125	0.0590850830078125	3714.12017362275
0.68145751953125	0.059320068359375	3714.12902362273
0.685882568359375	0.0595367431640625	3714.1378736227
0.6903076171875	0.0597625732421875	3714.14672362268
0.694732666015625	0.05997314453125	3714.15557362266
0.69915771484375	0.0601898193359375	3714.16442362264
0.703582763671875	0.0604034423828125	3714.17327362261
0.7080078125	0.0606170654296875	3714.18212362259
0.712432861328125	0.0608123779296875	3714.19097362257
0.71685791015625	0.0610260009765625	3714.19982362255
0.721282958984375	0.06124267578125	3714.20867362252
0.7257080078125	0.061444091796875	3714.2175236225
0.730133056640625	0.0616546630859375	3714.22637362248
0.73455810546875	0.061859130859375	3714.23522362246
0.738983154296875	0.062066650390625	3714.24407362244
0.743408203125	0.062261962890625	3714.25292362241
0.747833251953125	0.0624603271484375	3714.26177362239
0.75225830078125	0.062646484375	3714.27062362237
0.756683349609375	0.0628387451171875	3714.27947362235
0.7611083984375	0.063037109375	3714.28832362232
0.765533447265625	0.063232421875	3714.2971736223
0.76995849609375	0.0634185791015625	3714.30602362228
0.774383544921875	0.0635986328125	3714.31487362226
0.77880859375	0.0637847900390625	3714.32372362223
0.783233642578125	0.0639678955078125	3714.33257362221
0.78765869140625	0.0641357421875	3714.34142362219
0.792083740234375	0.0643157958984375	3714.35027362217
0.7965087890625	0.0644927978515625	3714.35912362214
0.800933837890625	0.0646636962890625	3714.36797362212
0.80535888671875	0.064825439453125	3714.3768236221
0.809783935546875	0.064990234375	3714.38567362208
0.814208984375	0.065167236328125	3714.39452362206
0.818634033203125	0.06533203125	3714.40337362203
0.82305908203125	0.065496826171875	3714.41222362201
0.827484130859375	0.065673828125	3714.42107362199
0.8319091796875	0.065850830078125	3714.42992362197
0.836334228515625	0.06600341796875	3714.43877362194
0.84075927734375	0.0661590576171875	3714.44762362192
0.845184326171875	0.0663238525390625	3714.4564736219
0.849609375	0.066473388671875	3714.46532362188
0.854034423828125	0.0666290283203125	3714.47417362185
0.85845947265625	0.0667633056640625	3714.48302362183
0.862884521484375	0.066925048828125	3714.49187362181
0.8673095703125	0.0670867919921875	3714.50072362179
0.871734619140625	0.06722412109375	3714.50957362176
0.87615966796875	0.0673553466796875	3714.51842362174
0.880584716796875	0.0674896240234375	3714.52727362172
0.885009765625	0.0676361083984375	3714.5361236217
0.889434814453125	0.0677886962890625	3714.54497362168
0.89385986328125	0.067926025390625	3714.55382362165
0.898284912109375	0.06806640625	3714.56267362163
0.9027099609375	0.06820068359375	3714.57152362161
0.907135009765625	0.068341064453125	3714.58037362159
0.91156005859375	0.06846923828125	3714.58922362156
0.915985107421875	0.0686126708984375	3714.59807362154
0.92041015625	0.0687530517578125	3714.60692362152
0.924835205078125	0.068890380859375	3714.6157736215
0.92926025390625	0.0690032958984375	3714.62462362147
0.933685302734375	0.069140625	3714.63347362145
0.9381103515625	0.0692840576171875	3714.64232362143
0.942535400390625	0.069415283203125	3714.65117362141
0.94696044921875	0.069549560546875	3714.66002362138
0.951385498046875	0.0696533203125	3714.66887362136
0.955810546875	0.069775390625	3714.67772362134
0.960235595703125	0.0698883056640625	3714.68657362132
0.96466064453125	0.0700164794921875	3714.6954236213
0.969085693359375	0.070123291015625	3714.70427362127
0.9735107421875	0.070233154296875	3714.71312362125
0.977935791015625	0.0703369140625	3714.72197362123
0.98236083984375	0.0704498291015625	3714.73082362121
0.986785888671875	0.070556640625	3714.73967362118
0.9912109375	0.070660400390625	3714.74852362116
0.995635986328125	0.0707733154296875	3714.75737362114
1.00006103515625	0.0708770751953125	3714.76622362112
0.995635986328125	0.06968994140625	3714.77507362109
0.9912109375	0.0685272216796875	3714.78392362107
0.986785888671875	0.067352294921875	3714.79277362105
0.98236083984375	0.0662353515625	3714.80162362103
0.977935791015625	0.065130615234375	3714.81047362101
0.9735107421875	0.0640380859375	3714.81932362098
0.969085693359375	0.0628997802734375	3714.82817362096
0.96466064453125	0.06181640625	3714.83702362094
0.960235595703125	0.06075439453125	3714.84587362092
0.955810546875	0.059661865234375	3714.85472362089
0.951385498046875	0.0586181640625	3714.86357362087
0.94696044921875	0.057568359375	3714.87242362085
0.942535400390625	0.0565460205078125	3714.88127362083
0.9381103515625	0.055535888671875	3714.8901236208
0.933685302734375	0.054534912109375	3714.89897362078
0.92926025390625	0.0535400390625	3714.90782362076
0.924835205078125	0.0525360107421875	3714.91667362074
0.92041015625	0.0515533447265625	3714.92552362071
0.915985107421875	0.0505859375	3714.93437362069
0.91156005859375	0.0496307373046875	3714.94322362067
0.907135009765625	0.0486846923828125	3714.95207362065
0.9027099609375	0.0477203369140625	3714.96092362063
0.898284912109375	0.0467926025390625	3714.9697736206
0.89385986328125	0.0458648681640625	3714.97862362058
0.889434814453125	0.04495849609375	3714.98747362056
0.885009765625	0.04404296875	3714.99632362054
0.880584716796875	0.0431243896484375	3715.00517362051
0.87615966796875	0.0422210693359375	3715.01402362049
0.871734619140625	0.04134521484375	3715.02287362047
0.8673095703125	0.0404632568359375	3715.03172362045
0.862884521484375	0.0396026611328125	3715.04057362042
0.85845947265625	0.038739013671875	3715.0494236204
0.854034423828125	0.0378814697265625	3715.05827362038
0.849609375	0.0370361328125	3715.06712362036
0.845184326171875	0.036187744140625	3715.07597362033
0.84075927734375	0.0353485107421875	3715.08482362031
0.836334228515625	0.0345306396484375	3715.09367362029
0.8319091796875	0.033709716796875	3715.10252362027
0.827484130859375	0.03289794921875	3715.11137362025
0.82305908203125	0.0321044921875	3715.12022362022
0.818634033203125	0.0312896728515625	3715.1290736202
0.814208984375	0.0305023193359375	3715.13792362018
0.809783935546875	0.029718017578125	3715.14677362016
0.80535888671875	0.028948974609375	3715.15562362013
0.800933837890625	0.0281768798828125	3715.16447362011
0.7965087890625	0.0274200439453125	3715.17332362009
0.792083740234375	0.0266571044921875	3715.18217362007
0.78765869140625	0.0259063720703125	3715.19102362004
0.783233642578125	0.025164794921875	3715.19987362002
0.77880859375	0.02442626953125	3715.20872362
0.774383544921875	0.0236907958984375	3715.21757361998
0.76995849609375	0.022967529296875	3715.22642361995
0.765533447265625	0.0222442626953125	3715.23527361993
0.7611083984375	0.0215301513671875	3715.24412361991
0.756683349609375	0.0208221435546875	3715.25297361989
0.75225830078125	0.020123291015625	3715.26182361987
0.747833251953125	0.0194244384765625	3715.27067361984
0.743408203125	0.0187255859375	3715.27952361982
0.738983154296875	0.0180450439453125	3715.2883736198
0.73455810546875	0.0173614501953125	3715.29722361978
0.730133056640625	0.0166839599609375	3715.30607361975
0.7257080078125	0.016009521484375	3715.31492361973
0.721282958984375	0.01534423828125	3715.32377361971
0.71685791015625	0.01468505859375	3715.33262361969
0.712432861328125	0.014031982421875	3715.34147361966
0.7080078125	0.01337890625	3715.35032361964
0.703582763671875	0.01273193359375	3715.35917361962
0.69915771484375	0.012091064453125	3715.3680236196
0.694732666015625	0.0114532470703125	3715.37687361958
0.6903076171875	0.0108245849609375	3715.38572361955
0.685882568359375	0.0101959228515625	3715.39457361953
0.68145751953125	0.0095733642578125	3715.40342361951
0.677032470703125	0.0089569091796875	3715.41227361949
0.672607421875	0.008343505859375	3715.42112361946
0.668182373046875	0.007733154296875	3715.42997361944
0.66375732421875	0.00712890625	3715.43882361942
0.659332275390625	0.0065277099609375	3715.4476736194
0.6549072265625	0.0059326171875	3715.45652361937
0.650482177734375	0.0053436279296875	3715.46537361935
0.64605712890625	0.0047564697265625	3715.47422361933
0.641632080078125	0.0041748046875	3715.48307361931
0.63720703125	0.0035968017578125	3715.49192361928
0.632781982421875	0.00302459716796875	3715.50077361926
0.62835693359375	0.00245635986328125	3715.50962361924
0.623931884765625	0.001884765625	3715.51847361922
0.6195068359375	0.0013226318359375	3715.5273236192
0.615081787109375	0.000765380859375	3715.53617361917
0.61065673828125	0.00021038818359375	3715.54502361915
0.606231689453125	-0.00033880615234375	3715.55387361913
0.601806640625	-0.0008843994140625	3715.56272361911
0.597381591796875	-0.00142486572265625	3715.57157361908
0.59295654296875	-0.00196319580078125	3715.58042361906
0.588531494140625	-0.00249725341796875	3715.58927361904
0.5841064453125	-0.003023681640625	3715.59812361902
0.579681396484375	-0.0035498046875	3715.60697361899
0.57525634765625	-0.00407318115234375	3715.61582361897
0.570831298828125	-0.00459259033203125	3715.62467361895
0.56640625	-0.0051080322265625	3715.63352361893
0.561981201171875	-0.0056195068359375	3715.6423736189
0.55755615234375	-0.00612579345703125	3715.65122361888
0.553131103515625	-0.0066009521484375	3715.66007361886
0.5487060546875	-0.0071014404296875	3715.66892361884
0.544281005859375	-0.0075958251953125	3715.67777361882
0.53985595703125	-0.0080841064453125	3715.68662361879
0.535430908203125	-0.0085723876953125	3715.69547361877
0.531005859375	-0.0090576171875	3715.70432361875
0.526580810546875	-0.0095367431640625	3715.71317361873
0.52215576171875	-0.010015869140625	3715.7220236187
0.517730712890625	-0.0104949951171875	3715.73087361868
0.5133056640625	-0.0109588623046875	3715.73972361866
0.508880615234375	-0.0114288330078125	3715.74857361864
0.50445556640625	-0.011895751953125	3715.75742361861
0.500030517578125	-0.012359619140625	3715.76627361859
0.49560546875	-0.0128173828125	3715.77512361857
0.491180419921875	-0.0132720947265625	3715.78397361855
0.48675537109375	-0.0137237548828125	3715.79282361852
0.482330322265625	-0.0141693115234375	3715.8016736185
0.4779052734375	-0.014617919921875	3715.81052361848
0.473480224609375	-0.015057373046875	3715.81937361846
0.46905517578125	-0.015496826171875	3715.82822361844
0.464630126953125	-0.01593017578125	3715.83707361841
0.460205078125	-0.0163665771484375	3715.84592361839
0.455780029296875	-0.016796875	3715.85477361837
0.45135498046875	-0.0172149658203125	3715.86362361835
0.446929931640625	-0.017645263671875	3715.87247361832
0.4425048828125	-0.01806640625	3715.8813236183
0.438079833984375	-0.018487548828125	3715.89017361828
0.43365478515625	-0.0189056396484375	3715.89902361826
0.429229736328125	-0.019317626953125	3715.90787361823
0.4248046875	-0.019732666015625	3715.91672361821
0.420379638671875	-0.0201416015625	3715.92557361819
0.41595458984375	-0.0205474853515625	3715.93442361817
0.411529541015625	-0.020953369140625	3715.94327361815
0.4071044921875	-0.021356201171875	3715.95212361812
0.402679443359375	-0.0217559814453125	3715.9609736181
0.39825439453125	-0.0221527099609375	3715.96982361808
0.393829345703125	-0.02254638671875	3715.97867361806
0.389404296875	-0.0229339599609375	3715.98752361803
0.384979248046875	-0.0233184814453125	3715.99637361801
0.38055419921875	-0.0237030029296875	3716.00522361799
0.376129150390625	-0.02408447265625	3716.01407361797
0.3717041015625	-0.024462890625	3716.02292361794
0.367279052734375	-0.02484130859375	3716.03177361792
0.36285400390625	-0.0252166748046875	3716.0406236179
0.358428955078125	-0.025592041015625	3716.04947361788
0.35400390625	-0.025970458984375	3716.05832361785
0.349578857421875	-0.026336669921875	3716.06717361783
0.34515380859375	-0.02669677734375	3716.07602361781
0.340728759765625	-0.0270660400390625	3716.08487361779
0.3363037109375	-0.0274322509765625	3716.09372361777
0.331878662109375	-0.0277862548828125	3716.10257361774
0.32745361328125	-0.028143310546875	3716.11142361772
0.323028564453125	-0.0285003662109375	3716.1202736177
0.318603515625	-0.0288543701171875	3716.12912361768
0.314178466796875	-0.0292083740234375	3716.13797361765
0.30975341796875	-0.0295623779296875	3716.14682361763
0.305328369140625	-0.0299072265625	3716.15567361761
0.3009033203125	-0.0302520751953125	3716.16452361759
0.296478271484375	-0.0305938720703125	3716.17337361756
0.29205322265625	-0.0309326171875	3716.18222361754
0.287628173828125	-0.0312652587890625	3716.19107361752
0.283203125	-0.031591796875	3716.1999236175
0.278778076171875	-0.031927490234375	3716.20877361747
0.27435302734375	-0.032257080078125	3716.21762361745
0.269927978515625	-0.0325927734375	3716.22647361743
0.2655029296875	-0.0329193115234375	3716.23532361741
0.261077880859375	-0.0332427978515625	3716.24417361739
0.25665283203125	-0.0335693359375	3716.25302361736
0.252227783203125	-0.0339019775390625	3716.26187361734
0.247802734375	-0.034234619140625	3716.27072361732
0.243377685546875	-0.034552001953125	3716.2795736173
0.23895263671875	-0.0348724365234375	3716.28842361727
0.234527587890625	-0.035186767578125	3716.29727361725
0.2301025390625	-0.035504150390625	3716.30612361723
0.225677490234375	-0.0358154296875	3716.31497361721
0.22125244140625	-0.036114501953125	3716.32382361718
0.216827392578125	-0.03642578125	3716.33267361716
0.21240234375	-0.036737060546875	3716.34152361714
0.207977294921875	-0.0370330810546875	3716.35037361712
0.20355224609375	-0.03734130859375	3716.35922361709
0.199127197265625	-0.0376434326171875	3716.36807361707
0.1947021484375	-0.0379425048828125	3716.37692361705
0.190277099609375	-0.0382476806640625	3716.38577361703
0.18585205078125	-0.038531494140625	3716.39462361701
0.181427001953125	-0.038818359375	3716.40347361698
0.177001953125	-0.039111328125	3716.41232361696
0.172576904296875	-0.0394195556640625	3716.42117361694
0.16815185546875	-0.03974609375	3716.43002361692
0.163726806640625	-0.040045166015625	3716.43887361689
0.1593017578125	-0.040338134765625	3716.44772361687
0.154876708984375	-0.0406158447265625	3716.45657361685
0.15045166015625	-0.040899658203125	3716.46542361683
0.146026611328125	-0.0411865234375	3716.4742736168
0.1416015625	-0.041473388671875	3716.48312361678
0.137176513671875	-0.0417633056640625	3716.49197361676
0.13275146484375	-0.0420440673828125	3716.50082361674
0.128326416015625	-0.042327880859375	3716.50967361672
0.1239013671875	-0.0426239013671875	3716.51852361669
0.119476318359375	-0.042913818359375	3716.52737361667
0.11505126953125	-0.0431884765625	3716.53622361665
0.110626220703125	-0.043475341796875	3716.54507361663
0.106201171875	-0.0437530517578125	3716.5539236166
0.101776123046875	-0.044036865234375	3716.56277361658
0.09735107421875	-0.0443145751953125	3716.57162361656
0.092926025390625	-0.0445831298828125	3716.58047361654
0.0885009765625	-0.044854736328125	3716.58932361651
0.084075927734375	-0.0451171875	3716.59817361649
0.07965087890625	-0.0453857421875	3716.60702361647
0.075225830078125	-0.045654296875	3716.61587361645
0.07080078125	-0.0459259033203125	3716.62472361642
0.066375732421875	-0.0461883544921875	3716.6335736164
0.06195068359375	-0.0464599609375	3716.64242361638
0.057525634765625	-0.0467315673828125	3716.65127361636
0.0531005859375	-0.046990966796875	3716.66012361634
0.048675537109375	-0.04725341796875	3716.66897361631
0.04425048828125	-0.047515869140625	3716.67782361629
0.039825439453125	-0.0477691650390625	3716.68667361627
0.035400390625	-0.0480377197265625	3716.69552361625
0.030975341796875	-0.0482940673828125	3716.70437361622
0.02655029296875	-0.0485443115234375	3716.7132236162
0.022125244140625	-0.0487884521484375	3716.72207361618
0.0177001953125	-0.0490386962890625	3716.73092361616
0.013275146484375	-0.0492919921875	3716.73977361613
0.00885009765625	-0.049542236328125	3716.74862361611
0.004425048828125	-0.0497955322265625	3716.75747361609
0	-0.0500457763671875	3716.76632361607
0.004425048828125	-0.048992919921875	3716.77517361604
0.00885009765625	-0.0479705810546875	3716.78402361602
0.013275146484375	-0.046954345703125	3716.792873616
0.0177001953125	-0.0459625244140625	3716.80172361598
0.022125244140625	-0.04498291015625	3716.81057361596
0.02655029296875	-0.0440093994140625	3716.81942361593
0.030975341796875	-0.0430694580078125	3716.82827361591
0.035400390625	-0.0421234130859375	3716.83712361589
0.039825439453125	-0.0411895751953125	3716.84597361587
0.04425048828125	-0.04027099609375	3716.85482361584
0.048675537109375	-0.0393585205078125	3716.86367361582
0.0531005859375	-0.0384552001953125	3716.8725236158
0.057525634765625	-0.037567138671875	3716.88137361578
0.06195068359375	-0.0366912841796875	3716.89022361575
0.066375732421875	-0.035821533203125	3716.89907361573
0.07080078125	-0.0349578857421875	3716.90792361571
0.075225830078125	-0.0341033935546875	3716.91677361569
0.07965087890625	-0.0332550048828125	3716.92562361566
0.084075927734375	-0.032421875	3716.93447361564
0.0885009765625	-0.0315887451171875	3716.94332361562
0.092926025390625	-0.0307647705078125	3716.9521736156
0.09735107421875	-0.0299530029296875	3716.96102361558
0.101776123046875	-0.029144287109375	3716.96987361555
0.106201171875	-0.0283447265625	3716.97872361553
0.110626220703125	-0.0275482177734375	3716.98757361551
0.11505126953125	-0.0267669677734375	3716.99642361549
0.119476318359375	-0.02598876953125	3717.00527361546
0.1239013671875	-0.0252166748046875	3717.01412361544
0.128326416015625	-0.02445068359375	3717.02297361542
0.13275146484375	-0.023687744140625	3717.0318236154
0.137176513671875	-0.0229339599609375	3717.04067361537
0.1416015625	-0.0221893310546875	3717.04952361535
0.146026611328125	-0.02144775390625	3717.05837361533
0.15045166015625	-0.0207122802734375	3717.06722361531
0.154876708984375	-0.0199859619140625	3717.07607361529
0.1593017578125	-0.0192626953125	3717.08492361526
0.163726806640625	-0.018548583984375	3717.09377361524
0.16815185546875	-0.0178375244140625	3717.10262361522
0.172576904296875	-0.0171356201171875	3717.1114736152
0.177001953125	-0.0164337158203125	3717.12032361517
0.181427001953125	-0.0157379150390625	3717.12917361515
0.18585205078125	-0.01505126953125	3717.13802361513
0.190277099609375	-0.0143707275390625	3717.14687361511
0.1947021484375	-0.0136932373046875	3717.15572361508
0.199127197265625	-0.0130218505859375	3717.16457361506
0.20355224609375	-0.0123565673828125	3717.17342361504
0.207977294921875	-0.0116912841796875	3717.18227361502
0.21240234375	-0.011029052734375	3717.19112361499
0.216827392578125	-0.0103790283203125	3717.19997361497
0.22125244140625	-0.0097320556640625	3717.20882361495
0.225677490234375	-0.009088134765625	3717.21767361493
0.2301025390625	-0.0084503173828125	3717.22652361491
0.234527587890625	-0.0078155517578125	3717.23537361488
0.23895263671875	-0.00718994140625	3717.24422361486
0.243377685546875	-0.0065643310546875	3717.25307361484
0.247802734375	-0.0059417724609375	3717.26192361482
0.252227783203125	-0.0053253173828125	3717.27077361479
0.25665283203125	-0.00471649169921875	3717.27962361477
0.261077880859375	-0.00410980224609375	3717.28847361475
0.2655029296875	-0.00350860595703125	3717.29732361473
0.269927978515625	-0.0029095458984375	3717.3061736147
0.27435302734375	-0.0023162841796875	3717.31502361468
0.278778076171875	-0.001734619140625	3717.32387361466
0.283203125	-0.0011474609375	3717.33272361464
0.287628173828125	-0.00056396484375	3717.34157361461
0.29205322265625	1.5386962890625E-05	3717.35042361459
0.296478271484375	0.00058990478515625	3717.35927361457
0.3009033203125	0.00116058349609375	3717.36812361455
0.305328369140625	0.00172760009765625	3717.37697361453
0.30975341796875	0.002291259765625	3717.3858236145
0.314178466796875	0.00285552978515625	3717.39467361448
0.318603515625	0.003411865234375	3717.40352361446
0.323028564453125	0.003963623046875	3717.41237361444
0.32745361328125	0.00451446533203125	3717.42122361441
0.331878662109375	0.00505828857421875	3717.43007361439
0.3363037109375	0.0055987548828125	3717.43892361437
0.340728759765625	0.006136474609375	3717.44777361435
0.34515380859375	0.0066558837890625	3717.45662361432
0.349578857421875	0.0071868896484375	3717.4654736143
0.35400390625	0.007708740234375	3717.47432361428
0.358428955078125	0.008233642578125	3717.48317361426
0.36285400390625	0.0087493896484375	3717.49202361423
0.367279052734375	0.0092681884765625	3717.50087361421
0.3717041015625	0.0097808837890625	3717.50972361419
0.376129150390625	0.01029052734375	3717.51857361417
0.38055419921875	0.010797119140625	3717.52742361415
0.384979248046875	0.0112945556640625	3717.53627361412
0.389404296875	0.0117950439453125	3717.5451236141
0.393829345703125	0.012286376953125	3717.55397361408
0.39825439453125	0.01278076171875	3717.56282361406
0.402679443359375	0.01326904296875	3717.57167361403
0.4071044921875	0.0137542724609375	3717.58052361401
0.411529541015625	0.0142303466796875	3717.58937361399
0.41595458984375	0.0147125244140625	3717.59822361397
0.420379638671875	0.015185546875	3717.60707361394
0.4248046875	0.015655517578125	3717.61592361392
0.429229736328125	0.01612548828125	3717.6247736139
0.43365478515625	0.01658935546875	3717.63362361388
0.438079833984375	0.01705322265625	3717.64247361386
0.4425048828125	0.017510986328125	3717.65132361383
0.446929931640625	0.01796875	3717.66017361381
0.45135498046875	0.01842041015625	3717.66902361379
0.455780029296875	0.0188751220703125	3717.67787361377
0.460205078125	0.01932373046875	3717.68672361374
0.464630126953125	0.019769287109375	3717.69557361372
0.46905517578125	0.0202056884765625	3717.7044236137
0.473480224609375	0.0206390380859375	3717.71327361368
0.4779052734375	0.0210723876953125	3717.72212361365
0.482330322265625	0.0214996337890625	3717.73097361363
0.48675537109375	0.0219207763671875	3717.73982361361
0.491180419921875	0.022344970703125	3717.74867361359
0.49560546875	0.02276611328125	3717.75752361356
0.500030517578125	0.0231842041015625	3717.76637361354
0.50445556640625	0.023590087890625	3717.77522361352
0.508880615234375	0.02401123046875	3717.7840736135
0.5133056640625	0.024432373046875	3717.79292361348
0.517730712890625	0.0248443603515625	3717.80177361345
0.52215576171875	0.0252532958984375	3717.81062361343
0.526580810546875	0.0256561279296875	3717.81947361341
0.531005859375	0.0260589599609375	3717.82832361339
0.535430908203125	0.0264556884765625	3717.83717361336
0.53985595703125	0.026849365234375	3717.84602361334
0.544281005859375	0.0272430419921875	3717.85487361332
0.5487060546875	0.027630615234375	3717.8637236133
0.553131103515625	0.02801513671875	3717.87257361327
0.55755615234375	0.0283843994140625	3717.88142361325
0.561981201171875	0.028765869140625	3717.89027361323
0.56640625	0.0291351318359375	3717.89912361321
0.570831298828125	0.029510498046875	3717.90797361318
0.57525634765625	0.029876708984375	3717.91682361316
0.579681396484375	0.0302490234375	3717.92567361314
0.5841064453125	0.030615234375	3717.93452361312
0.588531494140625	0.0309906005859375	3717.9433736131
0.59295654296875	0.0313751220703125	3717.95222361307
0.597381591796875	0.03173828125	3717.96107361305
0.601806640625	0.0320892333984375	3717.96992361303
0.606231689453125	0.0324310302734375	3717.97877361301
0.61065673828125	0.032769775390625	3717.98762361298
0.615081787109375	0.03310546875	3717.99647361296
0.6195068359375	0.0334716796875	3718.00532361294
0.623931884765625	0.0338226318359375	3718.01417361292
0.62835693359375	0.0341888427734375	3718.02302361289
0.632781982421875	0.0345458984375	3718.03187361287
0.63720703125	0.0348846435546875	3718.04072361285
0.641632080078125	0.0352203369140625	3718.04957361283
0.64605712890625	0.035552978515625	3718.0584236128
0.650482177734375	0.035882568359375	3718.06727361278
0.6549072265625	0.0362060546875	3718.07612361276
0.659332275390625	0.0365325927734375	3718.08497361274
0.66375732421875	0.03685302734375	3718.09382361272
0.668182373046875	0.03717041015625	3718.10267361269
0.672607421875	0.03748779296875	3718.11152361267
0.677032470703125	0.0378021240234375	3718.12037361265
0.68145751953125	0.0381195068359375	3718.12922361263
0.685882568359375	0.0384307861328125	3718.1380736126
0.6903076171875	0.03873291015625	3718.14692361258
0.694732666015625	0.0390411376953125	3718.15577361256
0.69915771484375	0.0393402099609375	3718.16462361254
0.703582763671875	0.039642333984375	3718.17347361251
0.7080078125	0.03994140625	3718.18232361249
0.712432861328125	0.0402374267578125	3718.19117361247
0.71685791015625	0.040533447265625	3718.20002361245
0.721282958984375	0.0408172607421875	3718.20887361243
0.7257080078125	0.0411102294921875	3718.2177236124
0.730133056640625	0.0413970947265625	3718.22657361238
0.73455810546875	0.0416778564453125	3718.23542361236
0.738983154296875	0.0419586181640625	3718.24427361234
0.743408203125	0.0422332763671875	3718.25312361231
0.747833251953125	0.0425140380859375	3718.26197361229
0.75225830078125	0.0427825927734375	3718.27082361227
0.756683349609375	0.0430572509765625	3718.27967361225
0.7611083984375	0.0433258056640625	3718.28852361222
0.765533447265625	0.0436004638671875	3718.2973736122
0.76995849609375	0.0438629150390625	3718.30622361218
0.774383544921875	0.0441253662109375	3718.31507361216
0.77880859375	0.0443878173828125	3718.32392361213
0.783233642578125	0.0446441650390625	3718.33277361211
0.78765869140625	0.044903564453125	3718.34162361209
0.792083740234375	0.04515380859375	3718.35047361207
0.7965087890625	0.0454071044921875	3718.35932361205
0.800933837890625	0.0456634521484375	3718.36817361202
0.80535888671875	0.0459136962890625	3718.377023612
0.809783935546875	0.0461700439453125	3718.38587361198
0.814208984375	0.0464141845703125	3718.39472361196
0.818634033203125	0.0466552734375	3718.40357361193
0.82305908203125	0.0468994140625	3718.41242361191
0.827484130859375	0.0471343994140625	3718.42127361189
0.8319091796875	0.0473724365234375	3718.43012361187
0.836334228515625	0.0476165771484375	3718.43897361184
0.84075927734375	0.047845458984375	3718.44782361182
0.845184326171875	0.048077392578125	3718.4566736118
0.849609375	0.0483123779296875	3718.46552361178
0.854034423828125	0.0485382080078125	3718.47437361175
0.85845947265625	0.048773193359375	3718.48322361173
0.862884521484375	0.0489959716796875	3718.49207361171
0.8673095703125	0.0492218017578125	3718.50092361169
0.871734619140625	0.049444580078125	3718.50977361167
0.87615966796875	0.0496612548828125	3718.51862361164
0.880584716796875	0.0498779296875	3718.52747361162
0.885009765625	0.050091552734375	3718.5363236116
0.889434814453125	0.050311279296875	3718.54517361158
0.89385986328125	0.050518798828125	3718.55402361155
0.898284912109375	0.0507354736328125	3718.56287361153
0.9027099609375	0.050946044921875	3718.57172361151
0.907135009765625	0.051153564453125	3718.58057361149
0.91156005859375	0.0513671875	3718.58942361146
0.915985107421875	0.051568603515625	3718.59827361144
0.92041015625	0.0517669677734375	3718.60712361142
0.924835205078125	0.0519683837890625	3718.6159736114
0.92926025390625	0.052166748046875	3718.62482361137
0.933685302734375	0.0523681640625	3718.63367361135
0.9381103515625	0.052569580078125	3718.64252361133
0.942535400390625	0.0527679443359375	3718.65137361131
0.94696044921875	0.05296630859375	3718.66022361129
0.951385498046875	0.0531585693359375	3718.66907361126
0.955810546875	0.0533477783203125	3718.67792361124
0.960235595703125	0.0535369873046875	3718.68677361122
0.96466064453125	0.0537322998046875	3718.6956236112
0.969085693359375	0.0539215087890625	3718.70447361117
0.9735107421875	0.0541107177734375	3718.71332361115
0.977935791015625	0.0542877197265625	3718.72217361113
0.98236083984375	0.054473876953125	3718.73102361111
0.986785888671875	0.0546600341796875	3718.73987361108
0.9912109375	0.05484619140625	3718.74872361106
0.995635986328125	0.055047607421875	3718.75757361104
1.00006103515625	0.055224609375	3718.76642361102
0.995635986328125	0.054107666015625	3718.775273611
0.9912109375	0.0530120849609375	3718.78412361097
0.986785888671875	0.0519439697265625	3718.79297361095
0.98236083984375	0.050885009765625	3718.80182361093
0.977935791015625	0.0498443603515625	3718.81067361091
0.9735107421875	0.0488189697265625	3718.81952361088
0.969085693359375	0.0478057861328125	3718.82837361086
0.96466064453125	0.046807861328125	3718.83722361084
0.960235595703125	0.045819091796875	3718.84607361082
0.955810546875	0.0448516845703125	3718.85492361079
0.951385498046875	0.0438934326171875	3718.86377361077
0.94696044921875	0.0429412841796875	3718.87262361075
0.942535400390625	0.041998291015625	3718.88147361073
0.9381103515625	0.041064453125	3718.8903236107
0.933685302734375	0.040142822265625	3718.89917361068
0.92926025390625	0.0392333984375	3718.90802361066
0.924835205078125	0.0383453369140625	3718.91687361064
0.92041015625	0.0374481201171875	3718.92572361062
0.915985107421875	0.036572265625	3718.93457361059
0.91156005859375	0.0357025146484375	3718.94342361057
0.907135009765625	0.034844970703125	3718.95227361055
0.9027099609375	0.0339935302734375	3718.96112361053
0.898284912109375	0.0331451416015625	3718.9699736105
0.89385986328125	0.03231201171875	3718.97882361048
0.889434814453125	0.0314788818359375	3718.98767361046
0.885009765625	0.0306610107421875	3718.99652361044
0.880584716796875	0.0298492431640625	3719.00537361041
0.87615966796875	0.029046630859375	3719.01422361039
0.871734619140625	0.0282440185546875	3719.02307361037
0.8673095703125	0.027459716796875	3719.03192361035
0.862884521484375	0.0266815185546875	3719.04077361032
0.85845947265625	0.025909423828125	3719.0496236103
0.854034423828125	0.0251434326171875	3719.05847361028
0.849609375	0.0243804931640625	3719.06732361026
0.845184326171875	0.023626708984375	3719.07617361024
0.84075927734375	0.0228851318359375	3719.08502361021
0.836334228515625	0.0221466064453125	3719.09387361019
0.8319091796875	0.021417236328125	3719.10272361017
0.827484130859375	0.0206878662109375	3719.11157361015
0.82305908203125	0.019970703125	3719.12042361012
0.818634033203125	0.019256591796875	3719.1292736101
0.814208984375	0.018548583984375	3719.13812361008
0.809783935546875	0.0178436279296875	3719.14697361006
0.80535888671875	0.0171539306640625	3719.15582361003
0.800933837890625	0.0164581298828125	3719.16467361001
0.7965087890625	0.0157745361328125	3719.17352360999
0.792083740234375	0.015093994140625	3719.18237360997
0.78765869140625	0.014422607421875	3719.19122360994
0.783233642578125	0.01375732421875	3719.20007360992
0.77880859375	0.0130950927734375	3719.2089236099
0.774383544921875	0.01243896484375	3719.21777360988
0.76995849609375	0.011785888671875	3719.22662360986
0.765533447265625	0.011138916015625	3719.23547360983
0.7611083984375	0.010504150390625	3719.24432360981
0.756683349609375	0.009869384765625	3719.25317360979
0.75225830078125	0.00924072265625	3719.26202360977
0.747833251953125	0.0086151123046875	3719.27087360974
0.743408203125	0.0079925537109375	3719.27972360972
0.738983154296875	0.00738525390625	3719.2885736097
0.73455810546875	0.00677490234375	3719.29742360968
0.730133056640625	0.006170654296875	3719.30627360965
0.7257080078125	0.00556640625	3719.31512360963
0.721282958984375	0.004971923828125	3719.32397360961
0.71685791015625	0.00438079833984375	3719.33282360959
0.712432861328125	0.003795166015625	3719.34167360957
0.7080078125	0.0032122802734375	3719.35052360954
0.703582763671875	0.00263519287109375	3719.35937360952
0.69915771484375	0.002064208984375	3719.3682236095
0.694732666015625	0.0014935302734375	3719.37707360948
0.6903076171875	0.0009283447265625	3719.38592360945
0.685882568359375	0.000366729736328125	3719.39477360943
0.68145751953125	-0.000190673828125	3719.40362360941
0.677032470703125	-0.0007427978515625	3719.41247360939
0.672607421875	-0.0012908935546875	3719.42132360936
0.668182373046875	-0.001834716796875	3719.43017360934
0.66375732421875	-0.00237548828125	3719.43902360932
0.659332275390625	-0.00291229248046875	3719.4478736093
0.6549072265625	-0.00344451904296875	3719.45672360927
0.650482177734375	-0.0039727783203125	3719.46557360925
0.64605712890625	-0.00449798583984375	3719.47442360923
0.641632080078125	-0.00501739501953125	3719.48327360921
0.63720703125	-0.005533447265625	3719.49212360919
0.632781982421875	-0.00604583740234375	3719.50097360916
0.62835693359375	-0.0065277099609375	3719.50982360914
0.623931884765625	-0.007037353515625	3719.51867360912
0.6195068359375	-0.007537841796875	3719.5275236091
0.615081787109375	-0.0080322265625	3719.53637360907
0.61065673828125	-0.0085235595703125	3719.54522360905
0.606231689453125	-0.0090118408203125	3719.55407360903
0.601806640625	-0.0094940185546875	3719.56292360901
0.597381591796875	-0.009979248046875	3719.57177360898
0.59295654296875	-0.010455322265625	3719.58062360896
0.588531494140625	-0.010931396484375	3719.58947360894
0.5841064453125	-0.0113983154296875	3719.59832360892
0.579681396484375	-0.0118621826171875	3719.60717360889
0.57525634765625	-0.0123291015625	3719.61602360887
0.570831298828125	-0.012786865234375	3719.62487360885
0.56640625	-0.01324462890625	3719.63372360883
0.561981201171875	-0.0136962890625	3719.64257360881
0.55755615234375	-0.0141448974609375	3719.65142360878
0.553131103515625	-0.014593505859375	3719.66027360876
0.5487060546875	-0.015032958984375	3719.66912360874
0.544281005859375	-0.015472412109375	3719.67797360872
0.53985595703125	-0.015911865234375	3719.68682360869
0.535430908203125	-0.01634521484375	3719.69567360867
0.531005859375	-0.016778564453125	3719.70452360865
0.526580810546875	-0.0172027587890625	3719.71337360863
0.52215576171875	-0.017633056640625	3719.7222236086
0.517730712890625	-0.01805419921875	3719.73107360858
0.5133056640625	-0.0184783935546875	3719.73992360856
0.508880615234375	-0.018890380859375	3719.74877360854
0.50445556640625	-0.0193084716796875	3719.75762360851
0.500030517578125	-0.01971435546875	3719.76647360849
0.49560546875	-0.020123291015625	3719.77532360847
0.491180419921875	-0.0205291748046875	3719.78417360845
0.48675537109375	-0.020928955078125	3719.79302360843
0.482330322265625	-0.021331787109375	3719.8018736084
0.4779052734375	-0.0217315673828125	3719.81072360838
0.473480224609375	-0.0221221923828125	3719.81957360836
0.46905517578125	-0.0225128173828125	3719.82842360834
0.464630126953125	-0.0228973388671875	3719.83727360831
0.460205078125	-0.023284912109375	3719.84612360829
0.455780029296875	-0.0236663818359375	3719.85497360827
0.45135498046875	-0.0240478515625	3719.86382360825
0.446929931640625	-0.024420166015625	3719.87267360822
0.4425048828125	-0.0248016357421875	3719.8815236082
0.438079833984375	-0.0251678466796875	3719.89037360818
0.43365478515625	-0.0255401611328125	3719.89922360816
0.429229736328125	-0.0259063720703125	3719.90807360814
0.4248046875	-0.02626953125	3719.91692360811
0.420379638671875	-0.026629638671875	3719.92577360809
0.41595458984375	-0.0269927978515625	3719.93462360807
0.411529541015625	-0.027349853515625	3719.94347360805
0.4071044921875	-0.0277008056640625	3719.95232360802
0.402679443359375	-0.0280548095703125	3719.961173608
0.39825439453125	-0.0284027099609375	3719.97002360798
0.393829345703125	-0.0287506103515625	3719.97887360796
0.389404296875	-0.0290985107421875	3719.98772360793
0.384979248046875	-0.029437255859375	3719.99657360791
0.38055419921875	-0.0297760009765625	3720.00542360789
0.376129150390625	-0.0301116943359375	3720.01427360787
0.3717041015625	-0.0304412841796875	3720.02312360784
0.367279052734375	-0.030767822265625	3720.03197360782
0.36285400390625	-0.031109619140625	3720.0408236078
0.358428955078125	-0.03145751953125	3720.04967360778
0.35400390625	-0.031787109375	3720.05852360775
0.349578857421875	-0.03211669921875	3720.06737360773
0.34515380859375	-0.0324371337890625	3720.07622360771
0.340728759765625	-0.032763671875	3720.08507360769
0.3363037109375	-0.0330841064453125	3720.09392360767
0.331878662109375	-0.0334014892578125	3720.10277360764
0.32745361328125	-0.0337158203125	3720.11162360762
0.323028564453125	-0.0340301513671875	3720.1204736076
0.318603515625	-0.0343475341796875	3720.12932360758
0.314178466796875	-0.0346527099609375	3720.13817360755
0.30975341796875	-0.0349609375	3720.14702360753
0.305328369140625	-0.035247802734375	3720.15587360751
0.3009033203125	-0.0355377197265625	3720.16472360749
0.296478271484375	-0.0358306884765625	3720.17357360746
0.29205322265625	-0.0361297607421875	3720.18242360744
0.287628173828125	-0.0364593505859375	3720.19127360742
0.283203125	-0.03677978515625	3720.2001236074
0.278778076171875	-0.0370697021484375	3720.20897360738
0.27435302734375	-0.0373626708984375	3720.21782360735
0.269927978515625	-0.0376495361328125	3720.22667360733
0.2655029296875	-0.0379425048828125	3720.23552360731
0.261077880859375	-0.0382293701171875	3720.24437360729
0.25665283203125	-0.038519287109375	3720.25322360726
0.252227783203125	-0.038812255859375	3720.26207360724
0.247802734375	-0.0390960693359375	3720.27092360722
0.243377685546875	-0.0393829345703125	3720.2797736072
0.23895263671875	-0.0396697998046875	3720.28862360717
0.234527587890625	-0.03995361328125	3720.29747360715
0.2301025390625	-0.0402435302734375	3720.30632360713
0.225677490234375	-0.0405242919921875	3720.31517360711
0.22125244140625	-0.0408111572265625	3720.32402360708
0.216827392578125	-0.041094970703125	3720.33287360706
0.21240234375	-0.0413726806640625	3720.34172360704
0.207977294921875	-0.0416534423828125	3720.35057360702
0.20355224609375	-0.04193115234375	3720.359423607
0.199127197265625	-0.04219970703125	3720.36827360697
0.1947021484375	-0.0424713134765625	3720.37712360695
0.190277099609375	-0.0427337646484375	3720.38597360693
0.18585205078125	-0.04300537109375	3720.39482360691
0.181427001953125	-0.04327392578125	3720.40367360688
0.177001953125	-0.0435394287109375	3720.41252360686
0.172576904296875	-0.0438018798828125	3720.42137360684
0.16815185546875	-0.0440673828125	3720.43022360682
0.163726806640625	-0.0443328857421875	3720.43907360679
0.1593017578125	-0.0445892333984375	3720.44792360677
0.154876708984375	-0.0448455810546875	3720.45677360675
0.15045166015625	-0.045098876953125	3720.46562360673
0.146026611328125	-0.045355224609375	3720.47447360671
0.1416015625	-0.045611572265625	3720.48332360668
0.137176513671875	-0.0458709716796875	3720.49217360666
0.13275146484375	-0.0461212158203125	3720.50102360664
0.128326416015625	-0.0463714599609375	3720.50987360662
0.1239013671875	-0.0466217041015625	3720.51872360659
0.119476318359375	-0.046875	3720.52757360657
0.11505126953125	-0.0471282958984375	3720.53642360655
0.110626220703125	-0.04737548828125	3720.54527360653
0.106201171875	-0.047625732421875	3720.5541236065
0.101776123046875	-0.0478729248046875	3720.56297360648
0.09735107421875	-0.048126220703125	3720.57182360646
0.092926025390625	-0.048370361328125	3720.58067360644
0.0885009765625	-0.048614501953125	3720.58952360641
0.084075927734375	-0.0488555908203125	3720.59837360639
0.07965087890625	-0.0490997314453125	3720.60722360637
0.075225830078125	-0.0493316650390625	3720.61607360635
0.07080078125	-0.049566650390625	3720.62492360632
0.066375732421875	-0.0498046875	3720.6337736063
0.06195068359375	-0.0500457763671875	3720.64262360628
0.057525634765625	-0.05028076171875	3720.65147360626
0.0531005859375	-0.0505157470703125	3720.66032360624
0.048675537109375	-0.050750732421875	3720.66917360621
0.04425048828125	-0.0509857177734375	3720.67802360619
0.039825439453125	-0.051220703125	3720.68687360617
0.035400390625	-0.0514617919921875	3720.69572360615
0.030975341796875	-0.0516937255859375	3720.70457360612
0.02655029296875	-0.0519195556640625	3720.7134236061
0.022125244140625	-0.0521514892578125	3720.72227360608
0.0177001953125	-0.0523834228515625	3720.73112360606
0.013275146484375	-0.0526123046875	3720.73997360603
0.00885009765625	-0.052838134765625	3720.74882360601
0.004425048828125	-0.0530731201171875	3720.75767360599
0	-0.0532989501953125	3720.76652360597
0.004425048828125	-0.0522369384765625	3720.77537360595
0.00885009765625	-0.051177978515625	3720.78422360592
0.013275146484375	-0.0501434326171875	3720.7930736059
0.0177001953125	-0.049127197265625	3720.80192360588
0.022125244140625	-0.0481201171875	3720.81077360586
0.02655029296875	-0.0471221923828125	3720.81962360583
0.030975341796875	-0.0461456298828125	3720.82847360581
0.035400390625	-0.0451873779296875	3720.83732360579
0.039825439453125	-0.0442291259765625	3720.84617360577
0.04425048828125	-0.0432861328125	3720.85502360574
0.048675537109375	-0.0423583984375	3720.86387360572
0.0531005859375	-0.041436767578125	3720.8727236057
0.057525634765625	-0.04052734375	3720.88157360568
0.06195068359375	-0.0396270751953125	3720.89042360565
0.066375732421875	-0.038739013671875	3720.89927360563
0.07080078125	-0.03785400390625	3720.90812360561
0.075225830078125	-0.0369781494140625	3720.91697360559
0.07965087890625	-0.0361083984375	3720.92582360557
0.084075927734375	-0.0352569580078125	3720.93467360554
0.0885009765625	-0.0344085693359375	3720.94352360552
0.092926025390625	-0.0335693359375	3720.9523736055
0.09735107421875	-0.0327392578125	3720.96122360548
0.101776123046875	-0.0319122314453125	3720.97007360545
0.106201171875	-0.03109130859375	3720.97892360543
0.110626220703125	-0.0302764892578125	3720.98777360541
0.11505126953125	-0.029473876953125	3720.99662360539
0.119476318359375	-0.0286834716796875	3721.00547360536
0.1239013671875	-0.0278961181640625	3721.01432360534
0.128326416015625	-0.02711181640625	3721.02317360532
0.13275146484375	-0.0263397216796875	3721.0320236053
0.137176513671875	-0.0255706787109375	3721.04087360528
0.1416015625	-0.024810791015625	3721.04972360525
0.146026611328125	-0.0240509033203125	3721.05857360523
0.15045166015625	-0.02330322265625	3721.06742360521
0.154876708984375	-0.02255859375	3721.07627360519
0.1593017578125	-0.0218231201171875	3721.08512360516
0.163726806640625	-0.0210906982421875	3721.09397360514
0.16815185546875	-0.020367431640625	3721.10282360512
0.172576904296875	-0.019647216796875	3721.1116736051
0.177001953125	-0.0189361572265625	3721.12052360507
0.181427001953125	-0.01822509765625	3721.12937360505
0.18585205078125	-0.017523193359375	3721.13822360503
0.190277099609375	-0.016827392578125	3721.14707360501
0.1947021484375	-0.0161346435546875	3721.15592360498
0.199127197265625	-0.0154510498046875	3721.16477360496
0.20355224609375	-0.0147705078125	3721.17362360494
0.207977294921875	-0.014093017578125	3721.18247360492
0.21240234375	-0.0134246826171875	3721.19132360489
0.216827392578125	-0.0127593994140625	3721.20017360487
0.22125244140625	-0.01209716796875	3721.20902360485
0.225677490234375	-0.0114410400390625	3721.21787360483
0.2301025390625	-0.010791015625	3721.22672360481
0.234527587890625	-0.0101470947265625	3721.23557360478
0.23895263671875	-0.009503173828125	3721.24442360476
0.243377685546875	-0.008868408203125	3721.25327360474
0.247802734375	-0.0082366943359375	3721.26212360472
0.252227783203125	-0.0076080322265625	3721.27097360469
0.25665283203125	-0.0069854736328125	3721.27982360467
0.261077880859375	-0.006365966796875	3721.28867360465
0.2655029296875	-0.0057525634765625	3721.29752360463
0.269927978515625	-0.0051422119140625	3721.3063736046
0.27435302734375	-0.0045391845703125	3721.31522360458
0.278778076171875	-0.0039385986328125	3721.32407360456
0.283203125	-0.00334228515625	3721.33292360454
0.287628173828125	-0.00274932861328125	3721.34177360452
0.29205322265625	-0.00216094970703125	3721.35062360449
0.296478271484375	-0.00158416748046875	3721.35947360447
0.3009033203125	-0.0010028076171875	3721.36832360445
0.305328369140625	-0.00042498779296875	3721.37717360443
0.30975341796875	0.000148223876953125	3721.3860236044
0.314178466796875	0.00072174072265625	3721.39487360438
0.318603515625	0.00128753662109375	3721.40372360436
0.323028564453125	0.00184906005859375	3721.41257360434
0.32745361328125	0.0024066162109375	3721.42142360431
0.331878662109375	0.0029620361328125	3721.43027360429
0.3363037109375	0.00351470947265625	3721.43912360427
0.340728759765625	0.004061279296875	3721.44797360425
0.34515380859375	0.00460540771484375	3721.45682360422
0.349578857421875	0.005146484375	3721.4656736042
0.35400390625	0.0056781005859375	3721.47452360418
0.358428955078125	0.0062091064453125	3721.48337360416
0.36285400390625	0.0067230224609375	3721.49222360414
0.367279052734375	0.0072509765625	3721.50107360411
0.3717041015625	0.0077728271484375	3721.50992360409
0.376129150390625	0.0082916259765625	3721.51877360407
0.38055419921875	0.0088043212890625	3721.52762360405
0.384979248046875	0.0093170166015625	3721.53647360402
0.389404296875	0.0098236083984375	3721.545323604
0.393829345703125	0.0103240966796875	3721.55417360398
0.39825439453125	0.01082763671875	3721.56302360396
0.402679443359375	0.011322021484375	3721.57187360393
0.4071044921875	0.0118133544921875	3721.58072360391
0.411529541015625	0.0123016357421875	3721.58957360389
0.41595458984375	0.0127899169921875	3721.59842360387
0.420379638671875	0.0132720947265625	3721.60727360384
0.4248046875	0.013751220703125	3721.61612360382
0.429229736328125	0.0142242431640625	3721.6249736038
0.43365478515625	0.014703369140625	3721.63382360378
0.438079833984375	0.01517333984375	3721.64267360376
0.4425048828125	0.01563720703125	3721.65152360373
0.446929931640625	0.01610107421875	3721.66037360371
0.45135498046875	0.0165618896484375	3721.66922360369
0.455780029296875	0.0170196533203125	3721.67807360367
0.460205078125	0.01746826171875	3721.68692360364
0.464630126953125	0.0179168701171875	3721.69577360362
0.46905517578125	0.0183624267578125	3721.7046236036
0.473480224609375	0.018804931640625	3721.71347360358
0.4779052734375	0.0192474365234375	3721.72232360355
0.482330322265625	0.019696044921875	3721.73117360353
0.48675537109375	0.0201416015625	3721.74002360351
0.491180419921875	0.020574951171875	3721.74887360349
0.49560546875	0.0210113525390625	3721.75772360346
0.500030517578125	0.021441650390625	3721.76657360344
0.50445556640625	0.02186279296875	3721.77542360342
0.508880615234375	0.022283935546875	3721.7842736034
0.5133056640625	0.0226959228515625	3721.79312360338
0.517730712890625	0.023114013671875	3721.80197360335
0.52215576171875	0.0235198974609375	3721.81082360333
0.526580810546875	0.0239288330078125	3721.81967360331
0.531005859375	0.0243316650390625	3721.82852360329
0.535430908203125	0.0247344970703125	3721.83737360326
0.53985595703125	0.0251312255859375	3721.84622360324
0.544281005859375	0.0255279541015625	3721.85507360322
0.5487060546875	0.02591552734375	3721.8639236032
0.553131103515625	0.02630615234375	3721.87277360317
0.55755615234375	0.0266937255859375	3721.88162360315
0.561981201171875	0.027081298828125	3721.89047360313
0.56640625	0.0274688720703125	3721.89932360311
0.570831298828125	0.0278533935546875	3721.90817360309
0.57525634765625	0.02823486328125	3721.91702360306
0.579681396484375	0.02861328125	3721.92587360304
0.5841064453125	0.0289886474609375	3721.93472360302
0.588531494140625	0.0293609619140625	3721.943573603
0.59295654296875	0.02972412109375	3721.95242360297
0.597381591796875	0.0300872802734375	3721.96127360295
0.601806640625	0.030450439453125	3721.97012360293
0.606231689453125	0.0308074951171875	3721.97897360291
0.61065673828125	0.03116455078125	3721.98782360288
0.615081787109375	0.031512451171875	3721.99667360286
0.6195068359375	0.0318603515625	3722.00552360284
0.623931884765625	0.0321990966796875	3722.01437360282
0.62835693359375	0.0325531005859375	3722.02322360279
0.632781982421875	0.0328887939453125	3722.03207360277
0.63720703125	0.033233642578125	3722.04092360275
0.641632080078125	0.0335784912109375	3722.04977360273
0.64605712890625	0.0339385986328125	3722.05862360271
0.650482177734375	0.034283447265625	3722.06747360268
0.6549072265625	0.034613037109375	3722.07632360266
0.659332275390625	0.034930419921875	3722.08517360264
0.66375732421875	0.03524169921875	3722.09402360262
0.668182373046875	0.0355499267578125	3722.10287360259
0.672607421875	0.03587646484375	3722.11172360257
0.677032470703125	0.0362060546875	3722.12057360255
0.68145751953125	0.036541748046875	3722.12942360253
0.685882568359375	0.0368804931640625	3722.1382736025
0.6903076171875	0.0372039794921875	3722.14712360248
0.694732666015625	0.0375152587890625	3722.15597360246
0.69915771484375	0.037823486328125	3722.16482360244
0.703582763671875	0.0381256103515625	3722.17367360241
0.7080078125	0.038433837890625	3722.18252360239
0.712432861328125	0.03873291015625	3722.19137360237
0.71685791015625	0.0390350341796875	3722.20022360235
0.721282958984375	0.0393218994140625	3722.20907360233
0.7257080078125	0.0396148681640625	3722.2179236023
0.730133056640625	0.0399078369140625	3722.22677360228
0.73455810546875	0.0402008056640625	3722.23562360226
0.738983154296875	0.04049072265625	3722.24447360224
0.743408203125	0.0407684326171875	3722.25332360221
0.747833251953125	0.041046142578125	3722.26217360219
0.75225830078125	0.0413299560546875	3722.27102360217
0.756683349609375	0.04161376953125	3722.27987360215
0.7611083984375	0.041888427734375	3722.28872360212
0.765533447265625	0.042156982421875	3722.2975736021
0.76995849609375	0.042425537109375	3722.30642360208
0.774383544921875	0.0426971435546875	3722.31527360206
0.77880859375	0.04296875	3722.32412360203
0.783233642578125	0.043231201171875	3722.33297360201
0.78765869140625	0.0434967041015625	3722.34182360199
0.792083740234375	0.04375	3722.35067360197
0.7965087890625	0.0440185546875	3722.35952360195
0.800933837890625	0.0442718505859375	3722.36837360192
0.80535888671875	0.044525146484375	3722.3772236019
0.809783935546875	0.044769287109375	3722.38607360188
0.814208984375	0.0450225830078125	3722.39492360186
0.818634033203125	0.045269775390625	3722.40377360183
0.82305908203125	0.045513916015625	3722.41262360181
0.827484130859375	0.0457611083984375	3722.42147360179
0.8319091796875	0.04600830078125	3722.43032360177
0.836334228515625	0.0462432861328125	3722.43917360174
0.84075927734375	0.0464813232421875	3722.44802360172
0.845184326171875	0.0467132568359375	3722.4568736017
0.849609375	0.0469451904296875	3722.46572360168
0.854034423828125	0.0471832275390625	3722.47457360166
0.85845947265625	0.047406005859375	3722.48342360163
0.862884521484375	0.0476287841796875	3722.49227360161
0.8673095703125	0.0478546142578125	3722.50112360159
0.871734619140625	0.048089599609375	3722.50997360157
0.87615966796875	0.0483123779296875	3722.51882360154
0.880584716796875	0.0485260009765625	3722.52767360152
0.885009765625	0.0487457275390625	3722.5365236015
0.889434814453125	0.048968505859375	3722.54537360148
0.89385986328125	0.049188232421875	3722.55422360145
0.898284912109375	0.04940185546875	3722.56307360143
0.9027099609375	0.0496185302734375	3722.57192360141
0.907135009765625	0.049835205078125	3722.58077360139
0.91156005859375	0.05003662109375	3722.58962360136
0.915985107421875	0.0502410888671875	3722.59847360134
0.92041015625	0.0504547119140625	3722.60732360132
0.924835205078125	0.0506561279296875	3722.6161736013
0.92926025390625	0.0508636474609375	3722.62502360128
0.933685302734375	0.05106201171875	3722.63387360125
0.9381103515625	0.05126953125	3722.64272360123
0.942535400390625	0.051470947265625	3722.65157360121
0.94696044921875	0.051666259765625	3722.66042360119
0.951385498046875	0.0518585205078125	3722.66927360116
0.955810546875	0.052056884765625	3722.67812360114
0.960235595703125	0.0522552490234375	3722.68697360112
0.96466064453125	0.0524444580078125	3722.6958236011
0.969085693359375	0.05263671875	3722.70467360107
0.9735107421875	0.0528289794921875	3722.71352360105
0.977935791015625	0.0530181884765625	3722.72237360103
0.98236083984375	0.0532012939453125	3722.73122360101
0.986785888671875	0.0533905029296875	3722.74007360098
0.9912109375	0.053570556640625	3722.74892360096
0.995635986328125	0.053759765625	3722.75777360094
1.00006103515625	0.0539398193359375	3722.76662360092
0.995635986328125	0.05281982421875	3722.7754736009
0.9912109375	0.0517242431640625	3722.78432360087
0.986785888671875	0.0506591796875	3722.79317360085
0.98236083984375	0.049603271484375	3722.80202360083
0.977935791015625	0.0485565185546875	3722.81087360081
0.9735107421875	0.047540283203125	3722.81972360078
0.969085693359375	0.0465301513671875	3722.82857360076
0.96466064453125	0.0455352783203125	3722.83742360074
0.960235595703125	0.044549560546875	3722.84627360072
0.955810546875	0.0435791015625	3722.85512360069
0.951385498046875	0.0426177978515625	3722.86397360067
0.94696044921875	0.0416717529296875	3722.87282360065
0.942535400390625	0.040728759765625	3722.88167360063
0.9381103515625	0.0397979736328125	3722.8905236006
0.933685302734375	0.0388824462890625	3722.89937360058
0.92926025390625	0.03797607421875	3722.90822360056
0.924835205078125	0.037078857421875	3722.91707360054
0.92041015625	0.036187744140625	3722.92592360052
0.915985107421875	0.035308837890625	3722.93477360049
0.91156005859375	0.0344390869140625	3722.94362360047
0.907135009765625	0.033575439453125	3722.95247360045
0.9027099609375	0.0327239990234375	3722.96132360043
0.898284912109375	0.031884765625	3722.9701736004
0.89385986328125	0.0310516357421875	3722.97902360038
0.889434814453125	0.030224609375	3722.98787360036
0.885009765625	0.0294097900390625	3722.99672360034
0.880584716796875	0.028594970703125	3723.00557360031
0.87615966796875	0.0277923583984375	3723.01442360029
0.871734619140625	0.0270050048828125	3723.02327360027
0.8673095703125	0.0262176513671875	3723.03212360025
0.862884521484375	0.025433349609375	3723.04097360023
0.85845947265625	0.0246673583984375	3723.0498236002
0.854034423828125	0.0238983154296875	3723.05867360018
0.849609375	0.0231475830078125	3723.06752360016
0.845184326171875	0.02239990234375	3723.07637360014
0.84075927734375	0.0216552734375	3723.08522360011
0.836334228515625	0.020916748046875	3723.09407360009
0.8319091796875	0.0201873779296875	3723.10292360007
0.827484130859375	0.0194671630859375	3723.11177360005
0.82305908203125	0.0187469482421875	3723.12062360002
0.818634033203125	0.018035888671875	3723.1294736
0.814208984375	0.017327880859375	3723.13832359998
0.809783935546875	0.0166351318359375	3723.14717359996
0.80535888671875	0.0159423828125	3723.15602359993
0.800933837890625	0.015252685546875	3723.16487359991
0.7965087890625	0.0145751953125	3723.17372359989
0.792083740234375	0.01390380859375	3723.18257359987
0.78765869140625	0.0132354736328125	3723.19142359985
0.783233642578125	0.0125701904296875	3723.20027359982
0.77880859375	0.0119140625	3723.2091235998
0.774383544921875	0.011260986328125	3723.21797359978
0.76995849609375	0.0106201171875	3723.22682359976
0.765533447265625	0.0099761962890625	3723.23567359973
0.7611083984375	0.0093414306640625	3723.24452359971
0.756683349609375	0.0087066650390625	3723.25337359969
0.75225830078125	0.0080810546875	3723.26222359967
0.747833251953125	0.007464599609375	3723.27107359964
0.743408203125	0.0068511962890625	3723.27992359962
0.738983154296875	0.006243896484375	3723.2887735996
0.73455810546875	0.0056365966796875	3723.29762359958
0.730133056640625	0.005035400390625	3723.30647359955
0.7257080078125	0.00444061279296875	3723.31532359953
0.721282958984375	0.00384979248046875	3723.32417359951
0.71685791015625	0.00326416015625	3723.33302359949
0.712432861328125	0.00268218994140625	3723.34187359947
0.7080078125	0.00210540771484375	3723.35072359944
0.703582763671875	0.001533203125	3723.35957359942
0.69915771484375	0.000965576171875	3723.3684235994
0.694732666015625	0.00039990234375	3723.37727359938
0.6903076171875	-0.000160247802734375	3723.38612359935
0.685882568359375	-0.00071563720703125	3723.39497359933
0.68145751953125	-0.00126739501953125	3723.40382359931
0.677032470703125	-0.00181427001953125	3723.41267359929
0.672607421875	-0.00235748291015625	3723.42152359926
0.668182373046875	-0.00289642333984375	3723.43037359924
0.66375732421875	-0.0034307861328125	3723.43922359922
0.659332275390625	-0.00396240234375	3723.4480735992
0.6549072265625	-0.00448944091796875	3723.45692359917
0.650482177734375	-0.00501190185546875	3723.46577359915
0.64605712890625	-0.00553070068359375	3723.47462359913
0.641632080078125	-0.006044921875	3723.48347359911
0.63720703125	-0.0065277099609375	3723.49232359909
0.632781982421875	-0.0070343017578125	3723.50117359906
0.62835693359375	-0.007537841796875	3723.51002359904
0.623931884765625	-0.008038330078125	3723.51887359902
0.6195068359375	-0.00853271484375	3723.527723599
0.615081787109375	-0.0090240478515625	3723.53657359897
0.61065673828125	-0.00950927734375	3723.54542359895
0.606231689453125	-0.0099945068359375	3723.55427359893
0.601806640625	-0.0104705810546875	3723.56312359891
0.597381591796875	-0.0109466552734375	3723.57197359888
0.59295654296875	-0.0114166259765625	3723.58082359886
0.588531494140625	-0.011883544921875	3723.58967359884
0.5841064453125	-0.012347412109375	3723.59852359882
0.579681396484375	-0.0128082275390625	3723.6073735988
0.57525634765625	-0.0132659912109375	3723.61622359877
0.570831298828125	-0.013720703125	3723.62507359875
0.56640625	-0.01417236328125	3723.63392359873
0.561981201171875	-0.0146209716796875	3723.64277359871
0.55755615234375	-0.0150665283203125	3723.65162359868
0.553131103515625	-0.0155059814453125	3723.66047359866
0.5487060546875	-0.0159423828125	3723.66932359864
0.544281005859375	-0.0163787841796875	3723.67817359862
0.53985595703125	-0.0168121337890625	3723.68702359859
0.535430908203125	-0.0172393798828125	3723.69587359857
0.531005859375	-0.01766357421875	3723.70472359855
0.526580810546875	-0.0180877685546875	3723.71357359853
0.52215576171875	-0.0185089111328125	3723.7224235985
0.517730712890625	-0.0189239501953125	3723.73127359848
0.5133056640625	-0.0193359375	3723.74012359846
0.508880615234375	-0.0197479248046875	3723.74897359844
0.50445556640625	-0.0201568603515625	3723.75782359842
0.500030517578125	-0.0205596923828125	3723.76667359839
0.49560546875	-0.02095947265625	3723.77552359837
0.491180419921875	-0.0213623046875	3723.78437359835
0.48675537109375	-0.0217559814453125	3723.79322359833
0.482330322265625	-0.022149658203125	3723.8020735983
0.4779052734375	-0.022540283203125	3723.81092359828
0.473480224609375	-0.0229278564453125	3723.81977359826
0.46905517578125	-0.0233123779296875	3723.82862359824
0.464630126953125	-0.023687744140625	3723.83747359821
0.460205078125	-0.0240692138671875	3723.84632359819
0.455780029296875	-0.024444580078125	3723.85517359817
0.45135498046875	-0.02481689453125	3723.86402359815
0.446929931640625	-0.025189208984375	3723.87287359812
0.4425048828125	-0.025555419921875	3723.8817235981
0.438079833984375	-0.02591552734375	3723.89057359808
0.43365478515625	-0.02626953125	3723.89942359806
0.429229736328125	-0.02662353515625	3723.90827359804
0.4248046875	-0.0269744873046875	3723.91712359801
0.420379638671875	-0.0273284912109375	3723.92597359799
0.41595458984375	-0.027685546875	3723.93482359797
0.411529541015625	-0.0280517578125	3723.94367359795
0.4071044921875	-0.0284088134765625	3723.95252359792
0.402679443359375	-0.028765869140625	3723.9613735979
0.39825439453125	-0.029119873046875	3723.97022359788
0.393829345703125	-0.0294677734375	3723.97907359786
0.389404296875	-0.0298004150390625	3723.98792359783
0.384979248046875	-0.03013916015625	3723.99677359781
0.38055419921875	-0.0304718017578125	3724.00562359779
0.376129150390625	-0.0308013916015625	3724.01447359777
0.3717041015625	-0.0311309814453125	3724.02332359774
0.367279052734375	-0.0314422607421875	3724.03217359772
0.36285400390625	-0.031744384765625	3724.0410235977
0.358428955078125	-0.0320526123046875	3724.04987359768
0.35400390625	-0.0323760986328125	3724.05872359766
0.349578857421875	-0.032720947265625	3724.06757359763
0.34515380859375	-0.03306884765625	3724.07642359761
0.340728759765625	-0.0333831787109375	3724.08527359759
0.3363037109375	-0.0336944580078125	3724.09412359757
0.331878662109375	-0.0340087890625	3724.10297359754
0.32745361328125	-0.0343231201171875	3724.11182359752
0.323028564453125	-0.0346282958984375	3724.1206735975
0.318603515625	-0.0349365234375	3724.12952359748
0.314178466796875	-0.0352447509765625	3724.13837359745
0.30975341796875	-0.03555908203125	3724.14722359743
0.305328369140625	-0.035858154296875	3724.15607359741
0.3009033203125	-0.0361541748046875	3724.16492359739
0.296478271484375	-0.0364593505859375	3724.17377359737
0.29205322265625	-0.0367584228515625	3724.18262359734
0.287628173828125	-0.0370574951171875	3724.19147359732
0.283203125	-0.037359619140625	3724.2003235973
0.278778076171875	-0.037652587890625	3724.20917359728
0.27435302734375	-0.03795166015625	3724.21802359725
0.269927978515625	-0.0382415771484375	3724.22687359723
0.2655029296875	-0.038531494140625	3724.23572359721
0.261077880859375	-0.038818359375	3724.24457359719
0.25665283203125	-0.0390960693359375	3724.25342359716
0.252227783203125	-0.039385986328125	3724.26227359714
0.247802734375	-0.0396697998046875	3724.27112359712
0.243377685546875	-0.0399505615234375	3724.2799735971
0.23895263671875	-0.0402313232421875	3724.28882359707
0.234527587890625	-0.0405059814453125	3724.29767359705
0.2301025390625	-0.0407806396484375	3724.30652359703
0.225677490234375	-0.041058349609375	3724.31537359701
0.22125244140625	-0.0413360595703125	3724.32422359699
0.216827392578125	-0.041607666015625	3724.33307359696
0.21240234375	-0.0418731689453125	3724.34192359694
0.207977294921875	-0.042144775390625	3724.35077359692
0.20355224609375	-0.0424102783203125	3724.3596235969
0.199127197265625	-0.04267578125	3724.36847359687
0.1947021484375	-0.0429351806640625	3724.37732359685
0.190277099609375	-0.0432037353515625	3724.38617359683
0.18585205078125	-0.04346923828125	3724.39502359681
0.181427001953125	-0.0437286376953125	3724.40387359678
0.177001953125	-0.043988037109375	3724.41272359676
0.172576904296875	-0.0442474365234375	3724.42157359674
0.16815185546875	-0.0445098876953125	3724.43042359672
0.163726806640625	-0.0447662353515625	3724.43927359669
0.1593017578125	-0.0450225830078125	3724.44812359667
0.154876708984375	-0.04527587890625	3724.45697359665
0.15045166015625	-0.045526123046875	3724.46582359663
0.146026611328125	-0.045782470703125	3724.47467359661
0.1416015625	-0.046038818359375	3724.48352359658
0.137176513671875	-0.0462890625	3724.49237359656
0.13275146484375	-0.04654541015625	3724.50122359654
0.128326416015625	-0.0467926025390625	3724.51007359652
0.1239013671875	-0.04703369140625	3724.51892359649
0.119476318359375	-0.047283935546875	3724.52777359647
0.11505126953125	-0.04752197265625	3724.53662359645
0.110626220703125	-0.047772216796875	3724.54547359643
0.106201171875	-0.048016357421875	3724.5543235964
0.101776123046875	-0.0482635498046875	3724.56317359638
0.09735107421875	-0.0484954833984375	3724.57202359636
0.092926025390625	-0.04874267578125	3724.58087359634
0.0885009765625	-0.048980712890625	3724.58972359631
0.084075927734375	-0.0492218017578125	3724.59857359629
0.07965087890625	-0.049456787109375	3724.60742359627
0.075225830078125	-0.0496917724609375	3724.61627359625
0.07080078125	-0.049932861328125	3724.62512359623
0.066375732421875	-0.0501678466796875	3724.6339735962
0.06195068359375	-0.05040283203125	3724.64282359618
0.057525634765625	-0.050640869140625	3724.65167359616
0.0531005859375	-0.0508758544921875	3724.66052359614
0.048675537109375	-0.0511077880859375	3724.66937359611
0.04425048828125	-0.0513458251953125	3724.67822359609
0.039825439453125	-0.051580810546875	3724.68707359607
0.035400390625	-0.051812744140625	3724.69592359605
0.030975341796875	-0.052044677734375	3724.70477359602
0.02655029296875	-0.052276611328125	3724.713623596
0.022125244140625	-0.0525054931640625	3724.72247359598
0.0177001953125	-0.052734375	3724.73132359596
0.013275146484375	-0.0529632568359375	3724.74017359594
0.00885009765625	-0.0531829833984375	3724.74902359591
0.004425048828125	-0.053411865234375	3724.75787359589
0	-0.053643798828125	3724.76672359587
0.004425048828125	-0.0525634765625	3724.77557359585
0.00885009765625	-0.0515106201171875	3724.78442359582
0.013275146484375	-0.050469970703125	3724.7932735958
