Potential applied (V)	WE(1).Current (A)	Time (s)
0.004425048828125	-0.00094482421875	2808.04600991037
0.00885009765625	-0.0003489990234375	2808.48851490925
0.013275146484375	0.00011834716796875	2808.93101990813
0.0177001953125	0.000490478515625	2809.37352490701
0.022125244140625	0.0007916259765625	2809.8160299059
0.02655029296875	0.0010345458984375	2810.25853490478
0.030975341796875	0.001234130859375	2810.70103990366
0.035400390625	0.001395263671875	2811.14354490254
0.039825439453125	0.0015283203125	2811.58604990143
0.04425048828125	0.00163787841796875	2812.02855490031
0.048675537109375	0.0017279052734375	2812.47105989919
0.0531005859375	0.00180267333984375	2812.91356489808
0.057525634765625	0.00186370849609375	2813.35606989696
0.06195068359375	0.001912841796875	2813.79857489584
0.066375732421875	0.001954345703125	2814.24107989472
0.07080078125	0.00198638916015625	2814.68358489361
0.075225830078125	0.00201263427734375	2815.12608989249
0.07965087890625	0.0020318603515625	2815.56859489137
0.084075927734375	0.0020489501953125	2816.01109989026
0.0885009765625	0.00206085205078125	2816.45360488914
0.092926025390625	0.002069091796875	2816.89610988802
0.09735107421875	0.00207550048828125	2817.3386148869
0.101776123046875	0.002080078125	2817.78111988579
0.106201171875	0.002081298828125	2818.22362488467
0.110626220703125	0.00208221435546875	2818.66612988355
0.11505126953125	0.00207916259765625	2819.10863488243
0.119476318359375	0.0020745849609375	2819.55113988132
0.1239013671875	0.00207061767578125	2819.9936448802
0.128326416015625	0.00206756591796875	2820.43614987908
0.13275146484375	0.0020623779296875	2820.87865487797
0.137176513671875	0.0020556640625	2821.32115987685
0.1416015625	0.00204925537109375	2821.76366487573
0.146026611328125	0.0020428466796875	2822.20616987461
0.15045166015625	0.0020355224609375	2822.6486748735
0.154876708984375	0.00202789306640625	2823.09117987238
0.1593017578125	0.00201873779296875	2823.53368487126
0.163726806640625	0.00201171875	2823.97618987015
0.16815185546875	0.00200286865234375	2824.41869486903
0.172576904296875	0.00199493408203125	2824.86119986791
0.177001953125	0.001988525390625	2825.30370486679
0.181427001953125	0.00198028564453125	2825.74620986568
0.18585205078125	0.001971435546875	2826.18871486456
0.190277099609375	0.00196441650390625	2826.63121986344
0.1947021484375	0.0019561767578125	2827.07372486232
0.199127197265625	0.0019476318359375	2827.51622986121
0.20355224609375	0.00194091796875	2827.95873486009
0.207977294921875	0.0019342041015625	2828.40123985897
0.21240234375	0.0019268798828125	2828.84374485786
0.216827392578125	0.00192108154296875	2829.28624985674
0.22125244140625	0.0019134521484375	2829.72875485562
0.225677490234375	0.00190643310546875	2830.1712598545
0.2301025390625	0.00189971923828125	2830.61376485339
0.234527587890625	0.0018914794921875	2831.05626985227
0.23895263671875	0.00188568115234375	2831.49877485115
0.243377685546875	0.00188140869140625	2831.94127985004
0.247802734375	0.00187469482421875	2832.38378484892
0.252227783203125	0.001868896484375	2832.8262898478
0.25665283203125	0.00186309814453125	2833.26879484668
0.261077880859375	0.00185760498046875	2833.71129984557
0.2655029296875	0.00185272216796875	2834.15380484445
0.269927978515625	0.00184814453125	2834.59630984333
0.27435302734375	0.0018426513671875	2835.03881484222
0.278778076171875	0.00183837890625	2835.4813198411
0.283203125	0.0018341064453125	2835.92382483998
0.287628173828125	0.00182952880859375	2836.36632983886
0.29205322265625	0.00182464599609375	2836.80883483775
0.296478271484375	0.0018212890625	2837.25133983663
0.3009033203125	0.0018170166015625	2837.69384483551
0.305328369140625	0.00181427001953125	2838.13634983439
0.30975341796875	0.0018109130859375	2838.57885483328
0.314178466796875	0.001810302734375	2839.02135983216
0.318603515625	0.00180633544921875	2839.46386483104
0.323028564453125	0.0018023681640625	2839.90636982993
0.32745361328125	0.00179931640625	2840.34887482881
0.331878662109375	0.0017962646484375	2840.79137982769
0.3363037109375	0.001793212890625	2841.23388482657
0.340728759765625	0.00179046630859375	2841.67638982546
0.34515380859375	0.001787109375	2842.11889482434
0.349578857421875	0.00178466796875	2842.56139982322
0.35400390625	0.0017803955078125	2843.00390482211
0.358428955078125	0.001778564453125	2843.44640982099
0.36285400390625	0.001776123046875	2843.88891481987
0.367279052734375	0.0017742919921875	2844.33141981875
0.3717041015625	0.0017724609375	2844.77392481764
0.376129150390625	0.00177032470703125	2845.21642981652
0.38055419921875	0.00176788330078125	2845.6589348154
0.384979248046875	0.00176605224609375	2846.10143981428
0.389404296875	0.00176361083984375	2846.54394481317
0.393829345703125	0.00176055908203125	2846.98644981205
0.39825439453125	0.0017584228515625	2847.42895481093
0.402679443359375	0.001756591796875	2847.87145980982
0.4071044921875	0.0017547607421875	2848.3139648087
0.411529541015625	0.0017523193359375	2848.75646980758
0.41595458984375	0.0017510986328125	2849.19897480646
0.420379638671875	0.00174896240234375	2849.64147980535
0.4248046875	0.0017474365234375	2850.08398480423
0.429229736328125	0.00174560546875	2850.52648980311
0.43365478515625	0.00174407958984375	2850.96899480199
0.438079833984375	0.00174285888671875	2851.41149980088
0.4425048828125	0.0017425537109375	2851.85400479976
0.446929931640625	0.00174072265625	2852.29650979864
0.45135498046875	0.00173980712890625	2852.73901479753
0.455780029296875	0.00173858642578125	2853.18151979641
0.460205078125	0.00173736572265625	2853.62402479529
0.464630126953125	0.001737060546875	2854.06652979417
0.46905517578125	0.00173614501953125	2854.50903479306
0.473480224609375	0.0017352294921875	2854.95153979194
0.4779052734375	0.0017340087890625	2855.39404479082
0.482330322265625	0.0017340087890625	2855.83654978971
0.48675537109375	0.00173309326171875	2856.27905478859
0.491180419921875	0.00173309326171875	2856.72155978747
0.49560546875	0.0017327880859375	2857.16406478635
0.500030517578125	0.00173248291015625	2857.60656978524
0.50445556640625	0.001732177734375	2858.04907478412
0.508880615234375	0.00173126220703125	2858.491579783
0.5133056640625	0.001732177734375	2858.93408478189
0.517730712890625	0.00173187255859375	2859.37658978077
0.52215576171875	0.001732177734375	2859.81909477965
0.526580810546875	0.001732177734375	2860.26159977853
0.531005859375	0.00173370361328125	2860.70410477742
0.535430908203125	0.00173431396484375	2861.1466097763
0.53985595703125	0.00173492431640625	2861.58911477518
0.544281005859375	0.0017352294921875	2862.03161977406
0.5487060546875	0.00173614501953125	2862.47412477295
0.553131103515625	0.0017388916015625	2862.91662977183
0.55755615234375	0.001739501953125	2863.35913477071
0.561981201171875	0.001741943359375	2863.8016397696
0.56640625	0.00174407958984375	2864.24414476848
0.570831298828125	0.00174713134765625	2864.68664976736
0.57525634765625	0.0017498779296875	2865.12915476624
0.579681396484375	0.001751708984375	2865.57165976513
0.5841064453125	0.0017547607421875	2866.01416476401
0.588531494140625	0.00175628662109375	2866.45666976289
0.59295654296875	0.00176055908203125	2866.89917476178
0.597381591796875	0.00176422119140625	2867.34167976066
0.601806640625	0.0017681884765625	2867.78418475954
0.606231689453125	0.00177215576171875	2868.22668975842
0.61065673828125	0.00177703857421875	2868.66919475731
0.615081787109375	0.001781005859375	2869.11169975619
0.6195068359375	0.00178619384765625	2869.55420475507
0.623931884765625	0.00179168701171875	2869.99670975395
0.62835693359375	0.0018017578125	2870.43921475284
0.632781982421875	0.00180633544921875	2870.88171975172
0.63720703125	0.00181060791015625	2871.3242247506
0.641632080078125	0.00181610107421875	2871.76672974949
0.64605712890625	0.001822509765625	2872.20923474837
0.650482177734375	0.00182891845703125	2872.65173974725
0.6549072265625	0.0018365478515625	2873.09424474613
0.659332275390625	0.0018438720703125	2873.53674974502
0.66375732421875	0.0018505859375	2873.9792547439
0.668182373046875	0.00185760498046875	2874.42175974278
0.672607421875	0.00186614990234375	2874.86426474167
0.677032470703125	0.0018756103515625	2875.30676974055
0.68145751953125	0.00188385009765625	2875.74927473943
0.685882568359375	0.0018927001953125	2876.19177973831
0.6903076171875	0.00190216064453125	2876.6342847372
0.694732666015625	0.00191253662109375	2877.07678973608
0.69915771484375	0.001922607421875	2877.51929473496
0.703582763671875	0.0019329833984375	2877.96179973385
0.7080078125	0.00194366455078125	2878.40430473273
0.712432861328125	0.00195465087890625	2878.84680973161
0.71685791015625	0.0019671630859375	2879.28931473049
0.721282958984375	0.00197998046875	2879.73181972938
0.7257080078125	0.00199310302734375	2880.17432472826
0.730133056640625	0.002005615234375	2880.61682972714
0.73455810546875	0.002020263671875	2881.05933472602
0.738983154296875	0.00203460693359375	2881.50183972491
0.743408203125	0.00204681396484375	2881.94434472379
0.747833251953125	0.0020635986328125	2882.38684972267
0.75225830078125	0.002078857421875	2882.82935472156
0.756683349609375	0.002095947265625	2883.27185972044
0.7611083984375	0.002113037109375	2883.71436471932
0.765533447265625	0.0021319580078125	2884.1568697182
0.76995849609375	0.00215057373046875	2884.59937471709
0.774383544921875	0.00216949462890625	2885.04187971597
0.77880859375	0.00218963623046875	2885.48438471485
0.783233642578125	0.00221099853515625	2885.92688971373
0.78765869140625	0.00223358154296875	2886.36939471262
0.792083740234375	0.00225616455078125	2886.8118997115
0.7965087890625	0.00227996826171875	2887.25440471038
0.800933837890625	0.00230438232421875	2887.69690970927
0.80535888671875	0.002330322265625	2888.13941470815
0.809783935546875	0.002357177734375	2888.58191970703
0.814208984375	0.00238555908203125	2889.02442470591
0.818634033203125	0.00241485595703125	2889.4669297048
0.82305908203125	0.00244476318359375	2889.90943470368
0.827484130859375	0.0024755859375	2890.35193970256
0.8319091796875	0.00250732421875	2890.79444470145
0.836334228515625	0.0025421142578125	2891.23694970033
0.84075927734375	0.00257843017578125	2891.67945469921
0.845184326171875	0.00261474609375	2892.12195969809
0.849609375	0.0026531982421875	2892.56446469698
0.854034423828125	0.00269195556640625	2893.00696969586
0.85845947265625	0.00273345947265625	2893.44947469474
0.862884521484375	0.002774658203125	2893.89197969363
0.8673095703125	0.0028173828125	2894.33448469251
0.871734619140625	0.00286407470703125	2894.77698969139
0.87615966796875	0.00291229248046875	2895.21949469027
0.880584716796875	0.0029595947265625	2895.66199968916
0.885009765625	0.0030108642578125	2896.10450468804
0.889434814453125	0.0030621337890625	2896.54700968692
0.89385986328125	0.0031158447265625	2896.9895146858
0.898284912109375	0.00317108154296875	2897.43201968469
0.9027099609375	0.00322723388671875	2897.87452468357
0.907135009765625	0.0032843017578125	2898.31702968245
0.91156005859375	0.00334625244140625	2898.75953468134
0.915985107421875	0.0034075927734375	2899.20203968022
0.92041015625	0.0034716796875	2899.6445446791
0.924835205078125	0.0035382080078125	2900.08704967798
0.92926025390625	0.0036053466796875	2900.52955467687
0.933685302734375	0.0036749267578125	2900.97205967575
0.9381103515625	0.00375091552734375	2901.41456467463
0.942535400390625	0.00382659912109375	2901.85706967352
0.94696044921875	0.00390533447265625	2902.2995746724
0.951385498046875	0.003984375	2902.74207967128
0.955810546875	0.004068603515625	2903.18458467016
0.960235595703125	0.00415679931640625	2903.62708966905
0.96466064453125	0.00424896240234375	2904.06959466793
0.969085693359375	0.00434783935546875	2904.51209966681
0.9735107421875	0.00444793701171875	2904.95460466569
0.977935791015625	0.00455169677734375	2905.39710966458
0.98236083984375	0.00466339111328125	2905.83961466346
0.986785888671875	0.0047802734375	2906.28211966234
0.9912109375	0.004901123046875	2906.72462466123
0.995635986328125	0.00503082275390625	2907.16712966011
1.00006103515625	0.0051641845703125	2907.60963465899
0.995635986328125	0.0043707275390625	2908.05213965787
0.9912109375	0.00374481201171875	2908.49464465676
0.986785888671875	0.00321990966796875	2908.93714965564
0.98236083984375	0.00276458740234375	2909.37965465452
0.977935791015625	0.00236419677734375	2909.82215965341
0.9735107421875	0.00200958251953125	2910.26466465229
0.969085693359375	0.0016876220703125	2910.70716965117
0.96466064453125	0.001396484375	2911.14967465005
0.960235595703125	0.001131591796875	2911.59217964894
0.955810546875	0.00089080810546875	2912.03468464782
0.951385498046875	0.0006707763671875	2912.4771896467
0.94696044921875	0.000469970703125	2912.91969464558
0.942535400390625	0.000286651611328125	2913.36219964447
0.9381103515625	0.000119110107421875	2913.80470464335
0.933685302734375	-3.72161865234375E-05	2914.24720964223
0.92926025390625	-0.000176605224609375	2914.68971464112
0.924835205078125	-0.000304168701171875	2915.13221964
0.92041015625	-0.000420806884765625	2915.57472463888
0.915985107421875	-0.000527252197265625	2916.01722963776
0.91156005859375	-0.00062371826171875	2916.45973463665
0.907135009765625	-0.0007135009765625	2916.90223963553
0.9027099609375	-0.000794677734375	2917.34474463441
0.898284912109375	-0.00086822509765625	2917.7872496333
0.89385986328125	-0.00093658447265625	2918.22975463218
0.889434814453125	-0.00099884033203125	2918.67225963106
0.885009765625	-0.001055908203125	2919.11476462994
0.880584716796875	-0.001107177734375	2919.55726962883
0.87615966796875	-0.00115478515625	2919.99977462771
0.871734619140625	-0.0011981201171875	2920.44227962659
0.8673095703125	-0.00123809814453125	2920.88478462547
0.862884521484375	-0.0012750244140625	2921.32728962436
0.85845947265625	-0.0013079833984375	2921.76979462324
0.854034423828125	-0.00133880615234375	2922.21229962212
0.849609375	-0.0013671875	2922.65480462101
0.845184326171875	-0.0013934326171875	2923.09730961989
0.84075927734375	-0.00141754150390625	2923.53981461877
0.836334228515625	-0.001439208984375	2923.98231961765
0.8319091796875	-0.00145904541015625	2924.42482461654
0.827484130859375	-0.001478271484375	2924.86732961542
0.82305908203125	-0.00149688720703125	2925.3098346143
0.818634033203125	-0.0015118408203125	2925.75233961319
0.814208984375	-0.001527099609375	2926.19484461207
0.809783935546875	-0.0015411376953125	2926.63734961095
0.80535888671875	-0.0015545654296875	2927.07985460983
0.800933837890625	-0.00156707763671875	2927.52235960872
0.7965087890625	-0.0015771484375	2927.9648646076
0.792083740234375	-0.001588134765625	2928.40736960648
0.78765869140625	-0.0015985107421875	2928.84987460536
0.783233642578125	-0.0016070556640625	2929.29237960425
0.77880859375	-0.001614990234375	2929.73488460313
0.774383544921875	-0.001622314453125	2930.17738960201
0.76995849609375	-0.001629638671875	2930.6198946009
0.765533447265625	-0.00163665771484375	2931.06239959978
0.7611083984375	-0.00164276123046875	2931.50490459866
0.756683349609375	-0.0016497802734375	2931.94740959754
0.75225830078125	-0.0016546630859375	2932.38991459643
0.747833251953125	-0.00165985107421875	2932.83241959531
0.743408203125	-0.0016650390625	2933.27492459419
0.738983154296875	-0.00166748046875	2933.71742959308
0.73455810546875	-0.0016717529296875	2934.15993459196
0.730133056640625	-0.00167572021484375	2934.60243959084
0.7257080078125	-0.00167999267578125	2935.04494458972
0.721282958984375	-0.00168182373046875	2935.48744958861
0.71685791015625	-0.00168609619140625	2935.92995458749
0.712432861328125	-0.00168792724609375	2936.37245958637
0.7080078125	-0.00169036865234375	2936.81496458525
0.703582763671875	-0.001693115234375	2937.25746958414
0.69915771484375	-0.0016943359375	2937.69997458302
0.694732666015625	-0.0016973876953125	2938.1424795819
0.6903076171875	-0.00169952392578125	2938.58498458079
0.685882568359375	-0.00170074462890625	2939.02748957967
0.68145751953125	-0.0017034912109375	2939.46999457855
0.677032470703125	-0.00170623779296875	2939.91249957743
0.672607421875	-0.001707763671875	2940.35500457632
0.668182373046875	-0.001708984375	2940.7975095752
0.66375732421875	-0.00171112060546875	2941.24001457408
0.659332275390625	-0.001712646484375	2941.68251957297
0.6549072265625	-0.00171600341796875	2942.12502457185
0.650482177734375	-0.00171722412109375	2942.56752957073
0.64605712890625	-0.00171966552734375	2943.01003456961
0.641632080078125	-0.00172210693359375	2943.4525395685
0.63720703125	-0.00172332763671875	2943.89504456738
0.632781982421875	-0.0017254638671875	2944.33754956626
0.62835693359375	-0.001727294921875	2944.78005456515
0.623931884765625	-0.0017340087890625	2945.22255956403
0.6195068359375	-0.00173492431640625	2945.66506456291
0.615081787109375	-0.00173614501953125	2946.10756956179
0.61065673828125	-0.00173797607421875	2946.55007456068
0.606231689453125	-0.0017413330078125	2946.99257955956
0.601806640625	-0.00174346923828125	2947.43508455844
0.597381591796875	-0.00174530029296875	2947.87758955732
0.59295654296875	-0.001748046875	2948.32009455621
0.588531494140625	-0.00175048828125	2948.76259955509
0.5841064453125	-0.0017510986328125	2949.20510455397
0.579681396484375	-0.00175506591796875	2949.64760955286
0.57525634765625	-0.00175872802734375	2950.09011455174
0.570831298828125	-0.0017626953125	2950.53261955062
0.56640625	-0.00176544189453125	2950.9751245495
0.561981201171875	-0.001768798828125	2951.41762954839
0.55755615234375	-0.00177276611328125	2951.86013454727
0.553131103515625	-0.0017767333984375	2952.30263954615
0.5487060546875	-0.00177947998046875	2952.74514454504
0.544281005859375	-0.0017822265625	2953.18764954392
0.53985595703125	-0.00178680419921875	2953.6301545428
0.535430908203125	-0.00179107666015625	2954.07265954168
0.531005859375	-0.0017950439453125	2954.51516454057
0.526580810546875	-0.0017999267578125	2954.95766953945
0.52215576171875	-0.00180328369140625	2955.40017453833
0.517730712890625	-0.001807861328125	2955.84267953721
0.5133056640625	-0.0018115234375	2956.2851845361
0.508880615234375	-0.00181610107421875	2956.72768953498
0.50445556640625	-0.00182098388671875	2957.17019453386
0.500030517578125	-0.00182586669921875	2957.61269953275
0.49560546875	-0.00182952880859375	2958.05520453163
0.491180419921875	-0.0018341064453125	2958.49770953051
0.48675537109375	-0.0018389892578125	2958.94021452939
0.482330322265625	-0.00184295654296875	2959.38271952828
0.4779052734375	-0.00184722900390625	2959.82522452716
0.473480224609375	-0.0018524169921875	2960.26772952604
0.46905517578125	-0.0018572998046875	2960.71023452492
0.464630126953125	-0.0018609619140625	2961.15273952381
0.460205078125	-0.00186676025390625	2961.59524452269
0.455780029296875	-0.001871337890625	2962.03774952157
0.45135498046875	-0.00187591552734375	2962.48025452046
0.446929931640625	-0.0018817138671875	2962.92275951934
0.4425048828125	-0.001885986328125	2963.36526451822
0.438079833984375	-0.00189117431640625	2963.8077695171
0.43365478515625	-0.0018963623046875	2964.25027451599
0.429229736328125	-0.0019012451171875	2964.69277951487
0.4248046875	-0.001905517578125	2965.13528451375
0.420379638671875	-0.00191070556640625	2965.57778951264
0.41595458984375	-0.00191558837890625	2966.02029451152
0.411529541015625	-0.0019207763671875	2966.4627995104
0.4071044921875	-0.00192626953125	2966.90530450928
0.402679443359375	-0.0019317626953125	2967.34780950817
0.39825439453125	-0.0019366455078125	2967.79031450705
0.393829345703125	-0.0019415283203125	2968.23281950593
0.389404296875	-0.00194580078125	2968.67532450482
0.384979248046875	-0.00195159912109375	2969.1178295037
0.38055419921875	-0.0019561767578125	2969.56033450258
0.376129150390625	-0.00196258544921875	2970.00283950146
0.3717041015625	-0.00196868896484375	2970.44534450035
0.367279052734375	-0.00197296142578125	2970.88784949923
0.36285400390625	-0.00197784423828125	2971.33035449811
0.358428955078125	-0.001982421875	2971.77285949699
0.35400390625	-0.00198883056640625	2972.21536449588
0.349578857421875	-0.0019927978515625	2972.65786949476
0.34515380859375	-0.00199859619140625	2973.10037449364
0.340728759765625	-0.00200469970703125	2973.54287949253
0.3363037109375	-0.0020123291015625	2973.98538449141
0.331878662109375	-0.00201934814453125	2974.42788949029
0.32745361328125	-0.0020263671875	2974.87039448917
0.323028564453125	-0.00203216552734375	2975.31289948806
0.318603515625	-0.00203826904296875	2975.75540448694
0.314178466796875	-0.00204498291015625	2976.19790948582
0.30975341796875	-0.0020550537109375	2976.64041448471
0.305328369140625	-0.00206085205078125	2977.08291948359
0.3009033203125	-0.00206695556640625	2977.52542448247
0.296478271484375	-0.00207489013671875	2977.96792948135
0.29205322265625	-0.0020806884765625	2978.41043448024
0.287628173828125	-0.00208740234375	2978.85293947912
0.283203125	-0.00209442138671875	2979.295444478
0.278778076171875	-0.00210174560546875	2979.73794947688
0.27435302734375	-0.002110595703125	2980.18045447577
0.269927978515625	-0.00211639404296875	2980.62295947465
0.2655029296875	-0.00212493896484375	2981.06546447353
0.261077880859375	-0.002132568359375	2981.50796947242
0.25665283203125	-0.00214141845703125	2981.9504744713
0.252227783203125	-0.00214874267578125	2982.39297947018
0.247802734375	-0.00215789794921875	2982.83548446906
0.243377685546875	-0.00216644287109375	2983.27798946795
0.23895263671875	-0.0021746826171875	2983.72049446683
0.234527587890625	-0.0021826171875	2984.16299946571
0.2301025390625	-0.0021905517578125	2984.6055044646
0.225677490234375	-0.0021990966796875	2985.04800946348
0.22125244140625	-0.00220916748046875	2985.49051446236
0.216827392578125	-0.00221832275390625	2985.93301946124
0.21240234375	-0.00222686767578125	2986.37552446013
0.207977294921875	-0.00223724365234375	2986.81802945901
0.20355224609375	-0.0022467041015625	2987.26053445789
0.199127197265625	-0.00225677490234375	2987.70303945678
0.1947021484375	-0.00226654052734375	2988.14554445566
0.190277099609375	-0.0022760009765625	2988.58804945454
0.18585205078125	-0.00228668212890625	2989.03055445342
0.181427001953125	-0.00229736328125	2989.47305945231
0.177001953125	-0.0023089599609375	2989.91556445119
0.172576904296875	-0.0023193359375	2990.35806945007
0.16815185546875	-0.00233062744140625	2990.80057444895
0.163726806640625	-0.00234161376953125	2991.24307944784
0.1593017578125	-0.00235260009765625	2991.68558444672
0.154876708984375	-0.00236480712890625	2992.1280894456
0.15045166015625	-0.0023760986328125	2992.57059444449
0.146026611328125	-0.0023895263671875	2993.01309944337
0.1416015625	-0.00240234375	2993.45560444225
0.137176513671875	-0.0024151611328125	2993.89810944113
0.13275146484375	-0.00242828369140625	2994.34061444002
0.128326416015625	-0.00244171142578125	2994.7831194389
0.1239013671875	-0.0024560546875	2995.22562443778
0.119476318359375	-0.0024700927734375	2995.66812943666
0.11505126953125	-0.002481689453125	2996.11063443555
0.110626220703125	-0.0024969482421875	2996.55313943443
0.106201171875	-0.00251220703125	2996.99564443331
0.101776123046875	-0.0025286865234375	2997.4381494322
0.09735107421875	-0.0025433349609375	2997.88065443108
0.092926025390625	-0.00256072998046875	2998.32315942996
0.0885009765625	-0.00257659912109375	2998.76566442884
0.084075927734375	-0.00259246826171875	2999.20816942773
0.07965087890625	-0.00260833740234375	2999.65067442661
0.075225830078125	-0.00262481689453125	3000.09317942549
0.07080078125	-0.00264251708984375	3000.53568442438
0.066375732421875	-0.00266021728515625	3000.97818942326
0.06195068359375	-0.0026788330078125	3001.42069442214
0.057525634765625	-0.002696533203125	3001.86319942102
0.0531005859375	-0.0027154541015625	3002.30570441991
0.048675537109375	-0.00273345947265625	3002.74820941879
0.04425048828125	-0.00275299072265625	3003.19071441767
0.039825439453125	-0.0027728271484375	3003.63321941656
0.035400390625	-0.00279205322265625	3004.07572441544
0.030975341796875	-0.0028118896484375	3004.51822941432
0.02655029296875	-0.00283203125	3004.9607344132
0.022125244140625	-0.002852783203125	3005.40323941209
0.0177001953125	-0.00287322998046875	3005.84574441097
0.013275146484375	-0.00289459228515625	3006.28824940985
0.00885009765625	-0.00291595458984375	3006.73075440873
0.004425048828125	-0.00293914794921875	3007.17325940762
0	-0.0029632568359375	3007.6157644065
0.004425048828125	-0.00204559326171875	3008.05826940538
0.00885009765625	-0.00132415771484375	3008.50077440427
0.013275146484375	-0.00074432373046875	3008.94327940315
0.0177001953125	-0.0002713623046875	3009.38578440203
0.022125244140625	0.00011773681640625	3009.82828940091
0.02655029296875	0.000438690185546875	3010.2707943998
0.030975341796875	0.0007073974609375	3010.71329939868
0.035400390625	0.00093017578125	3011.15580439756
0.039825439453125	0.00111541748046875	3011.59830939645
0.04425048828125	0.00126953125	3012.04081439533
0.048675537109375	0.001396484375	3012.48331939421
0.0531005859375	0.00150299072265625	3012.92582439309
0.057525634765625	0.001595458984375	3013.36832939198
0.06195068359375	0.00167327880859375	3013.81083439086
0.066375732421875	0.0017388916015625	3014.25333938974
0.07080078125	0.00179290771484375	3014.69584438862
0.075225830078125	0.00183837890625	3015.13834938751
0.07965087890625	0.0018743896484375	3015.58085438639
0.084075927734375	0.001905517578125	3016.02335938527
0.0885009765625	0.00193145751953125	3016.46586438416
0.092926025390625	0.0019512939453125	3016.90836938304
0.09735107421875	0.0019677734375	3017.35087438192
0.101776123046875	0.0019793701171875	3017.7933793808
0.106201171875	0.00198883056640625	3018.23588437969
0.110626220703125	0.001995849609375	3018.67838937857
0.11505126953125	0.00200042724609375	3019.12089437745
0.119476318359375	0.002000732421875	3019.56339937634
0.1239013671875	0.002001953125	3020.00590437522
0.128326416015625	0.00200164794921875	3020.4484093741
0.13275146484375	0.00199981689453125	3020.89091437298
0.137176513671875	0.00199798583984375	3021.33341937187
0.1416015625	0.00199493408203125	3021.77592437075
0.146026611328125	0.001990966796875	3022.21842936963
0.15045166015625	0.0019866943359375	3022.66093436851
0.154876708984375	0.00198028564453125	3023.1034393674
0.1593017578125	0.0019732666015625	3023.54594436628
0.163726806640625	0.00196807861328125	3023.98844936516
0.16815185546875	0.00196258544921875	3024.43095436405
0.172576904296875	0.0019573974609375	3024.87345936293
0.177001953125	0.00195037841796875	3025.31596436181
0.181427001953125	0.0019427490234375	3025.75846936069
0.18585205078125	0.00193572998046875	3026.20097435958
0.190277099609375	0.0019287109375	3026.64347935846
0.1947021484375	0.00192138671875	3027.08598435734
0.199127197265625	0.0019140625	3027.52848935623
0.20355224609375	0.00190704345703125	3027.97099435511
0.207977294921875	0.0019012451171875	3028.41349935399
0.21240234375	0.00189483642578125	3028.85600435287
0.216827392578125	0.00188751220703125	3029.29850935176
0.22125244140625	0.00188079833984375	3029.74101435064
0.225677490234375	0.0018731689453125	3030.18351934952
0.2301025390625	0.001866455078125	3030.6260243484
0.234527587890625	0.00186004638671875	3031.06852934729
0.23895263671875	0.00185394287109375	3031.51103434617
0.243377685546875	0.00184844970703125	3031.95353934505
0.247802734375	0.0018438720703125	3032.39604434394
0.252227783203125	0.00183807373046875	3032.83854934282
0.25665283203125	0.0018328857421875	3033.2810543417
0.261077880859375	0.00182769775390625	3033.72355934058
0.2655029296875	0.001822509765625	3034.16606433947
0.269927978515625	0.00181671142578125	3034.60856933835
0.27435302734375	0.00181182861328125	3035.05107433723
0.278778076171875	0.001807861328125	3035.49357933612
0.283203125	0.0018017578125	3035.936084335
0.287628173828125	0.0017974853515625	3036.37858933388
0.29205322265625	0.00179473876953125	3036.82109433276
0.296478271484375	0.0017901611328125	3037.26359933165
0.3009033203125	0.001785888671875	3037.70610433053
0.305328369140625	0.0017816162109375	3038.14860932941
0.30975341796875	0.00177734375	3038.59111432829
0.314178466796875	0.0017767333984375	3039.03361932718
0.318603515625	0.0017718505859375	3039.47612432606
0.323028564453125	0.00176849365234375	3039.91862932494
0.32745361328125	0.00176422119140625	3040.36113432383
0.331878662109375	0.00176025390625	3040.80363932271
0.3363037109375	0.00175628662109375	3041.24614432159
0.340728759765625	0.0017535400390625	3041.68864932047
0.34515380859375	0.00175079345703125	3042.13115431936
0.349578857421875	0.00174835205078125	3042.57365931824
0.35400390625	0.00174285888671875	3043.01616431712
0.358428955078125	0.0017413330078125	3043.45866931601
0.36285400390625	0.0017388916015625	3043.90117431489
0.367279052734375	0.00173583984375	3044.34367931377
0.3717041015625	0.0017327880859375	3044.78618431265
0.376129150390625	0.00173065185546875	3045.22868931154
0.38055419921875	0.00172760009765625	3045.67119431042
0.384979248046875	0.0017254638671875	3046.1136993093
0.389404296875	0.0017236328125	3046.55620430818
0.393829345703125	0.001719970703125	3046.99870930707
0.39825439453125	0.00171722412109375	3047.44121430595
0.402679443359375	0.0017132568359375	3047.88371930483
0.4071044921875	0.0017108154296875	3048.32622430372
0.411529541015625	0.00170867919921875	3048.7687293026
0.41595458984375	0.00170623779296875	3049.21123430148
0.420379638671875	0.00170379638671875	3049.65373930036
0.4248046875	0.00170135498046875	3050.09624429925
0.429229736328125	0.001700439453125	3050.53874929813
0.43365478515625	0.00169647216796875	3050.98125429701
0.438079833984375	0.00169464111328125	3051.4237592959
0.4425048828125	0.0016925048828125	3051.86626429478
0.446929931640625	0.00169158935546875	3052.30876929366
0.45135498046875	0.00168914794921875	3052.75127429254
0.455780029296875	0.00168731689453125	3053.19377929143
0.460205078125	0.00168609619140625	3053.63628429031
0.464630126953125	0.0016845703125	3054.07878928919
0.46905517578125	0.00168243408203125	3054.52129428808
0.473480224609375	0.00168121337890625	3054.96379928696
0.4779052734375	0.0016802978515625	3055.40630428584
0.482330322265625	0.0016790771484375	3055.84880928472
0.48675537109375	0.001678466796875	3056.29131428361
0.491180419921875	0.00167877197265625	3056.73381928249
0.49560546875	0.00167755126953125	3057.17632428137
0.500030517578125	0.0016766357421875	3057.61882928025
0.50445556640625	0.001676025390625	3058.06133427914
0.508880615234375	0.00167572021484375	3058.50383927802
0.5133056640625	0.001676025390625	3058.9463442769
0.517730712890625	0.00167510986328125	3059.38884927579
0.52215576171875	0.0016741943359375	3059.83135427467
0.526580810546875	0.0016754150390625	3060.27385927355
0.531005859375	0.00167633056640625	3060.71636427243
0.535430908203125	0.00167694091796875	3061.15886927132
0.53985595703125	0.00167724609375	3061.6013742702
0.544281005859375	0.0016778564453125	3062.04387926908
0.5487060546875	0.00167755126953125	3062.48638426797
0.553131103515625	0.00167938232421875	3062.92888926685
0.55755615234375	0.001680908203125	3063.37139426573
0.561981201171875	0.00168243408203125	3063.81389926461
0.56640625	0.00168365478515625	3064.2564042635
0.570831298828125	0.0016864013671875	3064.69890926238
0.57525634765625	0.00168853759765625	3065.14141426126
0.579681396484375	0.00169097900390625	3065.58391926014
0.5841064453125	0.0016937255859375	3066.02642425903
0.588531494140625	0.0016937255859375	3066.46892925791
0.59295654296875	0.0016973876953125	3066.91143425679
0.597381591796875	0.00170074462890625	3067.35393925568
0.601806640625	0.0017041015625	3067.79644425456
0.606231689453125	0.0017083740234375	3068.23894925344
0.61065673828125	0.00171173095703125	3068.68145425232
0.615081787109375	0.00171661376953125	3069.12395925121
0.6195068359375	0.0017205810546875	3069.56646425009
0.623931884765625	0.0017254638671875	3070.00896924897
0.62835693359375	0.0017340087890625	3070.45147424786
0.632781982421875	0.00173736572265625	3070.89397924674
0.63720703125	0.00174163818359375	3071.33648424562
0.641632080078125	0.00174774169921875	3071.7789892445
0.64605712890625	0.0017523193359375	3072.22149424339
0.650482177734375	0.00175811767578125	3072.66399924227
0.6549072265625	0.0017645263671875	3073.10650424115
0.659332275390625	0.00176971435546875	3073.54900924003
0.66375732421875	0.00177734375	3073.99151423892
0.668182373046875	0.00178375244140625	3074.4340192378
0.672607421875	0.001790771484375	3074.87652423668
0.677032470703125	0.0017987060546875	3075.31902923557
0.68145751953125	0.001806640625	3075.76153423445
0.685882568359375	0.001815185546875	3076.20403923333
0.6903076171875	0.00182373046875	3076.64654423221
0.694732666015625	0.001832275390625	3077.0890492311
0.69915771484375	0.00184112548828125	3077.53155422998
0.703582763671875	0.0018499755859375	3077.97405922886
0.7080078125	0.00186065673828125	3078.41656422775
0.712432861328125	0.001871337890625	3078.85906922663
0.71685791015625	0.00188140869140625	3079.30157422551
0.721282958984375	0.00189178466796875	3079.74407922439
0.7257080078125	0.00190399169921875	3080.18658422328
0.730133056640625	0.001915283203125	3080.62908922216
0.73455810546875	0.00192840576171875	3081.07159422104
0.738983154296875	0.00194122314453125	3081.51409921992
0.743408203125	0.00195220947265625	3081.95660421881
0.747833251953125	0.0019671630859375	3082.39910921769
0.75225830078125	0.0019818115234375	3082.84161421657
0.756683349609375	0.00199676513671875	3083.28411921546
0.7611083984375	0.00201263427734375	3083.72662421434
0.765533447265625	0.0020294189453125	3084.16912921322
0.76995849609375	0.00204559326171875	3084.6116342121
0.774383544921875	0.00206298828125	3085.05413921099
0.77880859375	0.00208099365234375	3085.49664420987
0.783233642578125	0.002099609375	3085.93914920875
0.78765869140625	0.002119140625	3086.38165420764
0.792083740234375	0.00214111328125	3086.82415920652
0.7965087890625	0.0021624755859375	3087.2666642054
0.800933837890625	0.0021856689453125	3087.70916920428
0.80535888671875	0.00220947265625	3088.15167420317
0.809783935546875	0.00223388671875	3088.59417920205
0.814208984375	0.00225982666015625	3089.03668420093
0.818634033203125	0.0022857666015625	3089.47918919981
0.82305908203125	0.00231292724609375	3089.9216941987
0.827484130859375	0.00234222412109375	3090.36419919758
0.8319091796875	0.002373046875	3090.80670419646
0.836334228515625	0.00240386962890625	3091.24920919535
0.84075927734375	0.0024359130859375	3091.69171419423
0.845184326171875	0.00247039794921875	3092.13421919311
0.849609375	0.0025048828125	3092.57672419199
0.854034423828125	0.0025421142578125	3093.01922919088
0.85845947265625	0.002579345703125	3093.46173418976
0.862884521484375	0.00261749267578125	3093.90423918864
0.8673095703125	0.0026593017578125	3094.34674418753
0.871734619140625	0.00270172119140625	3094.78924918641
0.87615966796875	0.00274444580078125	3095.23175418529
0.880584716796875	0.00278961181640625	3095.67425918417
0.885009765625	0.0028363037109375	3096.11676418306
0.889434814453125	0.002884521484375	3096.55926918194
0.89385986328125	0.0029339599609375	3097.00177418082
0.898284912109375	0.0029852294921875	3097.44427917971
0.9027099609375	0.0030377197265625	3097.88678417859
0.907135009765625	0.003092041015625	3098.32928917747
0.91156005859375	0.003148193359375	3098.77179417635
0.915985107421875	0.0032080078125	3099.21429917524
0.92041015625	0.003267822265625	3099.65680417412
0.924835205078125	0.00332977294921875	3100.099309173
0.92926025390625	0.00339385986328125	3100.54181417188
0.933685302734375	0.003460693359375	3100.98431917077
0.9381103515625	0.003533935546875	3101.42682416965
0.942535400390625	0.00360626220703125	3101.86932916853
0.94696044921875	0.00368255615234375	3102.31183416742
0.951385498046875	0.00376129150390625	3102.7543391663
0.955810546875	0.0038433837890625	3103.19684416518
0.960235595703125	0.00393035888671875	3103.63934916406
0.96466064453125	0.00402130126953125	3104.08185416295
0.969085693359375	0.004117431640625	3104.52435916183
0.9735107421875	0.00421844482421875	3104.96686416071
0.977935791015625	0.00432281494140625	3105.40936915959
0.98236083984375	0.0044354248046875	3105.85187415848
0.986785888671875	0.00455322265625	3106.29437915736
0.9912109375	0.00467926025390625	3106.73688415624
0.995635986328125	0.00481109619140625	3107.17938915513
1.00006103515625	0.00494964599609375	3107.62189415401
0.995635986328125	0.0041644287109375	3108.06439915289
0.9912109375	0.0035455322265625	3108.50690415177
0.986785888671875	0.00302978515625	3108.94940915066
0.98236083984375	0.00258697509765625	3109.39191414954
0.977935791015625	0.0021978759765625	3109.83441914842
0.9735107421875	0.00185394287109375	3110.27692414731
0.969085693359375	0.00154296875	3110.71942914619
0.96466064453125	0.00126220703125	3111.16193414507
0.960235595703125	0.00100830078125	3111.60443914395
0.955810546875	0.0007769775390625	3112.04694414284
0.951385498046875	0.00056640625	3112.48944914172
0.94696044921875	0.000373992919921875	3112.9319541406
0.942535400390625	0.000199066162109375	3113.37445913949
0.9381103515625	3.89617919921875E-05	3113.81696413837
0.933685302734375	-0.0001092529296875	3114.25946913725
0.92926025390625	-0.000241424560546875	3114.70197413613
0.924835205078125	-0.0003612060546875	3115.14447913502
0.92041015625	-0.000471710205078125	3115.5869841339
0.915985107421875	-0.00057177734375	3116.02948913278
0.91156005859375	-0.000662811279296875	3116.47199413166
0.907135009765625	-0.000745849609375	3116.91449913055
0.9027099609375	-0.000821533203125	3117.35700412943
0.898284912109375	-0.0008905029296875	3117.79950912831
0.89385986328125	-0.00095428466796875	3118.2420141272
0.889434814453125	-0.001011962890625	3118.68451912608
0.885009765625	-0.0010650634765625	3119.12702412496
0.880584716796875	-0.0011126708984375	3119.56952912384
0.87615966796875	-0.0011566162109375	3120.01203412273
0.871734619140625	-0.0011968994140625	3120.45453912161
0.8673095703125	-0.001234130859375	3120.89704412049
0.862884521484375	-0.00126800537109375	3121.33954911938
0.85845947265625	-0.0012982177734375	3121.78205411826
0.854034423828125	-0.001326904296875	3122.22455911714
0.849609375	-0.00135345458984375	3122.66706411602
0.845184326171875	-0.00137725830078125	3123.10956911491
0.84075927734375	-0.00139984130859375	3123.55207411379
0.836334228515625	-0.00141998291015625	3123.99457911267
0.8319091796875	-0.00143829345703125	3124.43708411155
0.827484130859375	-0.00145660400390625	3124.87958911044
0.82305908203125	-0.00147308349609375	3125.32209410932
0.818634033203125	-0.0014874267578125	3125.7645991082
0.814208984375	-0.0015020751953125	3126.20710410709
0.809783935546875	-0.001514892578125	3126.64960910597
0.80535888671875	-0.00152679443359375	3127.09211410485
0.800933837890625	-0.0015386962890625	3127.53461910373
0.7965087890625	-0.001549072265625	3127.97712410262
0.792083740234375	-0.00155914306640625	3128.4196291015
0.78765869140625	-0.00156768798828125	3128.86213410038
0.783233642578125	-0.00157623291015625	3129.30463909927
0.77880859375	-0.0015838623046875	3129.74714409815
0.774383544921875	-0.0015911865234375	3130.18964909703
0.76995849609375	-0.00159820556640625	3130.63215409591
0.765533447265625	-0.001605224609375	3131.0746590948
0.7611083984375	-0.00161102294921875	3131.51716409368
0.756683349609375	-0.00161651611328125	3131.95966909256
0.75225830078125	-0.0016217041015625	3132.40217409144
0.747833251953125	-0.00162689208984375	3132.84467909033
0.743408203125	-0.00163177490234375	3133.28718408921
0.738983154296875	-0.00163421630859375	3133.72968908809
0.73455810546875	-0.0016387939453125	3134.17219408698
0.730133056640625	-0.00164337158203125	3134.61469908586
0.7257080078125	-0.00164764404296875	3135.05720408474
0.721282958984375	-0.0016510009765625	3135.49970908362
0.71685791015625	-0.00165313720703125	3135.94221408251
0.712432861328125	-0.001656494140625	3136.38471908139
0.7080078125	-0.001658935546875	3136.82722408027
0.703582763671875	-0.0016619873046875	3137.26972907916
0.69915771484375	-0.00166351318359375	3137.71223407804
0.694732666015625	-0.001666259765625	3138.15473907692
0.6903076171875	-0.0016680908203125	3138.5972440758
0.685882568359375	-0.0016717529296875	3139.03974907469
0.68145751953125	-0.001673583984375	3139.48225407357
0.677032470703125	-0.001676025390625	3139.92475907245
0.672607421875	-0.00167816162109375	3140.36726407133
0.668182373046875	-0.001680908203125	3140.80976907022
0.66375732421875	-0.00168243408203125	3141.2522740691
0.659332275390625	-0.0016851806640625	3141.69477906798
0.6549072265625	-0.00168792724609375	3142.13728406687
0.650482177734375	-0.00168975830078125	3142.57978906575
0.64605712890625	-0.00169219970703125	3143.02229406463
0.641632080078125	-0.00169403076171875	3143.46479906351
0.63720703125	-0.0016961669921875	3143.9073040624
0.632781982421875	-0.001697998046875	3144.34980906128
0.62835693359375	-0.00170074462890625	3144.79231406016
0.623931884765625	-0.001707763671875	3145.23481905905
0.6195068359375	-0.0017083740234375	3145.67732405793
0.615081787109375	-0.0017108154296875	3146.11982905681
0.61065673828125	-0.0017132568359375	3146.56233405569
0.606231689453125	-0.00171539306640625	3147.00483905458
0.601806640625	-0.001717529296875	3147.44734405346
0.597381591796875	-0.0017205810546875	3147.88984905234
0.59295654296875	-0.00172393798828125	3148.33235405122
0.588531494140625	-0.001727294921875	3148.77485905011
0.5841064453125	-0.00172821044921875	3149.21736404899
0.579681396484375	-0.00173248291015625	3149.65986904787
0.57525634765625	-0.0017364501953125	3150.10237404676
0.570831298828125	-0.0017401123046875	3150.54487904564
0.56640625	-0.00174468994140625	3150.98738404452
0.561981201171875	-0.001748046875	3151.4298890434
0.55755615234375	-0.00175201416015625	3151.87239404229
0.553131103515625	-0.00175567626953125	3152.31489904117
0.5487060546875	-0.00175994873046875	3152.75740404005
0.544281005859375	-0.0017626953125	3153.19990903894
0.53985595703125	-0.00176727294921875	3153.64241403782
0.535430908203125	-0.00177154541015625	3154.0849190367
0.531005859375	-0.00177642822265625	3154.52742403558
0.526580810546875	-0.00177978515625	3154.96992903447
0.52215576171875	-0.0017840576171875	3155.41243403335
0.517730712890625	-0.0017889404296875	3155.85493903223
0.5133056640625	-0.00179351806640625	3156.29744403111
0.508880615234375	-0.001798095703125	3156.73994903
0.50445556640625	-0.0018023681640625	3157.18245402888
0.500030517578125	-0.00180633544921875	3157.62495902776
0.49560546875	-0.0018121337890625	3158.06746402665
0.491180419921875	-0.00181610107421875	3158.50996902553
0.48675537109375	-0.0018206787109375	3158.95247402441
0.482330322265625	-0.00182647705078125	3159.39497902329
0.4779052734375	-0.00183135986328125	3159.83748402218
0.473480224609375	-0.0018365478515625	3160.27998902106
0.46905517578125	-0.0018414306640625	3160.72249401994
0.464630126953125	-0.0018450927734375	3161.16499901883
0.460205078125	-0.00185028076171875	3161.60750401771
0.455780029296875	-0.00185516357421875	3162.05000901659
0.45135498046875	-0.0018597412109375	3162.49251401547
0.446929931640625	-0.0018658447265625	3162.93501901436
0.4425048828125	-0.0018701171875	3163.37752401324
0.438079833984375	-0.00187591552734375	3163.82002901212
0.43365478515625	-0.00188079833984375	3164.26253401101
0.429229736328125	-0.0018853759765625	3164.70503900989
0.4248046875	-0.001890869140625	3165.14754400877
0.420379638671875	-0.001895751953125	3165.59004900765
0.41595458984375	-0.001900634765625	3166.03255400654
0.411529541015625	-0.0019049072265625	3166.47505900542
0.4071044921875	-0.00191009521484375	3166.9175640043
0.402679443359375	-0.0019158935546875	3167.36006900318
0.39825439453125	-0.00192108154296875	3167.80257400207
0.393829345703125	-0.00192596435546875	3168.24507900095
0.389404296875	-0.00192962646484375	3168.68758399983
0.384979248046875	-0.00193511962890625	3169.13008899872
0.38055419921875	-0.0019403076171875	3169.5725939976
0.376129150390625	-0.00194580078125	3170.01509899648
0.3717041015625	-0.00195098876953125	3170.45760399536
0.367279052734375	-0.00195709228515625	3170.90010899425
0.36285400390625	-0.00196197509765625	3171.34261399313
0.358428955078125	-0.00196807861328125	3171.78511899201
0.35400390625	-0.00197357177734375	3172.2276239909
0.349578857421875	-0.0019769287109375	3172.67012898978
0.34515380859375	-0.0019830322265625	3173.11263398866
0.340728759765625	-0.00198883056640625	3173.55513898754
0.3363037109375	-0.0019952392578125	3173.99764398643
0.331878662109375	-0.0020013427734375	3174.44014898531
0.32745361328125	-0.00200836181640625	3174.88265398419
0.323028564453125	-0.00201507568359375	3175.32515898307
0.318603515625	-0.002021484375	3175.76766398196
0.314178466796875	-0.0020269775390625	3176.21016898084
0.30975341796875	-0.0020361328125	3176.65267397972
0.305328369140625	-0.0020416259765625	3177.09517897861
0.3009033203125	-0.00204803466796875	3177.53768397749
0.296478271484375	-0.0020550537109375	3177.98018897637
0.29205322265625	-0.00206146240234375	3178.42269397525
0.287628173828125	-0.00206817626953125	3178.86519897414
0.283203125	-0.00207489013671875	3179.30770397302
0.278778076171875	-0.0020819091796875	3179.7502089719
0.27435302734375	-0.00208984375	3180.19271397079
0.269927978515625	-0.00209716796875	3180.63521896967
0.2655029296875	-0.0021051025390625	3181.07772396855
0.261077880859375	-0.00211273193359375	3181.52022896743
0.25665283203125	-0.00212066650390625	3181.96273396632
0.252227783203125	-0.00212799072265625	3182.4052389652
0.247802734375	-0.00213653564453125	3182.84774396408
0.243377685546875	-0.00214385986328125	3183.29024896296
0.23895263671875	-0.00215240478515625	3183.73275396185
0.234527587890625	-0.00216156005859375	3184.17525896073
0.2301025390625	-0.002169189453125	3184.61776395961
0.225677490234375	-0.00217803955078125	3185.0602689585
0.22125244140625	-0.002186279296875	3185.50277395738
0.216827392578125	-0.0021954345703125	3185.94527895626
0.21240234375	-0.00220458984375	3186.38778395514
0.207977294921875	-0.00221405029296875	3186.83028895403
0.20355224609375	-0.0022235107421875	3187.27279395291
0.199127197265625	-0.0022332763671875	3187.71529895179
0.1947021484375	-0.00224365234375	3188.15780395068
0.190277099609375	-0.00225311279296875	3188.60030894956
0.18585205078125	-0.00226348876953125	3189.04281394844
0.181427001953125	-0.0022735595703125	3189.48531894732
0.177001953125	-0.00228485107421875	3189.92782394621
0.172576904296875	-0.002294921875	3190.37032894509
0.16815185546875	-0.002305908203125	3190.81283394397
0.163726806640625	-0.00231781005859375	3191.25533894285
0.1593017578125	-0.00232879638671875	3191.69784394174
0.154876708984375	-0.0023394775390625	3192.14034894062
0.15045166015625	-0.0023516845703125	3192.5828539395
0.146026611328125	-0.00236480712890625	3193.02535893839
0.1416015625	-0.00237701416015625	3193.46786393727
0.137176513671875	-0.00238983154296875	3193.91036893615
0.13275146484375	-0.00240325927734375	3194.35287393503
0.128326416015625	-0.00241729736328125	3194.79537893392
0.1239013671875	-0.00243072509765625	3195.2378839328
0.119476318359375	-0.00244476318359375	3195.68038893168
0.11505126953125	-0.00245697021484375	3196.12289393057
0.110626220703125	-0.0024725341796875	3196.56539892945
0.106201171875	-0.00248779296875	3197.00790392833
0.101776123046875	-0.002503662109375	3197.45040892721
0.09735107421875	-0.00251922607421875	3197.8929139261
0.092926025390625	-0.002535400390625	3198.33541892498
0.0885009765625	-0.00255218505859375	3198.77792392386
0.084075927734375	-0.002568359375	3199.22042892274
0.07965087890625	-0.0025848388671875	3199.66293392163
0.075225830078125	-0.002601318359375	3200.10543892051
0.07080078125	-0.0026202392578125	3200.54794391939
0.066375732421875	-0.0026373291015625	3200.99044891828
0.06195068359375	-0.0026556396484375	3201.43295391716
0.057525634765625	-0.0026739501953125	3201.87545891604
0.0531005859375	-0.00269287109375	3202.31796391492
0.048675537109375	-0.00271240234375	3202.76046891381
0.04425048828125	-0.00273162841796875	3203.20297391269
0.039825439453125	-0.00275115966796875	3203.64547891157
0.035400390625	-0.002772216796875	3204.08798391046
0.030975341796875	-0.0027923583984375	3204.53048890934
0.02655029296875	-0.0028143310546875	3204.97299390822
0.022125244140625	-0.0028350830078125	3205.4154989071
0.0177001953125	-0.00285736083984375	3205.85800390599
0.013275146484375	-0.00287872314453125	3206.30050890487
0.00885009765625	-0.0029022216796875	3206.74301390375
0.004425048828125	-0.0029254150390625	3207.18551890264
0	-0.00295013427734375	3207.62802390152
0.004425048828125	-0.00203399658203125	3208.0705289004
0.00885009765625	-0.0013134765625	3208.51303389928
0.013275146484375	-0.00073394775390625	3208.95553889817
0.0177001953125	-0.000261474609375	3209.39804389705
0.022125244140625	0.000126678466796875	3209.84054889593
0.02655029296875	0.00044842529296875	3210.28305389481
0.030975341796875	0.0007159423828125	3210.7255588937
0.035400390625	0.0009393310546875	3211.16806389258
0.039825439453125	0.00112457275390625	3211.61056889146
0.04425048828125	0.0012786865234375	3212.05307389035
0.048675537109375	0.00140594482421875	3212.49557888923
0.0531005859375	0.00151092529296875	3212.93808388811
0.057525634765625	0.00160308837890625	3213.38058888699
0.06195068359375	0.001680908203125	3213.82309388588
0.066375732421875	0.00174591064453125	3214.26559888476
0.07080078125	0.0017999267578125	3214.70810388364
0.075225830078125	0.001845703125	3215.15060888252
0.07965087890625	0.001881103515625	3215.59311388141
0.084075927734375	0.00191192626953125	3216.03561888029
0.0885009765625	0.00193695068359375	3216.47812387917
0.092926025390625	0.0019573974609375	3216.92062887806
0.09735107421875	0.0019732666015625	3217.36313387694
0.101776123046875	0.0019854736328125	3217.80563887582
0.106201171875	0.00199371337890625	3218.2481438747
0.110626220703125	0.002000732421875	3218.69064887359
0.11505126953125	0.0020050048828125	3219.13315387247
0.119476318359375	0.0020050048828125	3219.57565887135
0.1239013671875	0.002005615234375	3220.01816387024
0.128326416015625	0.002005615234375	3220.46066886912
0.13275146484375	0.00200347900390625	3220.903173868
0.137176513671875	0.00200103759765625	3221.34567886688
0.1416015625	0.00199737548828125	3221.78818386577
0.146026611328125	0.0019927978515625	3222.23068886465
0.15045166015625	0.0019873046875	3222.67319386353
0.154876708984375	0.00198089599609375	3223.11569886242
0.1593017578125	0.001973876953125	3223.5582038613
0.163726806640625	0.00196746826171875	3224.00070886018
0.16815185546875	0.00196075439453125	3224.44321385906
0.172576904296875	0.00195465087890625	3224.88571885795
0.177001953125	0.0019482421875	3225.32822385683
0.181427001953125	0.00194091796875	3225.77072885571
0.18585205078125	0.0019329833984375	3226.21323385459
0.190277099609375	0.00192596435546875	3226.65573885348
0.1947021484375	0.00191864013671875	3227.09824385236
0.199127197265625	0.001910400390625	3227.54074885124
0.20355224609375	0.00190338134765625	3227.98325385013
0.207977294921875	0.0018963623046875	3228.42575884901
0.21240234375	0.0018896484375	3228.86826384789
0.216827392578125	0.001883544921875	3229.31076884677
0.22125244140625	0.00187652587890625	3229.75327384566
0.225677490234375	0.00186920166015625	3230.19577884454
0.2301025390625	0.00186248779296875	3230.63828384342
0.234527587890625	0.0018548583984375	3231.08078884231
0.23895263671875	0.0018487548828125	3231.52329384119
0.243377685546875	0.00184295654296875	3231.96579884007
0.247802734375	0.00183685302734375	3232.40830383895
0.252227783203125	0.0018310546875	3232.85080883784
0.25665283203125	0.00182464599609375	3233.29331383672
0.261077880859375	0.00182037353515625	3233.7358188356
0.2655029296875	0.0018145751953125	3234.17832383448
0.269927978515625	0.00180938720703125	3234.62082883337
0.27435302734375	0.00180389404296875	3235.06333383225
0.278778076171875	0.00179901123046875	3235.50583883113
0.283203125	0.0017938232421875	3235.94834383002
0.287628173828125	0.0017889404296875	3236.3908488289
0.29205322265625	0.00178436279296875	3236.83335382778
0.296478271484375	0.00177978515625	3237.27585882666
0.3009033203125	0.00177520751953125	3237.71836382555
0.305328369140625	0.00177215576171875	3238.16086882443
0.30975341796875	0.00176788330078125	3238.60337382331
0.314178466796875	0.00176666259765625	3239.0458788222
0.318603515625	0.0017620849609375	3239.48838382108
0.323028564453125	0.0017578125	3239.93088881996
0.32745361328125	0.001754150390625	3240.37339381884
0.331878662109375	0.0017498779296875	3240.81589881773
0.3363037109375	0.001746826171875	3241.25840381661
0.340728759765625	0.0017431640625	3241.70090881549
0.34515380859375	0.0017388916015625	3242.14341381437
0.349578857421875	0.0017364501953125	3242.58591881326
0.35400390625	0.00173126220703125	3243.02842381214
0.358428955078125	0.001728515625	3243.47092881102
0.36285400390625	0.0017254638671875	3243.91343380991
0.367279052734375	0.00172393798828125	3244.35593880879
0.3717041015625	0.00172088623046875	3244.79844380767
0.376129150390625	0.00171844482421875	3245.24094880655
0.38055419921875	0.00171600341796875	3245.68345380544
0.384979248046875	0.0017132568359375	3246.12595880432
0.389404296875	0.00171051025390625	3246.5684638032
0.393829345703125	0.00170654296875	3247.01096880209
0.39825439453125	0.00170379638671875	3247.45347380097
0.402679443359375	0.0017010498046875	3247.89597879985
0.4071044921875	0.0016986083984375	3248.33848379873
0.411529541015625	0.0016961669921875	3248.78098879762
0.41595458984375	0.00169281005859375	3249.2234937965
0.420379638671875	0.001690673828125	3249.66599879538
0.4248046875	0.0016876220703125	3250.10850379426
0.429229736328125	0.00168609619140625	3250.55100879315
0.43365478515625	0.00168304443359375	3250.99351379203
0.438079833984375	0.0016815185546875	3251.43601879091
0.4425048828125	0.0016796875	3251.8785237898
0.446929931640625	0.0016778564453125	3252.32102878868
0.45135498046875	0.001676025390625	3252.76353378756
0.455780029296875	0.00167449951171875	3253.20603878644
0.460205078125	0.00167266845703125	3253.64854378533
0.464630126953125	0.00167144775390625	3254.09104878421
0.46905517578125	0.00166961669921875	3254.53355378309
0.473480224609375	0.00166778564453125	3254.97605878198
0.4779052734375	0.00166717529296875	3255.41856378086
0.482330322265625	0.00166595458984375	3255.86106877974
0.48675537109375	0.0016650390625	3256.30357377862
0.491180419921875	0.001663818359375	3256.74607877751
0.49560546875	0.00166351318359375	3257.18858377639
0.500030517578125	0.0016632080078125	3257.63108877527
0.50445556640625	0.00166290283203125	3258.07359377415
0.508880615234375	0.00166229248046875	3258.51609877304
0.5133056640625	0.00166290283203125	3258.95860377192
0.517730712890625	0.00166168212890625	3259.4011087708
0.52215576171875	0.0016619873046875	3259.84361376969
0.526580810546875	0.00166168212890625	3260.28611876857
0.531005859375	0.00166229248046875	3260.72862376745
0.535430908203125	0.00166259765625	3261.17112876633
0.53985595703125	0.00166290283203125	3261.61363376522
0.544281005859375	0.00166412353515625	3262.0561387641
0.5487060546875	0.001663818359375	3262.49864376298
0.553131103515625	0.0016656494140625	3262.94114876187
0.55755615234375	0.00166656494140625	3263.38365376075
0.561981201171875	0.00166839599609375	3263.82615875963
0.56640625	0.001669921875	3264.26866375851
0.570831298828125	0.0016717529296875	3264.7111687574
0.57525634765625	0.00167327880859375	3265.15367375628
0.579681396484375	0.0016754150390625	3265.59617875516
0.5841064453125	0.00167755126953125	3266.03868375404
0.588531494140625	0.001678466796875	3266.48118875293
0.59295654296875	0.00168243408203125	3266.92369375181
0.597381591796875	0.001685791015625	3267.36619875069
0.601806640625	0.00168853759765625	3267.80870374958
0.606231689453125	0.00169158935546875	3268.25120874846
0.61065673828125	0.00169586181640625	3268.69371374734
0.615081787109375	0.00170013427734375	3269.13621874622
0.6195068359375	0.00170379638671875	3269.57872374511
0.623931884765625	0.0017083740234375	3270.02122874399
0.62835693359375	0.00171661376953125	3270.46373374287
0.632781982421875	0.00171966552734375	3270.90623874176
0.63720703125	0.00172393798828125	3271.34874374064
0.641632080078125	0.001728515625	3271.79124873952
0.64605712890625	0.0017333984375	3272.2337537384
0.650482177734375	0.00173919677734375	3272.67625873729
0.6549072265625	0.0017449951171875	3273.11876373617
0.659332275390625	0.00175048828125	3273.56126873505
0.66375732421875	0.001756591796875	3274.00377373394
0.668182373046875	0.00176300048828125	3274.44627873282
0.672607421875	0.00177001953125	3274.8887837317
0.677032470703125	0.00177734375	3275.33128873058
0.68145751953125	0.00178466796875	3275.77379372947
0.685882568359375	0.00179290771484375	3276.21629872835
0.6903076171875	0.00180084228515625	3276.65880372723
0.694732666015625	0.00180877685546875	3277.10130872611
0.69915771484375	0.00181732177734375	3277.543813725
0.703582763671875	0.00182464599609375	3277.98631872388
0.7080078125	0.00183441162109375	3278.42882372276
0.712432861328125	0.0018450927734375	3278.87132872165
0.71685791015625	0.00185455322265625	3279.31383372053
0.721282958984375	0.0018658447265625	3279.75633871941
0.7257080078125	0.00187652587890625	3280.19884371829
0.730133056640625	0.00188812255859375	3280.64134871718
0.73455810546875	0.0018994140625	3281.08385371606
0.738983154296875	0.0019122314453125	3281.52635871494
0.743408203125	0.0019219970703125	3281.96886371383
0.747833251953125	0.00193572998046875	3282.41136871271
0.75225830078125	0.00194976806640625	3282.85387371159
0.756683349609375	0.0019647216796875	3283.29637871047
0.7611083984375	0.00197967529296875	3283.73888370936
0.765533447265625	0.00199432373046875	3284.18138870824
0.76995849609375	0.0020111083984375	3284.62389370712
0.774383544921875	0.00202728271484375	3285.066398706
0.77880859375	0.00204498291015625	3285.50890370489
0.783233642578125	0.00206207275390625	3285.95140870377
0.78765869140625	0.00208160400390625	3286.39391370265
0.792083740234375	0.00210113525390625	3286.83641870154
0.7965087890625	0.00212188720703125	3287.27892370042
0.800933837890625	0.00214447021484375	3287.7214286993
0.80535888671875	0.00216705322265625	3288.16393369818
0.809783935546875	0.00218963623046875	3288.60643869707
0.814208984375	0.00221343994140625	3289.04894369595
0.818634033203125	0.00223846435546875	3289.49144869483
0.82305908203125	0.002264404296875	3289.93395369372
0.827484130859375	0.00229156494140625	3290.3764586926
0.8319091796875	0.002320556640625	3290.81896369148
0.836334228515625	0.00235015869140625	3291.26146869036
0.84075927734375	0.00238037109375	3291.70397368925
0.845184326171875	0.0024127197265625	3292.14647868813
0.849609375	0.0024456787109375	3292.58898368701
0.854034423828125	0.00248077392578125	3293.03148868589
0.85845947265625	0.0025164794921875	3293.47399368478
0.862884521484375	0.00255218505859375	3293.91649868366
0.8673095703125	0.00259124755859375	3294.35900368254
0.871734619140625	0.0026324462890625	3294.80150868143
0.87615966796875	0.0026739501953125	3295.24401368031
0.880584716796875	0.0027166748046875	3295.68651867919
0.885009765625	0.00276123046875	3296.12902367807
0.889434814453125	0.002806396484375	3296.57152867696
0.89385986328125	0.00285308837890625	3297.01403367584
0.898284912109375	0.00290130615234375	3297.45653867472
0.9027099609375	0.00295013427734375	3297.89904367361
0.907135009765625	0.0030029296875	3298.34154867249
0.91156005859375	0.0030560302734375	3298.78405367137
0.915985107421875	0.003111572265625	3299.22655867025
0.92041015625	0.00316925048828125	3299.66906366914
0.924835205078125	0.003228759765625	3300.11156866802
0.92926025390625	0.003291015625	3300.5540736669
0.933685302734375	0.0033551025390625	3300.99657866578
0.9381103515625	0.003424072265625	3301.43908366467
0.942535400390625	0.00349365234375	3301.88158866355
0.94696044921875	0.00356536865234375	3302.32409366243
0.951385498046875	0.0036407470703125	3302.76659866132
0.955810546875	0.00372222900390625	3303.2091036602
0.960235595703125	0.0038067626953125	3303.65160865908
0.96466064453125	0.00389617919921875	3304.09411365796
0.969085693359375	0.0039886474609375	3304.53661865685
0.9735107421875	0.0040875244140625	3304.97912365573
0.977935791015625	0.004190673828125	3305.42162865461
0.98236083984375	0.00430023193359375	3305.8641336535
0.986785888671875	0.00441741943359375	3306.30663865238
0.9912109375	0.004539794921875	3306.74914365126
0.995635986328125	0.00467132568359375	3307.19164865014
1.00006103515625	0.0048077392578125	3307.63415364903
0.995635986328125	0.0040283203125	3308.07665864791
0.9912109375	0.00341644287109375	3308.51916364679
0.986785888671875	0.00290802001953125	3308.96166864567
0.98236083984375	0.00247283935546875	3309.40417364456
0.977935791015625	0.0020916748046875	3309.84667864344
0.9735107421875	0.0017547607421875	3310.28918364232
0.969085693359375	0.00145111083984375	3310.73168864121
0.96466064453125	0.0011767578125	3311.17419364009
0.960235595703125	0.0009295654296875	3311.61669863897
0.955810546875	0.00070465087890625	3312.05920363785
0.951385498046875	0.0004998779296875	3312.50170863674
0.94696044921875	0.000314361572265625	3312.94421363562
0.942535400390625	0.00014520263671875	3313.3867186345
0.9381103515625	-8.9752197265625E-06	3313.82922363339
0.933685302734375	-0.000151519775390625	3314.27172863227
0.92926025390625	-0.000278289794921875	3314.71423363115
0.924835205078125	-0.000393768310546875	3315.15673863003
0.92041015625	-0.000499298095703125	3315.59924362892
0.915985107421875	-0.000594482421875	3316.0417486278
0.91156005859375	-0.0006817626953125	3316.48425362668
0.907135009765625	-0.000760498046875	3316.92675862557
0.9027099609375	-0.0008331298828125	3317.36926362445
0.898284912109375	-0.00089874267578125	3317.81176862333
0.89385986328125	-0.00095855712890625	3318.25427362221
0.889434814453125	-0.00101287841796875	3318.6967786211
0.885009765625	-0.00106353759765625	3319.13928361998
0.880584716796875	-0.00110809326171875	3319.58178861886
0.87615966796875	-0.00114990234375	3320.02429361774
0.871734619140625	-0.001187744140625	3320.46679861663
0.8673095703125	-0.0012237548828125	3320.90930361551
0.862884521484375	-0.0012548828125	3321.35180861439
0.85845947265625	-0.00128326416015625	3321.79431361328
0.854034423828125	-0.0013104248046875	3322.23681861216
0.849609375	-0.00133575439453125	3322.67932361104
0.845184326171875	-0.00135833740234375	3323.12182860992
0.84075927734375	-0.0013800048828125	3323.56433360881
0.836334228515625	-0.00139923095703125	3324.00683860769
0.8319091796875	-0.00141693115234375	3324.44934360657
0.827484130859375	-0.00143341064453125	3324.89184860545
0.82305908203125	-0.00144927978515625	3325.33435360434
0.818634033203125	-0.00146270751953125	3325.77685860322
0.814208984375	-0.0014764404296875	3326.2193636021
0.809783935546875	-0.0014886474609375	3326.66186860099
0.80535888671875	-0.001500244140625	3327.10437359987
0.800933837890625	-0.00151123046875	3327.54687859875
0.7965087890625	-0.00152130126953125	3327.98938359763
0.792083740234375	-0.0015301513671875	3328.43188859652
0.78765869140625	-0.001539306640625	3328.8743935954
0.783233642578125	-0.00154693603515625	3329.31689859428
0.77880859375	-0.00155487060546875	3329.75940359317
0.774383544921875	-0.00156219482421875	3330.20190859205
0.76995849609375	-0.00156890869140625	3330.64441359093
0.765533447265625	-0.00157470703125	3331.08691858981
0.7611083984375	-0.0015814208984375	3331.5294235887
0.756683349609375	-0.0015869140625	3331.97192858758
0.75225830078125	-0.001593017578125	3332.41443358646
0.747833251953125	-0.0015972900390625	3332.85693858535
0.743408203125	-0.00160247802734375	3333.29944358423
0.738983154296875	-0.00160491943359375	3333.74194858311
0.73455810546875	-0.001610107421875	3334.18445358199
0.730133056640625	-0.00161346435546875	3334.62695858088
0.7257080078125	-0.001617431640625	3335.06946357976
0.721282958984375	-0.00162109375	3335.51196857864
0.71685791015625	-0.00162506103515625	3335.95447357752
0.712432861328125	-0.00162811279296875	3336.39697857641
0.7080078125	-0.001632080078125	3336.83948357529
0.703582763671875	-0.00163360595703125	3337.28198857417
0.69915771484375	-0.00163604736328125	3337.72449357306
0.694732666015625	-0.00163909912109375	3338.16699857194
0.6903076171875	-0.001641845703125	3338.60950357082
0.685882568359375	-0.0016448974609375	3339.0520085697
0.68145751953125	-0.00164703369140625	3339.49451356859
0.677032470703125	-0.00164947509765625	3339.93701856747
0.672607421875	-0.00165283203125	3340.37952356635
0.668182373046875	-0.00165496826171875	3340.82202856524
0.66375732421875	-0.00165679931640625	3341.26453356412
0.659332275390625	-0.00166015625	3341.707038563
0.6549072265625	-0.0016619873046875	3342.14954356188
0.650482177734375	-0.00166534423828125	3342.59204856077
0.64605712890625	-0.00166778564453125	3343.03455355965
0.641632080078125	-0.00167022705078125	3343.47705855853
0.63720703125	-0.0016729736328125	3343.91956355741
0.632781982421875	-0.00167572021484375	3344.3620685563
0.62835693359375	-0.00167877197265625	3344.80457355518
0.623931884765625	-0.001685791015625	3345.24707855406
0.6195068359375	-0.00168701171875	3345.68958355295
0.615081787109375	-0.00168792724609375	3346.13208855183
0.61065673828125	-0.001690673828125	3346.57459355071
0.606231689453125	-0.00169342041015625	3347.01709854959
0.601806640625	-0.0016961669921875	3347.45960354848
0.597381591796875	-0.0016986083984375	3347.90210854736
0.59295654296875	-0.00170257568359375	3348.34461354624
0.588531494140625	-0.00170501708984375	3348.78711854513
0.5841064453125	-0.00170684814453125	3349.22962354401
0.579681396484375	-0.0017108154296875	3349.67212854289
0.57525634765625	-0.00171478271484375	3350.11463354177
0.570831298828125	-0.00171844482421875	3350.55713854066
0.56640625	-0.00172210693359375	3350.99964353954
0.561981201171875	-0.00172637939453125	3351.44214853842
0.55755615234375	-0.00173004150390625	3351.8846535373
0.553131103515625	-0.00173431396484375	3352.32715853619
0.5487060546875	-0.00173828125	3352.76966353507
0.544281005859375	-0.00174102783203125	3353.21216853395
0.53985595703125	-0.00174530029296875	3353.65467353284
0.535430908203125	-0.001749267578125	3354.09717853172
0.531005859375	-0.00175384521484375	3354.5396835306
0.526580810546875	-0.00175811767578125	3354.98218852948
0.52215576171875	-0.0017633056640625	3355.42469352837
0.517730712890625	-0.001767578125	3355.86719852725
0.5133056640625	-0.0017724609375	3356.30970352613
0.508880615234375	-0.00177642822265625	3356.75220852502
0.50445556640625	-0.00178131103515625	3357.1947135239
0.500030517578125	-0.0017852783203125	3357.63721852278
0.49560546875	-0.00178985595703125	3358.07972352166
0.491180419921875	-0.0017950439453125	3358.52222852055
0.48675537109375	-0.00179901123046875	3358.96473351943
0.482330322265625	-0.00180450439453125	3359.40723851831
0.4779052734375	-0.00180938720703125	3359.84974351719
0.473480224609375	-0.00181396484375	3360.29224851608
0.46905517578125	-0.00181884765625	3360.73475351496
0.464630126953125	-0.001822509765625	3361.17725851384
0.460205078125	-0.00182769775390625	3361.61976351273
0.455780029296875	-0.00183319091796875	3362.06226851161
0.45135498046875	-0.00183868408203125	3362.50477351049
0.446929931640625	-0.0018438720703125	3362.94727850937
0.4425048828125	-0.00184906005859375	3363.38978350826
0.438079833984375	-0.0018536376953125	3363.83228850714
0.43365478515625	-0.00185791015625	3364.27479350602
0.429229736328125	-0.00186279296875	3364.71729850491
0.4248046875	-0.00186798095703125	3365.15980350379
0.420379638671875	-0.00187286376953125	3365.60230850267
0.41595458984375	-0.00187835693359375	3366.04481350155
0.411529541015625	-0.00188323974609375	3366.48731850044
0.4071044921875	-0.0018878173828125	3366.92982349932
0.402679443359375	-0.001893310546875	3367.3723284982
0.39825439453125	-0.00189910888671875	3367.81483349708
0.393829345703125	-0.0019036865234375	3368.25733849597
0.389404296875	-0.001907958984375	3368.69984349485
0.384979248046875	-0.00191253662109375	3369.14234849373
0.38055419921875	-0.0019183349609375	3369.58485349262
0.376129150390625	-0.00192352294921875	3370.0273584915
0.3717041015625	-0.0019293212890625	3370.46986349038
0.367279052734375	-0.00193450927734375	3370.91236848926
0.36285400390625	-0.00194000244140625	3371.35487348815
0.358428955078125	-0.0019451904296875	3371.79737848703
0.35400390625	-0.00195098876953125	3372.23988348591
0.349578857421875	-0.001954345703125	3372.6823884848
0.34515380859375	-0.00196136474609375	3373.12489348368
0.340728759765625	-0.00196685791015625	3373.56739848256
0.3363037109375	-0.00197357177734375	3374.00990348144
0.331878662109375	-0.00197967529296875	3374.45240848033
0.32745361328125	-0.00198577880859375	3374.89491347921
0.323028564453125	-0.00199188232421875	3375.33741847809
0.318603515625	-0.00199798583984375	3375.77992347698
0.314178466796875	-0.00200531005859375	3376.22242847586
0.30975341796875	-0.00201416015625	3376.66493347474
0.305328369140625	-0.00201995849609375	3377.10743847362
0.3009033203125	-0.00202606201171875	3377.54994347251
0.296478271484375	-0.0020330810546875	3377.99244847139
0.29205322265625	-0.002039794921875	3378.43495347027
0.287628173828125	-0.00204620361328125	3378.87745846915
0.283203125	-0.00205413818359375	3379.31996346804
0.278778076171875	-0.002060546875	3379.76246846692
0.27435302734375	-0.00206817626953125	3380.2049734658
0.269927978515625	-0.00207550048828125	3380.64747846469
0.2655029296875	-0.00208221435546875	3381.08998346357
0.261077880859375	-0.00209075927734375	3381.53248846245
0.25665283203125	-0.002098388671875	3381.97499346133
0.252227783203125	-0.00210693359375	3382.41749846022
0.247802734375	-0.00211456298828125	3382.8600034591
0.243377685546875	-0.00212310791015625	3383.30250845798
0.23895263671875	-0.00213165283203125	3383.74501345687
0.234527587890625	-0.00213958740234375	3384.18751845575
0.2301025390625	-0.00214752197265625	3384.63002345463
0.225677490234375	-0.00215606689453125	3385.07252845351
0.22125244140625	-0.00216522216796875	3385.5150334524
0.216827392578125	-0.00217529296875	3385.95753845128
0.21240234375	-0.00218414306640625	3386.40004345016
0.207977294921875	-0.00219329833984375	3386.84254844904
0.20355224609375	-0.0022027587890625	3387.28505344793
0.199127197265625	-0.00221282958984375	3387.72755844681
0.1947021484375	-0.00222259521484375	3388.17006344569
0.190277099609375	-0.002232666015625	3388.61256844458
0.18585205078125	-0.0022430419921875	3389.05507344346
0.181427001953125	-0.0022528076171875	3389.49757844234
0.177001953125	-0.00226470947265625	3389.94008344122
0.172576904296875	-0.002275390625	3390.38258844011
0.16815185546875	-0.00228668212890625	3390.82509343899
0.163726806640625	-0.00229736328125	3391.26759843787
0.1593017578125	-0.0023095703125	3391.71010343676
0.154876708984375	-0.0023211669921875	3392.15260843564
0.15045166015625	-0.00233306884765625	3392.59511343452
0.146026611328125	-0.00234527587890625	3393.0376184334
0.1416015625	-0.0023583984375	3393.48012343229
0.137176513671875	-0.002371826171875	3393.92262843117
0.13275146484375	-0.00238525390625	3394.36513343005
0.128326416015625	-0.00239990234375	3394.80763842893
0.1239013671875	-0.002413330078125	3395.25014342782
0.119476318359375	-0.00242767333984375	3395.6926484267
0.11505126953125	-0.002440185546875	3396.13515342558
0.110626220703125	-0.00245513916015625	3396.57765842447
0.106201171875	-0.002470703125	3397.02016342335
0.101776123046875	-0.00248748779296875	3397.46266842223
0.09735107421875	-0.00250274658203125	3397.90517342111
0.092926025390625	-0.00251922607421875	3398.34767842
0.0885009765625	-0.00253570556640625	3398.79018341888
0.084075927734375	-0.0025518798828125	3399.23268841776
0.07965087890625	-0.002569580078125	3399.67519341665
0.075225830078125	-0.00258514404296875	3400.11769841553
0.07080078125	-0.0026043701171875	3400.56020341441
0.066375732421875	-0.0026214599609375	3401.00270841329
0.06195068359375	-0.0026409912109375	3401.44521341218
0.057525634765625	-0.00265960693359375	3401.88771841106
0.0531005859375	-0.00267822265625	3402.33022340994
0.048675537109375	-0.00269775390625	3402.77272840882
0.04425048828125	-0.002718505859375	3403.21523340771
0.039825439453125	-0.00273834228515625	3403.65773840659
0.035400390625	-0.00275909423828125	3404.10024340547
0.030975341796875	-0.002779541015625	3404.54274840436
0.02655029296875	-0.00280181884765625	3404.98525340324
0.022125244140625	-0.002823486328125	3405.42775840212
0.0177001953125	-0.00284576416015625	3405.870263401
0.013275146484375	-0.0028692626953125	3406.31276839989
0.00885009765625	-0.002891845703125	3406.75527339877
0.004425048828125	-0.00291656494140625	3407.19777839765
0	-0.00294158935546875	3407.64028339654
0.004425048828125	-0.00202850341796875	3408.08278839542
0.00885009765625	-0.00130950927734375	3408.5252933943
0.013275146484375	-0.00073150634765625	3408.96779839318
