Potential applied (V)	WE(1).Current (A)	Time (s)
0.004425048828125	0.0007562255859375	1603.87328895061
0.00885009765625	0.0007916259765625	1604.75829894837
0.013275146484375	0.0008148193359375	1605.64330894614
0.0177001953125	0.00083221435546875	1606.52831894391
0.022125244140625	0.0008465576171875	1607.41332894167
0.02655029296875	0.0008587646484375	1608.29833893944
0.030975341796875	0.0008697509765625	1609.1833489372
0.035400390625	0.00087860107421875	1610.06835893497
0.039825439453125	0.000887451171875	1610.95336893273
0.04425048828125	0.000894775390625	1611.8383789305
0.048675537109375	0.0009014892578125	1612.72338892826
0.0531005859375	0.00090789794921875	1613.60839892603
0.057525634765625	0.00091400146484375	1614.4934089238
0.06195068359375	0.000919189453125	1615.37841892156
0.066375732421875	0.0009228515625	1616.26342891933
0.07080078125	0.0009259033203125	1617.14843891709
0.075225830078125	0.000928955078125	1618.03344891486
0.07965087890625	0.00092987060546875	1618.91845891262
0.084075927734375	0.00093170166015625	1619.80346891039
0.0885009765625	0.0009326171875	1620.68847890816
0.092926025390625	0.00093414306640625	1621.57348890592
0.09735107421875	0.0009344482421875	1622.45849890369
0.101776123046875	0.0009344482421875	1623.34350890145
0.106201171875	0.00093505859375	1624.22851889922
0.110626220703125	0.0009344482421875	1625.11352889698
0.11505126953125	0.00093353271484375	1625.99853889475
0.119476318359375	0.000931396484375	1626.88354889251
0.1239013671875	0.0009307861328125	1627.76855889028
0.128326416015625	0.00092926025390625	1628.65356888804
0.13275146484375	0.00092742919921875	1629.53857888581
0.137176513671875	0.00092620849609375	1630.42358888358
0.1416015625	0.0009246826171875	1631.30859888134
0.146026611328125	0.0009222412109375	1632.19360887911
0.15045166015625	0.00092010498046875	1633.07861887687
0.154876708984375	0.00091827392578125	1633.96362887464
0.1593017578125	0.00091522216796875	1634.8486388724
0.163726806640625	0.0009130859375	1635.73364887017
0.16815185546875	0.00091064453125	1636.61865886794
0.172576904296875	0.000909423828125	1637.5036688657
0.177001953125	0.00090667724609375	1638.38867886347
0.181427001953125	0.00090423583984375	1639.27368886123
0.18585205078125	0.00090179443359375	1640.158698859
0.190277099609375	0.0008990478515625	1641.04370885676
0.1947021484375	0.0008966064453125	1641.92871885453
0.199127197265625	0.00089447021484375	1642.81372885229
0.20355224609375	0.00089202880859375	1643.69873885006
0.207977294921875	0.00088958740234375	1644.58374884783
0.21240234375	0.0008880615234375	1645.46875884559
0.216827392578125	0.0008856201171875	1646.35376884336
0.22125244140625	0.0008831787109375	1647.23877884112
0.225677490234375	0.00088165283203125	1648.12378883889
0.2301025390625	0.0008795166015625	1649.00879883665
0.234527587890625	0.00087646484375	1649.89380883442
0.23895263671875	0.00087493896484375	1650.77881883218
0.243377685546875	0.0008734130859375	1651.66382882995
0.247802734375	0.00087188720703125	1652.54883882772
0.252227783203125	0.00087005615234375	1653.43384882548
0.25665283203125	0.00086822509765625	1654.31885882325
0.261077880859375	0.0008673095703125	1655.20386882101
0.2655029296875	0.000865478515625	1656.08887881878
0.269927978515625	0.00086456298828125	1656.97388881654
0.27435302734375	0.000863037109375	1657.85889881431
0.278778076171875	0.0008612060546875	1658.74390881207
0.283203125	0.0008599853515625	1659.62891880984
0.287628173828125	0.00085906982421875	1660.51392880761
0.29205322265625	0.0008575439453125	1661.39893880537
0.296478271484375	0.00085693359375	1662.28394880314
0.3009033203125	0.00085601806640625	1663.1689588009
0.305328369140625	0.00085479736328125	1664.05396879867
0.30975341796875	0.0008538818359375	1664.93897879643
0.314178466796875	0.00085479736328125	1665.8239887942
0.318603515625	0.00085235595703125	1666.70899879196
0.323028564453125	0.0008514404296875	1667.59400878973
0.32745361328125	0.00085052490234375	1668.4790187875
0.331878662109375	0.00084869384765625	1669.36402878526
0.3363037109375	0.0008477783203125	1670.24903878303
0.340728759765625	0.00084625244140625	1671.13404878079
0.34515380859375	0.00084503173828125	1672.01905877856
0.349578857421875	0.00084381103515625	1672.90406877632
0.35400390625	0.00084136962890625	1673.78907877409
0.358428955078125	0.00084075927734375	1674.67408877185
0.36285400390625	0.00083953857421875	1675.55909876962
0.367279052734375	0.0008392333984375	1676.44410876739
0.3717041015625	0.00083709716796875	1677.32911876515
0.376129150390625	0.000836181640625	1678.21412876292
0.38055419921875	0.0008349609375	1679.09913876068
0.384979248046875	0.000833740234375	1679.98414875845
0.389404296875	0.00083221435546875	1680.86915875621
0.393829345703125	0.000830078125	1681.75416875398
0.39825439453125	0.00082916259765625	1682.63917875174
0.402679443359375	0.00082763671875	1683.52418874951
0.4071044921875	0.000826416015625	1684.40919874728
0.411529541015625	0.00082489013671875	1685.29420874504
0.41595458984375	0.0008233642578125	1686.17921874281
0.420379638671875	0.00082275390625	1687.06422874057
0.4248046875	0.00082122802734375	1687.94923873834
0.429229736328125	0.00082061767578125	1688.8342487361
0.43365478515625	0.000819091796875	1689.71925873387
0.438079833984375	0.00081817626953125	1690.60426873163
0.4425048828125	0.00081695556640625	1691.4892787294
0.446929931640625	0.00081634521484375	1692.37428872717
0.45135498046875	0.0008154296875	1693.25929872493
0.455780029296875	0.0008148193359375	1694.1443087227
0.460205078125	0.000814208984375	1695.02931872046
0.464630126953125	0.0008135986328125	1695.91432871823
0.46905517578125	0.00081329345703125	1696.79933871599
0.473480224609375	0.00081298828125	1697.68434871376
0.4779052734375	0.00081329345703125	1698.56935871152
0.482330322265625	0.00081390380859375	1699.45436870929
0.48675537109375	0.00081390380859375	1700.33937870706
0.491180419921875	0.000814208984375	1701.22438870482
0.49560546875	0.00081390380859375	1702.10939870259
0.500030517578125	0.00081451416015625	1702.99440870035
0.50445556640625	0.00081512451171875	1703.87941869812
0.508880615234375	0.0008154296875	1704.76442869588
0.5133056640625	0.0008160400390625	1705.64943869365
0.517730712890625	0.00081756591796875	1706.53444869141
0.52215576171875	0.00081878662109375	1707.41945868918
0.526580810546875	0.00082000732421875	1708.30446868695
0.531005859375	0.000821533203125	1709.18947868471
0.535430908203125	0.0008233642578125	1710.07448868248
0.53985595703125	0.00082489013671875	1710.95949868024
0.544281005859375	0.0008270263671875	1711.84450867801
0.5487060546875	0.00082794189453125	1712.72951867577
0.553131103515625	0.0008306884765625	1713.61452867354
0.55755615234375	0.00083282470703125	1714.4995386713
0.561981201171875	0.0008355712890625	1715.38454866907
0.56640625	0.0008380126953125	1716.26955866684
0.570831298828125	0.00084075927734375	1717.1545686646
0.57525634765625	0.000843505859375	1718.03957866237
0.579681396484375	0.00084716796875	1718.92458866013
0.5841064453125	0.0008502197265625	1719.8095986579
0.588531494140625	0.00085174560546875	1720.69460865566
0.59295654296875	0.000855712890625	1721.57961865343
0.597381591796875	0.0008599853515625	1722.46462865119
0.601806640625	0.0008636474609375	1723.34963864896
0.606231689453125	0.00086761474609375	1724.23464864673
0.61065673828125	0.0008721923828125	1725.11965864449
0.615081787109375	0.00087615966796875	1726.00466864226
0.6195068359375	0.00088043212890625	1726.88967864002
0.623931884765625	0.000885009765625	1727.77468863779
0.62835693359375	0.00089263916015625	1728.65969863555
0.632781982421875	0.00089630126953125	1729.54470863332
0.63720703125	0.00090057373046875	1730.42971863109
0.641632080078125	0.00090606689453125	1731.31472862885
0.64605712890625	0.00091064453125	1732.19973862662
0.650482177734375	0.0009161376953125	1733.08474862438
0.6549072265625	0.0009222412109375	1733.96975862215
0.659332275390625	0.00092803955078125	1734.85476861991
0.66375732421875	0.0009344482421875	1735.73977861768
0.668182373046875	0.000941162109375	1736.62478861544
0.672607421875	0.0009478759765625	1737.50979861321
0.677032470703125	0.00095489501953125	1738.39480861097
0.68145751953125	0.00096221923828125	1739.27981860874
0.685882568359375	0.00097076416015625	1740.16482860651
0.6903076171875	0.0009783935546875	1741.04983860427
0.694732666015625	0.0009869384765625	1741.93484860204
0.69915771484375	0.00099639892578125	1742.8198585998
0.703582763671875	0.00100494384765625	1743.70486859757
0.7080078125	0.00101470947265625	1744.58987859533
0.712432861328125	0.00102508544921875	1745.4748885931
0.71685791015625	0.001036376953125	1746.35989859087
0.721282958984375	0.00104766845703125	1747.24490858863
0.7257080078125	0.0010589599609375	1748.1299185864
0.730133056640625	0.00107208251953125	1749.01492858416
0.73455810546875	0.00108489990234375	1749.89993858193
0.738983154296875	0.0010980224609375	1750.78494857969
0.743408203125	0.00110992431640625	1751.66995857746
0.747833251953125	0.0011260986328125	1752.55496857522
0.75225830078125	0.0011419677734375	1753.43997857299
0.756683349609375	0.0011578369140625	1754.32498857076
0.7611083984375	0.001175537109375	1755.20999856852
0.765533447265625	0.00119384765625	1756.09500856629
0.76995849609375	0.001212158203125	1756.98001856405
0.774383544921875	0.00123199462890625	1757.86502856182
0.77880859375	0.00125274658203125	1758.75003855958
0.783233642578125	0.0012738037109375	1759.63504855735
0.78765869140625	0.00129669189453125	1760.52005855511
0.792083740234375	0.00132049560546875	1761.40506855288
0.7965087890625	0.00134552001953125	1762.29007855065
0.800933837890625	0.0013720703125	1763.17508854841
0.80535888671875	0.00139892578125	1764.06009854618
0.809783935546875	0.0014288330078125	1764.94510854394
0.814208984375	0.00145904541015625	1765.83011854171
0.818634033203125	0.00149078369140625	1766.71512853947
0.82305908203125	0.00152435302734375	1767.60013853724
0.827484130859375	0.00155975341796875	1768.485148535
0.8319091796875	0.0015960693359375	1769.37015853277
0.836334228515625	0.00163482666015625	1770.25516853054
0.84075927734375	0.00167510986328125	1771.1401785283
0.845184326171875	0.001717529296875	1772.02518852607
0.849609375	0.00176177978515625	1772.91019852383
0.854034423828125	0.00180877685546875	1773.7952085216
0.85845947265625	0.001856689453125	1774.68021851936
0.862884521484375	0.00190521240234375	1775.56522851713
0.8673095703125	0.00195831298828125	1776.45023851489
0.871734619140625	0.00201416015625	1777.33524851266
0.87615966796875	0.0020709228515625	1778.22025851043
0.880584716796875	0.00213043212890625	1779.10526850819
0.885009765625	0.00219268798828125	1779.99027850596
0.889434814453125	0.0022576904296875	1780.87528850372
0.89385986328125	0.00232421875	1781.76029850149
0.898284912109375	0.00239471435546875	1782.64530849925
0.9027099609375	0.002467041015625	1783.53031849702
0.907135009765625	0.002542724609375	1784.41532849478
0.91156005859375	0.00262176513671875	1785.30033849255
0.915985107421875	0.00270355224609375	1786.18534849032
0.92041015625	0.00278717041015625	1787.07035848808
0.924835205078125	0.00287628173828125	1787.95536848585
0.92926025390625	0.002967529296875	1788.84037848361
0.933685302734375	0.0030615234375	1789.72538848138
0.9381103515625	0.00316253662109375	1790.61039847914
0.942535400390625	0.00326416015625	1791.49540847691
0.94696044921875	0.00336944580078125	1792.38041847467
0.951385498046875	0.00347808837890625	1793.26542847244
0.955810546875	0.003592529296875	1794.15043847021
0.960235595703125	0.0037091064453125	1795.03544846797
0.96466064453125	0.00383026123046875	1795.92045846574
0.969085693359375	0.00395599365234375	1796.8054684635
0.9735107421875	0.00408538818359375	1797.69047846127
0.977935791015625	0.004217529296875	1798.57548845903
0.98236083984375	0.00435546875	1799.4604984568
0.986785888671875	0.0044976806640625	1800.34550845456
0.9912109375	0.00464447021484375	1801.23051845233
0.995635986328125	0.004794921875	1802.1155284501
1.00006103515625	0.00494720458984375	1803.00053844786
0.995635986328125	0.00429107666015625	1803.88554844563
0.9912109375	0.00378631591796875	1804.77055844339
0.986785888671875	0.00336456298828125	1805.65556844116
0.98236083984375	0.00299468994140625	1806.54057843892
0.977935791015625	0.00266448974609375	1807.42558843669
0.9735107421875	0.002369384765625	1808.31059843445
0.969085693359375	0.00209686279296875	1809.19560843222
0.96466064453125	0.00184967041015625	1810.08061842999
0.960235595703125	0.0016229248046875	1810.96562842775
0.955810546875	0.00141510009765625	1811.85063842552
0.951385498046875	0.0012249755859375	1812.73564842328
0.94696044921875	0.00105072021484375	1813.62065842105
0.942535400390625	0.0008905029296875	1814.50566841881
0.9381103515625	0.00074432373046875	1815.39067841658
0.933685302734375	0.000606689453125	1816.27568841434
0.92926025390625	0.000483184814453125	1817.16069841211
0.924835205078125	0.000369903564453125	1818.04570840988
0.92041015625	0.000265472412109375	1818.93071840764
0.915985107421875	0.000170684814453125	1819.81572840541
0.91156005859375	8.2855224609375E-05	1820.70073840317
0.907135009765625	3.13720703125E-06	1821.58574840094
0.9027099609375	-7.1258544921875E-05	1822.4707583987
0.898284912109375	-0.0001383056640625	1823.35576839647
0.89385986328125	-0.0002008056640625	1824.24077839423
0.889434814453125	-0.00025750732421875	1825.125788392
0.885009765625	-0.000310577392578125	1826.01079838977
0.880584716796875	-0.0003585205078125	1826.89580838753
0.87615966796875	-0.00040289306640625	1827.7808183853
0.871734619140625	-0.00044317626953125	1828.66582838306
0.8673095703125	-0.000480865478515625	1829.55083838083
0.862884521484375	-0.000515411376953125	1830.43584837859
0.85845947265625	-0.000546173095703125	1831.32085837636
0.854034423828125	-0.00057635498046875	1832.20586837412
0.849609375	-0.000603424072265625	1833.09087837189
0.845184326171875	-0.00062835693359375	1833.97588836966
0.84075927734375	-0.00065155029296875	1834.86089836742
0.836334228515625	-0.000672607421875	1835.74590836519
0.8319091796875	-0.00069305419921875	1836.63091836295
0.827484130859375	-0.00071075439453125	1837.51592836072
0.82305908203125	-0.0007281494140625	1838.40093835848
0.818634033203125	-0.00074432373046875	1839.28594835625
0.814208984375	-0.000758056640625	1840.17095835402
0.809783935546875	-0.00077117919921875	1841.05596835178
0.80535888671875	-0.0007843017578125	1841.94097834955
0.800933837890625	-0.00079559326171875	1842.82598834731
0.7965087890625	-0.00080596923828125	1843.71099834508
0.792083740234375	-0.00081573486328125	1844.59600834284
0.78765869140625	-0.0008245849609375	1845.48101834061
0.783233642578125	-0.00083221435546875	1846.36602833837
0.77880859375	-0.0008392333984375	1847.25103833614
0.774383544921875	-0.0008465576171875	1848.1360483339
0.76995849609375	-0.00085235595703125	1849.02105833167
0.765533447265625	-0.000858154296875	1849.90606832944
0.7611083984375	-0.00086273193359375	1850.7910783272
0.756683349609375	-0.00086761474609375	1851.67608832497
0.75225830078125	-0.00087158203125	1852.56109832273
0.747833251953125	-0.0008746337890625	1853.4461083205
0.743408203125	-0.00087860107421875	1854.33111831826
0.738983154296875	-0.00087982177734375	1855.21612831603
0.73455810546875	-0.00088287353515625	1856.1011383138
0.730133056640625	-0.000885009765625	1856.98614831156
0.7257080078125	-0.00088714599609375	1857.87115830933
0.721282958984375	-0.00088958740234375	1858.75616830709
0.71685791015625	-0.00089080810546875	1859.64117830486
0.712432861328125	-0.00089202880859375	1860.52618830262
0.7080078125	-0.00089324951171875	1861.41119830039
0.703582763671875	-0.00089385986328125	1862.29620829815
0.69915771484375	-0.0008935546875	1863.18121829592
0.694732666015625	-0.00089385986328125	1864.06622829369
0.6903076171875	-0.00089385986328125	1864.95123829145
0.685882568359375	-0.00089324951171875	1865.83624828922
0.68145751953125	-0.00089263916015625	1866.72125828698
0.677032470703125	-0.000892333984375	1867.60626828475
0.672607421875	-0.00089111328125	1868.49127828251
0.668182373046875	-0.00089019775390625	1869.37628828028
0.66375732421875	-0.0008892822265625	1870.26129827804
0.659332275390625	-0.000888671875	1871.14630827581
0.6549072265625	-0.0008880615234375	1872.03131827358
0.650482177734375	-0.00088775634765625	1872.91632827134
0.64605712890625	-0.00088775634765625	1873.80133826911
0.641632080078125	-0.00088714599609375	1874.68634826687
0.63720703125	-0.00088592529296875	1875.57135826464
0.632781982421875	-0.00088409423828125	1876.4563682624
0.62835693359375	-0.00088348388671875	1877.34137826017
0.623931884765625	-0.00088623046875	1878.22638825793
0.6195068359375	-0.0008843994140625	1879.1113982557
0.615081787109375	-0.0008831787109375	1879.99640825347
0.61065673828125	-0.00088226318359375	1880.88141825123
0.606231689453125	-0.00088165283203125	1881.766428249
0.601806640625	-0.00088104248046875	1882.65143824676
0.597381591796875	-0.00088104248046875	1883.53644824453
0.59295654296875	-0.00088104248046875	1884.42145824229
0.588531494140625	-0.00088104248046875	1885.30646824006
0.5841064453125	-0.00087982177734375	1886.19147823782
0.579681396484375	-0.000880126953125	1887.07648823559
0.57525634765625	-0.00087982177734375	1887.96149823336
0.570831298828125	-0.00088043212890625	1888.84650823112
0.56640625	-0.0008807373046875	1889.73151822889
0.561981201171875	-0.0008807373046875	1890.61652822665
0.55755615234375	-0.00088134765625	1891.50153822442
0.553131103515625	-0.0008819580078125	1892.38654822218
0.5487060546875	-0.00088287353515625	1893.27155821995
0.544281005859375	-0.00088226318359375	1894.15656821771
0.53985595703125	-0.00088348388671875	1895.04157821548
0.535430908203125	-0.00088470458984375	1895.92658821325
0.531005859375	-0.00088531494140625	1896.81159821101
0.526580810546875	-0.00088623046875	1897.69660820878
0.52215576171875	-0.000887451171875	1898.58161820654
0.517730712890625	-0.00088836669921875	1899.46662820431
0.5133056640625	-0.00088958740234375	1900.35163820207
0.508880615234375	-0.0008905029296875	1901.23664819984
0.50445556640625	-0.00089141845703125	1902.1216581976
0.500030517578125	-0.00089324951171875	1903.00666819537
0.49560546875	-0.00089447021484375	1903.89167819314
0.491180419921875	-0.00089599609375	1904.7766881909
0.48675537109375	-0.000897216796875	1905.66169818867
0.482330322265625	-0.0008990478515625	1906.54670818643
0.4779052734375	-0.0009002685546875	1907.4317181842
0.473480224609375	-0.00090179443359375	1908.31672818196
0.46905517578125	-0.0009033203125	1909.20173817973
0.464630126953125	-0.000904541015625	1910.08674817749
0.460205078125	-0.00090606689453125	1910.97175817526
0.455780029296875	-0.00090789794921875	1911.85676817303
0.45135498046875	-0.000909423828125	1912.74177817079
0.446929931640625	-0.00091094970703125	1913.62678816856
0.4425048828125	-0.0009130859375	1914.51179816632
0.438079833984375	-0.00091461181640625	1915.39680816409
0.43365478515625	-0.00091644287109375	1916.28181816185
0.429229736328125	-0.00091827392578125	1917.16682815962
0.4248046875	-0.00092010498046875	1918.05183815738
0.420379638671875	-0.0009222412109375	1918.93684815515
0.41595458984375	-0.00092437744140625	1919.82185815292
0.411529541015625	-0.0009259033203125	1920.70686815068
0.4071044921875	-0.0009283447265625	1921.59187814845
0.402679443359375	-0.00093048095703125	1922.47688814621
0.39825439453125	-0.00093231201171875	1923.36189814398
0.393829345703125	-0.00093414306640625	1924.24690814174
0.389404296875	-0.00093536376953125	1925.13191813951
0.384979248046875	-0.00093780517578125	1926.01692813727
0.38055419921875	-0.00094024658203125	1926.90193813504
0.376129150390625	-0.0009429931640625	1927.78694813281
0.3717041015625	-0.00094512939453125	1928.67195813057
0.367279052734375	-0.00094818115234375	1929.55696812834
0.36285400390625	-0.00095001220703125	1930.4419781261
0.358428955078125	-0.0009527587890625	1931.32698812387
0.35400390625	-0.0009552001953125	1932.21199812163
0.349578857421875	-0.0009564208984375	1933.0970081194
0.34515380859375	-0.00096038818359375	1933.98201811716
0.340728759765625	-0.00096343994140625	1934.86702811493
0.3363037109375	-0.000966796875	1935.7520381127
0.331878662109375	-0.0009698486328125	1936.63704811046
0.32745361328125	-0.000972900390625	1937.52205810823
0.323028564453125	-0.0009759521484375	1938.40706810599
0.318603515625	-0.00097991943359375	1939.29207810376
0.314178466796875	-0.0009832763671875	1940.17708810152
0.30975341796875	-0.00098907470703125	1941.06209809929
0.305328369140625	-0.00099212646484375	1941.94710809705
0.3009033203125	-0.00099456787109375	1942.83211809482
0.296478271484375	-0.00099822998046875	1943.71712809259
0.29205322265625	-0.0010015869140625	1944.60213809035
0.287628173828125	-0.00100616455078125	1945.48714808812
0.283203125	-0.00100982666015625	1946.37215808588
0.278778076171875	-0.00101318359375	1947.25716808365
0.27435302734375	-0.00101776123046875	1948.14217808141
0.269927978515625	-0.001021728515625	1949.02718807918
0.2655029296875	-0.0010260009765625	1949.91219807695
0.261077880859375	-0.0010302734375	1950.79720807471
0.25665283203125	-0.0010345458984375	1951.68221807248
0.252227783203125	-0.00103851318359375	1952.56722807024
0.247802734375	-0.00104339599609375	1953.45223806801
0.243377685546875	-0.00104766845703125	1954.33724806577
0.23895263671875	-0.00105255126953125	1955.22225806354
0.234527587890625	-0.00105743408203125	1956.1072680613
0.2301025390625	-0.00106048583984375	1956.99227805907
0.225677490234375	-0.00106597900390625	1957.87728805683
0.22125244140625	-0.0010711669921875	1958.7622980546
0.216827392578125	-0.00107574462890625	1959.64730805237
0.21240234375	-0.00108123779296875	1960.53231805013
0.207977294921875	-0.0010858154296875	1961.4173280479
0.20355224609375	-0.00109100341796875	1962.30233804566
0.199127197265625	-0.00109619140625	1963.18734804343
0.1947021484375	-0.0011016845703125	1964.07235804119
0.190277099609375	-0.001107177734375	1964.95736803896
0.18585205078125	-0.0011126708984375	1965.84237803673
0.181427001953125	-0.0011181640625	1966.72738803449
0.177001953125	-0.0011248779296875	1967.61239803226
0.172576904296875	-0.00113067626953125	1968.49740803002
0.16815185546875	-0.001136474609375	1969.38241802779
0.163726806640625	-0.00114349365234375	1970.26742802555
0.1593017578125	-0.00115020751953125	1971.15243802332
0.154876708984375	-0.00115570068359375	1972.03744802108
0.15045166015625	-0.00116302490234375	1972.92245801885
0.146026611328125	-0.00117034912109375	1973.80746801662
0.1416015625	-0.001177978515625	1974.69247801438
0.137176513671875	-0.001185302734375	1975.57748801215
0.13275146484375	-0.00119293212890625	1976.46249800991
0.128326416015625	-0.00120086669921875	1977.34750800768
0.1239013671875	-0.00120880126953125	1978.23251800544
0.119476318359375	-0.00121673583984375	1979.11752800321
0.11505126953125	-0.00122344970703125	1980.00253800097
0.110626220703125	-0.0012322998046875	1980.88754799874
0.106201171875	-0.001241455078125	1981.77255799651
0.101776123046875	-0.00125	1982.65756799427
0.09735107421875	-0.0012591552734375	1983.54257799204
0.092926025390625	-0.001268310546875	1984.4275879898
0.0885009765625	-0.00127685546875	1985.31259798757
0.084075927734375	-0.0012860107421875	1986.19760798533
0.07965087890625	-0.00129547119140625	1987.0826179831
0.075225830078125	-0.00130340576171875	1987.96762798086
0.07080078125	-0.00131317138671875	1988.85263797863
0.066375732421875	-0.0013226318359375	1989.7376479764
0.06195068359375	-0.0013323974609375	1990.62265797416
0.057525634765625	-0.00134185791015625	1991.50766797193
0.0531005859375	-0.0013519287109375	1992.39267796969
0.048675537109375	-0.001361083984375	1993.27768796746
0.04425048828125	-0.00137115478515625	1994.16269796522
0.039825439453125	-0.0013812255859375	1995.04770796299
0.035400390625	-0.0013916015625	1995.93271796075
0.030975341796875	-0.00140289306640625	1996.81772795852
0.02655029296875	-0.0014129638671875	1997.70273795629
0.022125244140625	-0.001424560546875	1998.58774795405
0.0177001953125	-0.001435546875	1999.47275795182
0.013275146484375	-0.0014471435546875	2000.35776794958
0.00885009765625	-0.0014593505859375	2001.24277794735
0.004425048828125	-0.00147216796875	2002.12778794511
0	-0.001484375	2003.01279794288
0.004425048828125	-0.0007537841796875	2003.89780794064
0.00885009765625	-0.00027789306640625	2004.78281793841
0.013275146484375	4.47662353515625E-05	2005.66782793618
0.0177001953125	0.0002696533203125	2006.55283793394
0.022125244140625	0.000429901123046875	2007.43784793171
0.02655029296875	0.000546875	2008.32285792947
0.030975341796875	0.00063140869140625	2009.20786792724
0.035400390625	0.00069610595703125	2010.092877925
0.039825439453125	0.00074432373046875	2010.97788792277
0.04425048828125	0.0007818603515625	2011.86289792053
0.048675537109375	0.00081085205078125	2012.7479079183
0.0531005859375	0.00083343505859375	2013.63291791607
0.057525634765625	0.0008514404296875	2014.51792791383
0.06195068359375	0.00086456298828125	2015.4029379116
0.066375732421875	0.00087615966796875	2016.28794790936
0.07080078125	0.00088409423828125	2017.17295790713
0.075225830078125	0.00089141845703125	2018.05796790489
0.07965087890625	0.00089569091796875	2018.94297790266
0.084075927734375	0.00089935302734375	2019.82798790042
0.0885009765625	0.00090118408203125	2020.71299789819
0.092926025390625	0.0009033203125	2021.59800789596
0.09735107421875	0.000904541015625	2022.48301789372
0.101776123046875	0.00090423583984375	2023.36802789149
0.106201171875	0.0009039306640625	2024.25303788925
0.110626220703125	0.0009027099609375	2025.13804788702
0.11505126953125	0.00090118408203125	2026.02305788478
0.119476318359375	0.00089813232421875	2026.90806788255
0.1239013671875	0.00089630126953125	2027.79307788031
0.128326416015625	0.000894775390625	2028.67808787808
0.13275146484375	0.000892333984375	2029.56309787585
0.137176513671875	0.0008892822265625	2030.44810787361
0.1416015625	0.0008868408203125	2031.33311787138
0.146026611328125	0.0008843994140625	2032.21812786914
0.15045166015625	0.00088165283203125	2033.10313786691
0.154876708984375	0.00087921142578125	2033.98814786467
0.1593017578125	0.00087554931640625	2034.87315786244
0.163726806640625	0.00087249755859375	2035.7581678602
0.16815185546875	0.00087005615234375	2036.64317785797
0.172576904296875	0.00086639404296875	2037.52818785574
0.177001953125	0.00086395263671875	2038.4131978535
0.181427001953125	0.00086151123046875	2039.29820785127
0.18585205078125	0.0008587646484375	2040.18321784903
0.190277099609375	0.0008563232421875	2041.0682278468
0.1947021484375	0.000853271484375	2041.95323784456
0.199127197265625	0.0008502197265625	2042.83824784233
0.20355224609375	0.00084716796875	2043.72325784009
0.207977294921875	0.0008441162109375	2044.60826783786
0.21240234375	0.00084228515625	2045.49327783563
0.216827392578125	0.00083984375	2046.37828783339
0.22125244140625	0.00083740234375	2047.26329783116
0.225677490234375	0.00083526611328125	2048.14830782892
0.2301025390625	0.00083404541015625	2049.03331782669
0.234527587890625	0.0008306884765625	2049.91832782445
0.23895263671875	0.00082916259765625	2050.80333782222
0.243377685546875	0.00082763671875	2051.68834781998
0.247802734375	0.00082550048828125	2052.57335781775
0.252227783203125	0.0008233642578125	2053.45836781552
0.25665283203125	0.00082122802734375	2054.34337781328
0.261077880859375	0.00081939697265625	2055.22838781105
0.2655029296875	0.00081756591796875	2056.11339780881
0.269927978515625	0.0008160400390625	2056.99840780658
0.27435302734375	0.00081451416015625	2057.88341780434
0.278778076171875	0.00081298828125	2058.76842780211
0.283203125	0.00081146240234375	2059.65343779988
0.287628173828125	0.00081024169921875	2060.53844779764
0.29205322265625	0.00080902099609375	2061.42345779541
0.296478271484375	0.00080780029296875	2062.30846779317
0.3009033203125	0.00080718994140625	2063.19347779094
0.305328369140625	0.0008056640625	2064.0784877887
0.30975341796875	0.0008050537109375	2064.96349778647
0.314178466796875	0.0008056640625	2065.84850778423
0.318603515625	0.00080413818359375	2066.733517782
0.323028564453125	0.0008026123046875	2067.61852777976
0.32745361328125	0.00080169677734375	2068.50353777753
0.331878662109375	0.00080047607421875	2069.3885477753
0.3363037109375	0.000799560546875	2070.27355777306
0.340728759765625	0.00079833984375	2071.15856777083
0.34515380859375	0.00079803466796875	2072.04357776859
0.349578857421875	0.000797119140625	2072.92858776636
0.35400390625	0.00079437255859375	2073.81359776412
0.358428955078125	0.000794677734375	2074.69860776189
0.36285400390625	0.0007940673828125	2075.58361775966
0.367279052734375	0.0007940673828125	2076.46862775742
0.3717041015625	0.000792236328125	2077.35363775519
0.376129150390625	0.00079193115234375	2078.23864775295
0.38055419921875	0.000791015625	2079.12365775072
0.384979248046875	0.00079071044921875	2080.00866774848
0.389404296875	0.00078948974609375	2080.89367774625
0.393829345703125	0.00078826904296875	2081.77868774401
0.39825439453125	0.00078704833984375	2082.66369774178
0.402679443359375	0.00078643798828125	2083.54870773955
0.4071044921875	0.00078582763671875	2084.43371773731
0.411529541015625	0.0007855224609375	2085.31872773508
0.41595458984375	0.00078460693359375	2086.20373773284
0.420379638671875	0.0007843017578125	2087.08874773061
0.4248046875	0.00078369140625	2087.97375772837
0.429229736328125	0.00078277587890625	2088.85876772614
0.43365478515625	0.000782470703125	2089.7437777239
0.438079833984375	0.00078216552734375	2090.62878772167
0.4425048828125	0.0007818603515625	2091.51379771944
0.446929931640625	0.0007818603515625	2092.3988077172
0.45135498046875	0.00078155517578125	2093.28381771497
0.455780029296875	0.00078125	2094.16882771273
0.460205078125	0.00078125	2095.0538377105
0.464630126953125	0.00078125	2095.93884770826
0.46905517578125	0.00078033447265625	2096.82385770603
0.473480224609375	0.00078094482421875	2097.70886770379
0.4779052734375	0.00078094482421875	2098.59387770156
0.482330322265625	0.00078216552734375	2099.47888769933
0.48675537109375	0.000782470703125	2100.36389769709
0.491180419921875	0.000782470703125	2101.24890769486
0.49560546875	0.0007830810546875	2102.13391769262
0.500030517578125	0.00078369140625	2103.01892769039
0.50445556640625	0.00078460693359375	2103.90393768815
0.508880615234375	0.00078460693359375	2104.78894768592
0.5133056640625	0.00078582763671875	2105.67395768368
0.517730712890625	0.00078704833984375	2106.55896768145
0.52215576171875	0.00078765869140625	2107.44397767922
0.526580810546875	0.0007891845703125	2108.32898767698
0.531005859375	0.0007904052734375	2109.21399767475
0.535430908203125	0.00079193115234375	2110.09900767251
0.53985595703125	0.00079345703125	2110.98401767028
0.544281005859375	0.0007952880859375	2111.86902766804
0.5487060546875	0.00079681396484375	2112.75403766581
0.553131103515625	0.00079925537109375	2113.63904766357
0.55755615234375	0.00080108642578125	2114.52405766134
0.561981201171875	0.0008038330078125	2115.40906765911
0.56640625	0.0008050537109375	2116.29407765687
0.570831298828125	0.00080841064453125	2117.17908765464
0.57525634765625	0.0008111572265625	2118.0640976524
0.579681396484375	0.00081329345703125	2118.94910765017
0.5841064453125	0.000816650390625	2119.83411764793
0.588531494140625	0.00081817626953125	2120.7191276457
0.59295654296875	0.0008221435546875	2121.60413764346
0.597381591796875	0.00082611083984375	2122.48914764123
0.601806640625	0.00082977294921875	2123.374157639
0.606231689453125	0.0008331298828125	2124.25916763676
0.61065673828125	0.00083709716796875	2125.14417763453
0.615081787109375	0.000841064453125	2126.02918763229
0.6195068359375	0.0008453369140625	2126.91419763006
0.623931884765625	0.00084930419921875	2127.79920762782
0.62835693359375	0.00085662841796875	2128.68421762559
0.632781982421875	0.000860595703125	2129.56922762335
0.63720703125	0.0008642578125	2130.45423762112
0.641632080078125	0.00086944580078125	2131.33924761889
0.64605712890625	0.0008746337890625	2132.22425761665
0.650482177734375	0.0008795166015625	2133.10926761442
0.6549072265625	0.000885009765625	2133.99427761218
0.659332275390625	0.00089141845703125	2134.87928760995
0.66375732421875	0.000897216796875	2135.76429760771
0.668182373046875	0.00090362548828125	2136.64930760548
0.672607421875	0.00091033935546875	2137.53431760324
0.677032470703125	0.00091796875	2138.41932760101
0.68145751953125	0.00092437744140625	2139.30433759878
0.685882568359375	0.00093170166015625	2140.18934759654
0.6903076171875	0.00093902587890625	2141.07435759431
0.694732666015625	0.000947265625	2141.95936759207
0.69915771484375	0.000955810546875	2142.84437758984
0.703582763671875	0.0009637451171875	2143.7293875876
0.7080078125	0.0009735107421875	2144.61439758537
0.712432861328125	0.000982666015625	2145.49940758313
0.71685791015625	0.00099273681640625	2146.3844175809
0.721282958984375	0.0010028076171875	2147.26942757867
0.7257080078125	0.00101318359375	2148.15443757643
0.730133056640625	0.0010247802734375	2149.0394475742
0.73455810546875	0.001036376953125	2149.92445757196
0.738983154296875	0.001048583984375	2150.80946756973
0.743408203125	0.00105926513671875	2151.69447756749
0.747833251953125	0.00107330322265625	2152.57948756526
0.75225830078125	0.001087646484375	2153.46449756302
0.756683349609375	0.00110198974609375	2154.34950756079
0.7611083984375	0.00111785888671875	2155.23451755856
0.765533447265625	0.00113311767578125	2156.11952755632
0.76995849609375	0.00115020751953125	2157.00453755409
0.774383544921875	0.00116729736328125	2157.88954755185
0.77880859375	0.00118560791015625	2158.77455754962
0.783233642578125	0.001204833984375	2159.65956754738
0.78765869140625	0.00122528076171875	2160.54457754515
0.792083740234375	0.0012457275390625	2161.42958754291
0.7965087890625	0.0012677001953125	2162.31459754068
0.800933837890625	0.00128997802734375	2163.19960753845
0.80535888671875	0.001314697265625	2164.08461753621
0.809783935546875	0.0013397216796875	2164.96962753398
0.814208984375	0.00136566162109375	2165.85463753174
0.818634033203125	0.0013934326171875	2166.73964752951
0.82305908203125	0.00142120361328125	2167.62465752727
0.827484130859375	0.001451416015625	2168.50966752504
0.8319091796875	0.00148284912109375	2169.39467752281
0.836334228515625	0.00151611328125	2170.27968752057
0.84075927734375	0.0015496826171875	2171.16469751834
0.845184326171875	0.00158447265625	2172.0497075161
0.849609375	0.00162109375	2172.93471751387
0.854034423828125	0.00165985107421875	2173.81972751163
0.85845947265625	0.0016998291015625	2174.7047375094
0.862884521484375	0.00174041748046875	2175.58974750716
0.8673095703125	0.0017840576171875	2176.47475750493
0.871734619140625	0.0018292236328125	2177.35976750269
0.87615966796875	0.00187530517578125	2178.24477750046
0.880584716796875	0.00192413330078125	2179.12978749823
0.885009765625	0.0019744873046875	2180.01479749599
0.889434814453125	0.00202728271484375	2180.89980749376
0.89385986328125	0.0020806884765625	2181.78481749152
0.898284912109375	0.00213623046875	2182.66982748929
0.9027099609375	0.00219451904296875	2183.55483748705
0.907135009765625	0.0022552490234375	2184.43984748482
0.91156005859375	0.002318115234375	2185.32485748259
0.915985107421875	0.00238311767578125	2186.20986748035
0.92041015625	0.0024505615234375	2187.09487747812
0.924835205078125	0.00252197265625	2187.97988747588
0.92926025390625	0.00259613037109375	2188.86489747365
0.933685302734375	0.00267242431640625	2189.74990747141
0.9381103515625	0.00275604248046875	2190.63491746918
0.942535400390625	0.002840576171875	2191.51992746694
0.94696044921875	0.0029290771484375	2192.40493746471
0.951385498046875	0.0030218505859375	2193.28994746248
0.955810546875	0.00311920166015625	2194.17495746024
0.960235595703125	0.0032220458984375	2195.05996745801
0.96466064453125	0.00332855224609375	2195.94497745577
0.969085693359375	0.00344024658203125	2196.82998745354
0.9735107421875	0.003558349609375	2197.7149974513
0.977935791015625	0.00367889404296875	2198.60000744907
0.98236083984375	0.00380767822265625	2199.48501744683
0.986785888671875	0.0039410400390625	2200.3700274446
0.9912109375	0.004080810546875	2201.25503744237
0.995635986328125	0.00422576904296875	2202.14004744013
1.00006103515625	0.00437347412109375	2203.0250574379
0.995635986328125	0.00373809814453125	2203.91006743566
0.9912109375	0.00326141357421875	2204.79507743343
0.986785888671875	0.00286712646484375	2205.68008743119
0.98236083984375	0.00252655029296875	2206.56509742896
0.977935791015625	0.00222442626953125	2207.45010742672
0.9735107421875	0.0019586181640625	2208.33511742449
0.969085693359375	0.0017144775390625	2209.22012742226
0.96466064453125	0.00149383544921875	2210.10513742002
0.960235595703125	0.0012945556640625	2210.99014741779
0.955810546875	0.0011126708984375	2211.87515741555
0.951385498046875	0.0009466552734375	2212.76016741332
0.94696044921875	0.0007952880859375	2213.64517741108
0.942535400390625	0.00065826416015625	2214.53018740885
0.9381103515625	0.0005322265625	2215.41519740661
0.933685302734375	0.000415252685546875	2216.30020740438
0.92926025390625	0.00031170654296875	2217.18521740215
0.924835205078125	0.00021661376953125	2218.07022739991
0.92041015625	0.000129058837890625	2218.95523739768
0.915985107421875	5.0018310546875E-05	2219.84024739544
0.91156005859375	-2.3028564453125E-05	2220.72525739321
0.907135009765625	-8.9935302734375E-05	2221.61026739097
0.9027099609375	-0.00015093994140625	2222.49527738874
0.898284912109375	-0.0002073974609375	2223.3802873865
0.89385986328125	-0.000258392333984375	2224.26529738427
0.889434814453125	-0.00030572509765625	2225.15030738204
0.885009765625	-0.000349212646484375	2226.0353173798
0.880584716796875	-0.0003887939453125	2226.92032737757
0.87615966796875	-0.000425323486328125	2227.80533737533
0.871734619140625	-0.000458892822265625	2228.6903473731
0.8673095703125	-0.000490753173828125	2229.57535737086
0.862884521484375	-0.000519012451171875	2230.46036736863
0.85845947265625	-0.00054437255859375	2231.34537736639
0.854034423828125	-0.000568939208984375	2232.23038736416
0.849609375	-0.000591583251953125	2233.11539736193
0.845184326171875	-0.00061224365234375	2234.00040735969
0.84075927734375	-0.00063140869140625	2234.88541735746
0.836334228515625	-0.00064971923828125	2235.77042735522
0.8319091796875	-0.00066619873046875	2236.65543735299
0.827484130859375	-0.0006817626953125	2237.54044735075
0.82305908203125	-0.00069580078125	2238.42545734852
0.818634033203125	-0.0007086181640625	2239.31046734628
0.814208984375	-0.0007208251953125	2240.19547734405
0.809783935546875	-0.000732421875	2241.08048734182
0.80535888671875	-0.0007427978515625	2241.96549733958
0.800933837890625	-0.0007525634765625	2242.85050733735
0.7965087890625	-0.0007611083984375	2243.73551733511
0.792083740234375	-0.000770263671875	2244.62052733288
0.78765869140625	-0.00077789306640625	2245.50553733064
0.783233642578125	-0.000784912109375	2246.39054732841
0.77880859375	-0.00079071044921875	2247.27555732617
0.774383544921875	-0.00079681396484375	2248.16056732394
0.76995849609375	-0.0008026123046875	2249.04557732171
0.765533447265625	-0.00080780029296875	2249.93058731947
0.7611083984375	-0.00081268310546875	2250.81559731724
0.756683349609375	-0.000816650390625	2251.700607315
0.75225830078125	-0.00082061767578125	2252.58561731277
0.747833251953125	-0.000823974609375	2253.47062731053
0.743408203125	-0.00082733154296875	2254.3556373083
0.738983154296875	-0.00082855224609375	2255.24064730606
0.73455810546875	-0.00083221435546875	2256.12565730383
0.730133056640625	-0.0008343505859375	2257.0106673016
0.7257080078125	-0.0008367919921875	2257.89567729936
0.721282958984375	-0.0008392333984375	2258.78068729713
0.71685791015625	-0.000841064453125	2259.66569729489
0.712432861328125	-0.0008428955078125	2260.55070729266
0.7080078125	-0.0008447265625	2261.43571729042
0.703582763671875	-0.00084625244140625	2262.32072728819
0.69915771484375	-0.0008465576171875	2263.20573728595
0.694732666015625	-0.00084808349609375	2264.09074728372
0.6903076171875	-0.000849609375	2264.97575728149
0.685882568359375	-0.000850830078125	2265.86076727925
0.68145751953125	-0.00085205078125	2266.74577727702
0.677032470703125	-0.00085357666015625	2267.63078727478
0.672607421875	-0.00085418701171875	2268.51579727255
0.668182373046875	-0.0008551025390625	2269.40080727031
0.66375732421875	-0.00085601806640625	2270.28581726808
0.659332275390625	-0.00085693359375	2271.17082726584
0.6549072265625	-0.00085784912109375	2272.05583726361
0.650482177734375	-0.00085906982421875	2272.94084726138
0.64605712890625	-0.0008599853515625	2273.82585725914
0.641632080078125	-0.0008612060546875	2274.71086725691
0.63720703125	-0.00086273193359375	2275.59587725467
0.632781982421875	-0.000863037109375	2276.48088725244
0.62835693359375	-0.000863037109375	2277.3658972502
0.623931884765625	-0.0008673095703125	2278.25090724797
0.6195068359375	-0.0008660888671875	2279.13591724574
0.615081787109375	-0.0008660888671875	2280.0209272435
0.61065673828125	-0.00086700439453125	2280.90593724127
0.606231689453125	-0.000867919921875	2281.79094723903
0.601806640625	-0.0008685302734375	2282.6759572368
0.597381591796875	-0.00086883544921875	2283.56096723456
0.59295654296875	-0.0008697509765625	2284.44597723233
0.588531494140625	-0.00087005615234375	2285.33098723009
0.5841064453125	-0.00086944580078125	2286.21599722786
0.579681396484375	-0.00087127685546875	2287.10100722562
0.57525634765625	-0.00087249755859375	2287.98601722339
0.570831298828125	-0.00087371826171875	2288.87102722116
0.56640625	-0.00087493896484375	2289.75603721892
0.561981201171875	-0.00087646484375	2290.64104721669
0.55755615234375	-0.00087738037109375	2291.52605721445
0.553131103515625	-0.00087860107421875	2292.41106721222
0.5487060546875	-0.00088043212890625	2293.29607720998
0.544281005859375	-0.00088104248046875	2294.18108720775
0.53985595703125	-0.00088287353515625	2295.06609720552
0.535430908203125	-0.0008837890625	2295.95110720328
0.531005859375	-0.00088653564453125	2296.83611720105
0.526580810546875	-0.00088714599609375	2297.72112719881
0.52215576171875	-0.0008892822265625	2298.60613719658
0.517730712890625	-0.00089141845703125	2299.49114719434
0.5133056640625	-0.000892333984375	2300.37615719211
0.508880615234375	-0.0008941650390625	2301.26116718987
0.50445556640625	-0.00089569091796875	2302.14617718764
0.500030517578125	-0.00089752197265625	2303.03118718541
0.49560546875	-0.0008990478515625	2303.91619718317
0.491180419921875	-0.00090118408203125	2304.80120718094
0.48675537109375	-0.00090240478515625	2305.6862171787
0.482330322265625	-0.00090484619140625	2306.57122717647
0.4779052734375	-0.00090667724609375	2307.45623717423
0.473480224609375	-0.00090789794921875	2308.341247172
0.46905517578125	-0.00091064453125	2309.22625716976
0.464630126953125	-0.00091217041015625	2310.11126716753
0.460205078125	-0.00091400146484375	2310.9962771653
0.455780029296875	-0.0009161376953125	2311.88128716306
0.45135498046875	-0.00091827392578125	2312.76629716083
0.446929931640625	-0.00092041015625	2313.65130715859
0.4425048828125	-0.0009228515625	2314.53631715636
0.438079833984375	-0.00092437744140625	2315.42132715412
0.43365478515625	-0.00092620849609375	2316.30633715189
0.429229736328125	-0.0009283447265625	2317.19134714965
0.4248046875	-0.00093109130859375	2318.07635714742
0.420379638671875	-0.0009326171875	2318.96136714519
0.41595458984375	-0.00093505859375	2319.84637714295
0.411529541015625	-0.00093780517578125	2320.73138714072
0.4071044921875	-0.00093963623046875	2321.61639713848
0.402679443359375	-0.0009417724609375	2322.50140713625
0.39825439453125	-0.0009442138671875	2323.38641713401
0.393829345703125	-0.0009466552734375	2324.27142713178
0.389404296875	-0.00094757080078125	2325.15643712954
0.384979248046875	-0.00095062255859375	2326.04144712731
0.38055419921875	-0.00095367431640625	2326.92645712508
0.376129150390625	-0.000955810546875	2327.81146712284
0.3717041015625	-0.000958251953125	2328.69647712061
0.367279052734375	-0.0009613037109375	2329.58148711837
0.36285400390625	-0.00096405029296875	2330.46649711614
0.358428955078125	-0.0009661865234375	2331.3515071139
0.35400390625	-0.00096893310546875	2332.23651711167
0.349578857421875	-0.00097015380859375	2333.12152710943
0.34515380859375	-0.00097381591796875	2334.0065371072
0.340728759765625	-0.00097747802734375	2334.89154710497
0.3363037109375	-0.00098052978515625	2335.77655710273
0.331878662109375	-0.0009832763671875	2336.6615671005
0.32745361328125	-0.0009869384765625	2337.54657709826
0.323028564453125	-0.00099029541015625	2338.43158709603
0.318603515625	-0.00099334716796875	2339.31659709379
0.314178466796875	-0.0009967041015625	2340.20160709156
0.30975341796875	-0.00100250244140625	2341.08661708932
0.305328369140625	-0.00100555419921875	2341.97162708709
0.3009033203125	-0.001007080078125	2342.85663708486
0.296478271484375	-0.0010107421875	2343.74164708262
0.29205322265625	-0.00101470947265625	2344.62665708039
0.287628173828125	-0.00101806640625	2345.51166707815
0.283203125	-0.00102142333984375	2346.39667707592
0.278778076171875	-0.0010247802734375	2347.28168707368
0.27435302734375	-0.0010284423828125	2348.16669707145
0.269927978515625	-0.00103179931640625	2349.05170706921
0.2655029296875	-0.001036376953125	2349.93671706698
0.261077880859375	-0.00103973388671875	2350.82172706475
0.25665283203125	-0.00104400634765625	2351.70673706251
0.252227783203125	-0.00104766845703125	2352.59174706028
0.247802734375	-0.00105133056640625	2353.47675705804
0.243377685546875	-0.00105621337890625	2354.36176705581
0.23895263671875	-0.00106048583984375	2355.24677705357
0.234527587890625	-0.0010650634765625	2356.13178705134
0.2301025390625	-0.001068115234375	2357.0167970491
0.225677490234375	-0.00107330322265625	2357.90180704687
0.22125244140625	-0.0010784912109375	2358.78681704464
0.216827392578125	-0.001082763671875	2359.6718270424
0.21240234375	-0.0010870361328125	2360.55683704017
0.207977294921875	-0.0010919189453125	2361.44184703793
0.20355224609375	-0.00109649658203125	2362.3268570357
0.199127197265625	-0.001102294921875	2363.21186703346
0.1947021484375	-0.001107177734375	2364.09687703123
0.190277099609375	-0.001112060546875	2364.98188702899
0.18585205078125	-0.00111724853515625	2365.86689702676
0.181427001953125	-0.001123046875	2366.75190702453
0.177001953125	-0.001129150390625	2367.63691702229
0.172576904296875	-0.0011346435546875	2368.52192702006
0.16815185546875	-0.00114044189453125	2369.40693701782
0.163726806640625	-0.00114715576171875	2370.29194701559
0.1593017578125	-0.00115386962890625	2371.17695701335
0.154876708984375	-0.00115936279296875	2372.06196701112
0.15045166015625	-0.00116668701171875	2372.94697700888
0.146026611328125	-0.00117340087890625	2373.83198700665
0.1416015625	-0.0011810302734375	2374.71699700442
0.137176513671875	-0.001187744140625	2375.60200700218
0.13275146484375	-0.0011956787109375	2376.48701699995
0.128326416015625	-0.0012030029296875	2377.37202699771
0.1239013671875	-0.0012109375	2378.25703699548
0.119476318359375	-0.00121856689453125	2379.14204699324
0.11505126953125	-0.00122528076171875	2380.02705699101
0.110626220703125	-0.00123382568359375	2380.91206698877
0.106201171875	-0.0012432861328125	2381.79707698654
0.101776123046875	-0.001251220703125	2382.68208698431
0.09735107421875	-0.00126068115234375	2383.56709698207
0.092926025390625	-0.00126983642578125	2384.45210697984
0.0885009765625	-0.00127838134765625	2385.3371169776
0.084075927734375	-0.00128814697265625	2386.22212697537
0.07965087890625	-0.00129730224609375	2387.10713697313
0.075225830078125	-0.0013055419921875	2387.9921469709
0.07080078125	-0.0013153076171875	2388.87715696867
0.066375732421875	-0.00132476806640625	2389.76216696643
0.06195068359375	-0.00133514404296875	2390.6471769642
0.057525634765625	-0.00134490966796875	2391.53218696196
0.0531005859375	-0.00135528564453125	2392.41719695973
0.048675537109375	-0.00136505126953125	2393.30220695749
0.04425048828125	-0.00137664794921875	2394.18721695526
0.039825439453125	-0.001387939453125	2395.07222695302
0.035400390625	-0.00139892578125	2395.95723695079
0.030975341796875	-0.0014093017578125	2396.84224694855
0.02655029296875	-0.0014208984375	2397.72725694632
0.022125244140625	-0.00143310546875	2398.61226694409
0.0177001953125	-0.0014459228515625	2399.49727694185
0.013275146484375	-0.00145843505859375	2400.38228693962
0.00885009765625	-0.001470947265625	2401.26729693738
0.004425048828125	-0.001484375	2402.15230693515
0	-0.0014984130859375	2403.03731693291
0.004425048828125	-0.0007708740234375	2403.92232693068
0.00885009765625	-0.000294281005859375	2404.80733692845
0.013275146484375	2.950439453125E-05	2405.69234692621
0.0177001953125	0.00025604248046875	2406.57735692398
0.022125244140625	0.000418365478515625	2407.46236692174
0.02655029296875	0.00053680419921875	2408.34737691951
0.030975341796875	0.000623779296875	2409.23238691727
0.035400390625	0.0006884765625	2410.11739691504
0.039825439453125	0.0007373046875	2411.0024069128
0.04425048828125	0.00077606201171875	2411.88741691057
0.048675537109375	0.00080535888671875	2412.77242690834
0.0531005859375	0.000828857421875	2413.6574369061
0.057525634765625	0.0008477783203125	2414.54244690387
0.06195068359375	0.00086151123046875	2415.42745690163
0.066375732421875	0.000872802734375	2416.3124668994
0.07080078125	0.00088134765625	2417.19747689716
0.075225830078125	0.00088836669921875	2418.08248689493
0.07965087890625	0.00089202880859375	2418.96749689269
0.084075927734375	0.00089599609375	2419.85250689046
0.0885009765625	0.000899658203125	2420.73751688823
0.092926025390625	0.0009014892578125	2421.62252688599
0.09735107421875	0.00090240478515625	2422.50753688376
0.101776123046875	0.000902099609375	2423.39254688152
0.106201171875	0.00090179443359375	2424.27755687929
0.110626220703125	0.00090057373046875	2425.16256687705
0.11505126953125	0.00089935302734375	2426.04757687482
0.119476318359375	0.00089569091796875	2426.93258687258
0.1239013671875	0.00089447021484375	2427.81759687035
0.128326416015625	0.00089263916015625	2428.70260686812
0.13275146484375	0.00089019775390625	2429.58761686588
0.137176513671875	0.00088775634765625	2430.47262686365
0.1416015625	0.0008843994140625	2431.35763686141
0.146026611328125	0.0008819580078125	2432.24264685918
0.15045166015625	0.00087982177734375	2433.12765685694
0.154876708984375	0.00087677001953125	2434.01266685471
0.1593017578125	0.000872802734375	2434.89767685247
0.163726806640625	0.00087005615234375	2435.78268685024
0.16815185546875	0.0008673095703125	2436.66769684801
0.172576904296875	0.0008642578125	2437.55270684577
0.177001953125	0.00086151123046875	2438.43771684354
0.181427001953125	0.0008587646484375	2439.3227268413
0.18585205078125	0.00085601806640625	2440.20773683907
0.190277099609375	0.00085296630859375	2441.09274683683
0.1947021484375	0.00085052490234375	2441.9777568346
0.199127197265625	0.0008465576171875	2442.86276683236
0.20355224609375	0.00084381103515625	2443.74777683013
0.207977294921875	0.0008404541015625	2444.6327868279
0.21240234375	0.00083740234375	2445.51779682566
0.216827392578125	0.00083587646484375	2446.40280682343
0.22125244140625	0.00083282470703125	2447.28781682119
0.225677490234375	0.0008306884765625	2448.17282681896
0.2301025390625	0.0008282470703125	2449.05783681672
0.234527587890625	0.00082489013671875	2449.94284681449
0.23895263671875	0.000823974609375	2450.82785681225
0.243377685546875	0.0008221435546875	2451.71286681002
0.247802734375	0.0008203125	2452.59787680779
0.252227783203125	0.0008184814453125	2453.48288680555
0.25665283203125	0.000816650390625	2454.36789680332
0.261077880859375	0.0008148193359375	2455.25290680108
0.2655029296875	0.0008123779296875	2456.13791679885
0.269927978515625	0.00081085205078125	2457.02292679661
0.27435302734375	0.0008087158203125	2457.90793679438
0.278778076171875	0.000806884765625	2458.79294679214
0.283203125	0.00080535888671875	2459.67795678991
0.287628173828125	0.00080413818359375	2460.56296678768
0.29205322265625	0.00080322265625	2461.44797678544
0.296478271484375	0.00080169677734375	2462.33298678321
0.3009033203125	0.00080047607421875	2463.21799678097
0.305328369140625	0.00079864501953125	2464.10300677874
0.30975341796875	0.00079803466796875	2464.9880167765
0.314178466796875	0.00079925537109375	2465.87302677427
0.318603515625	0.000797119140625	2466.75803677203
0.323028564453125	0.00079559326171875	2467.6430467698
0.32745361328125	0.0007940673828125	2468.52805676757
0.331878662109375	0.00079254150390625	2469.41306676533
0.3363037109375	0.000792236328125	2470.2980767631
0.340728759765625	0.000791015625	2471.18308676086
0.34515380859375	0.00079010009765625	2472.06809675863
0.349578857421875	0.0007891845703125	2472.95310675639
0.35400390625	0.00078704833984375	2473.83811675416
0.358428955078125	0.00078643798828125	2474.72312675192
0.36285400390625	0.00078643798828125	2475.60813674969
0.367279052734375	0.00078582763671875	2476.49314674746
0.3717041015625	0.00078460693359375	2477.37815674522
0.376129150390625	0.0007843017578125	2478.26316674299
0.38055419921875	0.00078369140625	2479.14817674075
0.384979248046875	0.000782470703125	2480.03318673852
0.389404296875	0.00078155517578125	2480.91819673628
0.393829345703125	0.0007806396484375	2481.80320673405
0.39825439453125	0.000780029296875	2482.68821673181
0.402679443359375	0.0007794189453125	2483.57322672958
0.4071044921875	0.00077850341796875	2484.45823672735
0.411529541015625	0.00077850341796875	2485.34324672511
0.41595458984375	0.00077728271484375	2486.22825672288
0.420379638671875	0.00077667236328125	2487.11326672064
0.4248046875	0.0007763671875	2487.99827671841
0.429229736328125	0.00077606201171875	2488.88328671617
0.43365478515625	0.00077545166015625	2489.76829671394
0.438079833984375	0.00077545166015625	2490.6533067117
0.4425048828125	0.000775146484375	2491.53831670947
0.446929931640625	0.00077484130859375	2492.42332670724
0.45135498046875	0.0007745361328125	2493.308336705
0.455780029296875	0.000775146484375	2494.19334670277
0.460205078125	0.00077484130859375	2495.07835670053
0.464630126953125	0.00077484130859375	2495.9633666983
0.46905517578125	0.0007745361328125	2496.84837669606
0.473480224609375	0.000775146484375	2497.73338669383
0.4779052734375	0.000775146484375	2498.6183966916
0.482330322265625	0.0007757568359375	2499.50340668936
0.48675537109375	0.0007763671875	2500.38841668713
0.491180419921875	0.0007769775390625	2501.27342668489
0.49560546875	0.0007769775390625	2502.15843668266
0.500030517578125	0.000777587890625	2503.04344668042
0.50445556640625	0.0007781982421875	2503.92845667819
0.508880615234375	0.00077911376953125	2504.81346667595
0.5133056640625	0.000780029296875	2505.69847667372
0.517730712890625	0.0007806396484375	2506.58348667148
0.52215576171875	0.0007818603515625	2507.46849666925
0.526580810546875	0.00078369140625	2508.35350666702
0.531005859375	0.000784912109375	2509.23851666478
0.535430908203125	0.00078643798828125	2510.12352666255
0.53985595703125	0.00078826904296875	2511.00853666031
0.544281005859375	0.000789794921875	2511.89354665808
0.5487060546875	0.00079071044921875	2512.77855665584
0.553131103515625	0.00079315185546875	2513.66356665361
0.55755615234375	0.000794677734375	2514.54857665138
0.561981201171875	0.00079681396484375	2515.43358664914
0.56640625	0.000799560546875	2516.31859664691
0.570831298828125	0.000802001953125	2517.20360664467
0.57525634765625	0.000804443359375	2518.08861664244
0.579681396484375	0.000806884765625	2518.9736266402
0.5841064453125	0.00081024169921875	2519.85863663797
0.588531494140625	0.00081146240234375	2520.74364663573
0.59295654296875	0.0008154296875	2521.6286566335
0.597381591796875	0.000819091796875	2522.51366663127
0.601806640625	0.00082244873046875	2523.39867662903
0.606231689453125	0.000826416015625	2524.2836866268
0.61065673828125	0.00082977294921875	2525.16869662456
0.615081787109375	0.000833740234375	2526.05370662233
0.6195068359375	0.00083740234375	2526.93871662009
0.623931884765625	0.00084136962890625	2527.82372661786
0.62835693359375	0.0008489990234375	2528.70873661562
0.632781982421875	0.00085235595703125	2529.59374661339
0.63720703125	0.00085601806640625	2530.47875661116
0.641632080078125	0.00086029052734375	2531.36376660892
0.64605712890625	0.00086517333984375	2532.24877660669
0.650482177734375	0.000870361328125	2533.13378660445
0.6549072265625	0.0008758544921875	2534.01879660222
0.659332275390625	0.00088104248046875	2534.90380659998
0.66375732421875	0.0008868408203125	2535.78881659775
0.668182373046875	0.000892333984375	2536.67382659551
0.672607421875	0.00089935302734375	2537.55883659328
0.677032470703125	0.00090545654296875	2538.44384659105
0.68145751953125	0.000911865234375	2539.32885658881
0.685882568359375	0.000919189453125	2540.21386658658
0.6903076171875	0.00092620849609375	2541.09887658434
0.694732666015625	0.000933837890625	2541.98388658211
0.69915771484375	0.00094085693359375	2542.86889657987
0.703582763671875	0.000948486328125	2543.75390657764
0.7080078125	0.0009576416015625	2544.6389165754
0.712432861328125	0.000965576171875	2545.52392657317
0.71685791015625	0.000975341796875	2546.40893657094
0.721282958984375	0.00098480224609375	2547.2939465687
0.7257080078125	0.00099456787109375	2548.17895656647
0.730133056640625	0.0010052490234375	2549.06396656423
0.73455810546875	0.001015625	2549.948976562
0.738983154296875	0.00102691650390625	2550.83398655976
0.743408203125	0.0010369873046875	2551.71899655753
0.747833251953125	0.00104949951171875	2552.60400655529
0.75225830078125	0.00106231689453125	2553.48901655306
0.756683349609375	0.00107574462890625	2554.37402655083
0.7611083984375	0.0010894775390625	2555.25903654859
0.765533447265625	0.00110321044921875	2556.14404654636
0.76995849609375	0.0011181640625	2557.02905654412
0.774383544921875	0.0011346435546875	2557.91406654189
0.77880859375	0.00115142822265625	2558.79907653965
0.783233642578125	0.00116790771484375	2559.68408653742
0.78765869140625	0.00118621826171875	2560.56909653518
0.792083740234375	0.001204833984375	2561.45410653295
0.7965087890625	0.00122467041015625	2562.33911653072
0.800933837890625	0.0012451171875	2563.22412652848
0.80535888671875	0.00126708984375	2564.10913652625
0.809783935546875	0.0012896728515625	2564.99414652401
0.814208984375	0.0013134765625	2565.87915652178
0.818634033203125	0.00133758544921875	2566.76416651954
0.82305908203125	0.0013629150390625	2567.64917651731
0.827484130859375	0.00139068603515625	2568.53418651507
0.8319091796875	0.0014178466796875	2569.41919651284
0.836334228515625	0.0014471435546875	2570.30420651061
0.84075927734375	0.00147674560546875	2571.18921650837
0.845184326171875	0.00150909423828125	2572.07422650614
0.849609375	0.00154205322265625	2572.9592365039
0.854034423828125	0.001575927734375	2573.84424650167
0.85845947265625	0.001611328125	2574.72925649943
0.862884521484375	0.0016473388671875	2575.6142664972
0.8673095703125	0.0016864013671875	2576.49927649496
0.871734619140625	0.00172515869140625	2577.38428649273
0.87615966796875	0.00176666259765625	2578.2692964905
0.880584716796875	0.0018084716796875	2579.15430648826
0.885009765625	0.00185394287109375	2580.03931648603
0.889434814453125	0.00189971923828125	2580.92432648379
0.89385986328125	0.0019464111328125	2581.80933648156
0.898284912109375	0.001995849609375	2582.69434647932
0.9027099609375	0.0020465087890625	2583.57935647709
0.907135009765625	0.00209991455078125	2584.46436647485
0.91156005859375	0.00215301513671875	2585.34937647262
0.915985107421875	0.00221038818359375	2586.23438647039
0.92041015625	0.0022705078125	2587.11939646815
0.924835205078125	0.002332763671875	2588.00440646592
0.92926025390625	0.0023980712890625	2588.88941646368
0.933685302734375	0.002467041015625	2589.77442646145
0.9381103515625	0.00253997802734375	2590.65943645921
0.942535400390625	0.00261505126953125	2591.54444645698
0.94696044921875	0.00269256591796875	2592.42945645474
0.951385498046875	0.00277557373046875	2593.31446645251
0.955810546875	0.0028631591796875	2594.19947645028
0.960235595703125	0.00295623779296875	2595.08448644804
0.96466064453125	0.0030535888671875	2595.96949644581
0.969085693359375	0.00315643310546875	2596.85450644357
0.9735107421875	0.00326507568359375	2597.73951644134
0.977935791015625	0.00337677001953125	2598.6245264391
0.98236083984375	0.00349456787109375	2599.50953643687
0.986785888671875	0.00362060546875	2600.39454643463
0.9912109375	0.00375152587890625	2601.2795564324
0.995635986328125	0.0038909912109375	2602.16456643017
1.00006103515625	0.0040325927734375	2603.04957642793
0.995635986328125	0.00340911865234375	2603.9345864257
0.9912109375	0.00294891357421875	2604.81959642346
0.986785888671875	0.00257293701171875	2605.70460642123
0.98236083984375	0.0022509765625	2606.58961641899
0.977935791015625	0.00196929931640625	2607.47462641676
0.9735107421875	0.0017193603515625	2608.35963641453
0.969085693359375	0.0014935302734375	2609.24464641229
0.96466064453125	0.001290283203125	2610.12965641006
0.960235595703125	0.00110748291015625	2611.01466640782
0.955810546875	0.00094146728515625	2611.89967640559
0.951385498046875	0.00079010009765625	2612.78468640335
0.94696044921875	0.00065460205078125	2613.66969640112
0.942535400390625	0.0005303955078125	2614.55470639888
0.9381103515625	0.000417938232421875	2615.43971639665
0.933685302734375	0.000313323974609375	2616.32472639441
0.92926025390625	0.000221160888671875	2617.20973639218
0.924835205078125	0.000137481689453125	2618.09474638995
0.92041015625	6.0272216796875E-05	2618.97975638771
0.915985107421875	-9.89990234375E-06	2619.86476638548
0.91156005859375	-7.3455810546875E-05	2620.74977638324
0.907135009765625	-0.0001319580078125	2621.63478638101
0.9027099609375	-0.00018536376953125	2622.51979637877
0.898284912109375	-0.000233917236328125	2623.40480637654
0.89385986328125	-0.000279022216796875	2624.28981637431
0.889434814453125	-0.000320343017578125	2625.17482637207
0.885009765625	-0.000357421875	2626.05983636984
0.880584716796875	-0.000392486572265625	2626.9448463676
0.87615966796875	-0.000424346923828125	2627.82985636537
0.871734619140625	-0.000453887939453125	2628.71486636313
0.8673095703125	-0.000480743408203125	2629.5998763609
0.862884521484375	-0.000506072998046875	2630.48488635866
0.85845947265625	-0.0005284423828125	2631.36989635643
0.854034423828125	-0.000549652099609375	2632.2549063542
0.849609375	-0.00056988525390625	2633.13991635196
0.845184326171875	-0.00058795166015625	2634.02492634973
0.84075927734375	-0.0006051025390625	2634.90993634749
0.836334228515625	-0.0006207275390625	2635.79494634526
0.8319091796875	-0.00063568115234375	2636.67995634302
0.827484130859375	-0.00064910888671875	2637.56496634079
0.82305908203125	-0.0006622314453125	2638.44997633855
0.818634033203125	-0.00067413330078125	2639.33498633632
0.814208984375	-0.00068603515625	2640.21999633409
0.809783935546875	-0.00069580078125	2641.10500633185
0.80535888671875	-0.00070526123046875	2641.99001632962
0.800933837890625	-0.00071441650390625	2642.87502632738
0.7965087890625	-0.00072296142578125	2643.76003632515
0.792083740234375	-0.000731201171875	2644.64504632291
0.78765869140625	-0.0007379150390625	2645.53005632068
0.783233642578125	-0.00074493408203125	2646.41506631844
0.77880859375	-0.0007513427734375	2647.30007631621
0.774383544921875	-0.00075775146484375	2648.18508631398
0.76995849609375	-0.00076385498046875	2649.07009631174
0.765533447265625	-0.0007684326171875	2649.95510630951
0.7611083984375	-0.0007733154296875	2650.84011630727
0.756683349609375	-0.00077728271484375	2651.72512630504
0.75225830078125	-0.00078155517578125	2652.6101363028
0.747833251953125	-0.0007843017578125	2653.49514630057
0.743408203125	-0.00078765869140625	2654.38015629833
0.738983154296875	-0.00078948974609375	2655.2651662961
0.73455810546875	-0.00079254150390625	2656.15017629387
0.730133056640625	-0.0007958984375	2657.03518629163
0.7257080078125	-0.00079833984375	2657.9201962894
0.721282958984375	-0.00079986572265625	2658.80520628716
0.71685791015625	-0.000802001953125	2659.69021628493
0.712432861328125	-0.00080352783203125	2660.57522628269
0.7080078125	-0.0008056640625	2661.46023628046
0.703582763671875	-0.0008074951171875	2662.34524627822
0.69915771484375	-0.00080841064453125	2663.23025627599
0.694732666015625	-0.00080963134765625	2664.11526627376
0.6903076171875	-0.00081146240234375	2665.00027627152
0.685882568359375	-0.00081268310546875	2665.88528626929
0.68145751953125	-0.0008135986328125	2666.77029626705
0.677032470703125	-0.0008154296875	2667.65530626482
0.672607421875	-0.00081634521484375	2668.54031626258
0.668182373046875	-0.0008172607421875	2669.42532626035
0.66375732421875	-0.00081878662109375	2670.31033625811
0.659332275390625	-0.0008197021484375	2671.19534625588
0.6549072265625	-0.0008203125	2672.08035625365
0.650482177734375	-0.00082183837890625	2672.96536625141
0.64605712890625	-0.00082305908203125	2673.85037624918
0.641632080078125	-0.00082427978515625	2674.73538624694
0.63720703125	-0.0008258056640625	2675.62039624471
0.632781982421875	-0.00082611083984375	2676.50540624247
0.62835693359375	-0.00082672119140625	2677.39041624024
0.623931884765625	-0.00083038330078125	2678.275426238
0.6195068359375	-0.00082977294921875	2679.16043623577
0.615081787109375	-0.000830078125	2680.04544623354
0.61065673828125	-0.000831298828125	2680.9304562313
0.606231689453125	-0.00083221435546875	2681.81546622907
0.601806640625	-0.000833740234375	2682.70047622683
0.597381591796875	-0.000833740234375	2683.5854862246
0.59295654296875	-0.0008349609375	2684.47049622236
0.588531494140625	-0.0008367919921875	2685.35550622013
0.5841064453125	-0.000836181640625	2686.24051621789
0.579681396484375	-0.0008380126953125	2687.12552621566
0.57525634765625	-0.00083892822265625	2688.01053621343
0.570831298828125	-0.00084014892578125	2688.89554621119
0.56640625	-0.0008416748046875	2689.78055620896
0.561981201171875	-0.0008428955078125	2690.66556620672
0.55755615234375	-0.0008447265625	2691.55057620449
0.553131103515625	-0.000845947265625	2692.43558620225
0.5487060546875	-0.00084686279296875	2693.32059620002
0.544281005859375	-0.00084747314453125	2694.20560619778
0.53985595703125	-0.00084991455078125	2695.09061619555
0.535430908203125	-0.00085113525390625	2695.97562619332
0.531005859375	-0.00085235595703125	2696.86063619108
0.526580810546875	-0.0008544921875	2697.74564618885
0.52215576171875	-0.000855712890625	2698.63065618661
0.517730712890625	-0.00085693359375	2699.51566618438
0.5133056640625	-0.00085845947265625	2700.40067618214
0.508880615234375	-0.00086090087890625	2701.28568617991
0.50445556640625	-0.0008624267578125	2702.17069617767
0.500030517578125	-0.00086334228515625	2703.05570617544
0.49560546875	-0.00086578369140625	2703.94071617321
0.491180419921875	-0.0008673095703125	2704.82572617097
0.48675537109375	-0.000869140625	2705.71073616874
0.482330322265625	-0.00087127685546875	2706.5957461665
0.4779052734375	-0.00087310791015625	2707.48075616427
0.473480224609375	-0.00087493896484375	2708.36576616203
0.46905517578125	-0.00087738037109375	2709.2507761598
0.464630126953125	-0.00087799072265625	2710.13578615756
0.460205078125	-0.00088043212890625	2711.02079615533
0.455780029296875	-0.00088226318359375	2711.9058061531
0.45135498046875	-0.0008843994140625	2712.79081615086
0.446929931640625	-0.0008868408203125	2713.67582614863
0.4425048828125	-0.000888671875	2714.56083614639
0.438079833984375	-0.00089019775390625	2715.44584614416
0.43365478515625	-0.000892333984375	2716.33085614192
0.429229736328125	-0.00089447021484375	2717.21586613969
0.4248046875	-0.00089630126953125	2718.10087613746
0.420379638671875	-0.0008984375	2718.98588613522
0.41595458984375	-0.00089996337890625	2719.87089613299
0.411529541015625	-0.000902099609375	2720.75590613075
0.4071044921875	-0.00090423583984375	2721.64091612852
0.402679443359375	-0.00090667724609375	2722.52592612628
0.39825439453125	-0.00090911865234375	2723.41093612405
0.393829345703125	-0.00091094970703125	2724.29594612181
0.389404296875	-0.00091217041015625	2725.18095611958
0.384979248046875	-0.00091583251953125	2726.06596611734
0.38055419921875	-0.00091827392578125	2726.95097611511
0.376129150390625	-0.00092010498046875	2727.83598611288
0.3717041015625	-0.0009234619140625	2728.72099611064
0.367279052734375	-0.00092529296875	2729.60600610841
0.36285400390625	-0.000927734375	2730.49101610617
0.358428955078125	-0.0009307861328125	2731.37602610394
0.35400390625	-0.00093353271484375	2732.2610361017
0.349578857421875	-0.00093505859375	2733.14604609947
0.34515380859375	-0.0009375	2734.03105609724
0.340728759765625	-0.00094146728515625	2734.916066095
0.3363037109375	-0.0009442138671875	2735.80107609277
0.331878662109375	-0.00094696044921875	2736.68608609053
0.32745361328125	-0.00095001220703125	2737.5710960883
0.323028564453125	-0.000953369140625	2738.45610608606
0.318603515625	-0.00095672607421875	2739.34111608383
0.314178466796875	-0.0009600830078125	2740.22612608159
0.30975341796875	-0.00096588134765625	2741.11113607936
0.305328369140625	-0.00096832275390625	2741.99614607713
0.3009033203125	-0.0009710693359375	2742.88115607489
0.296478271484375	-0.00097442626953125	2743.76616607266
0.29205322265625	-0.0009783935546875	2744.65117607042
0.287628173828125	-0.00098175048828125	2745.53618606819
0.283203125	-0.0009857177734375	2746.42119606595
0.278778076171875	-0.0009893798828125	2747.30620606372
0.27435302734375	-0.0009930419921875	2748.19121606148
0.269927978515625	-0.000997314453125	2749.07622605925
0.2655029296875	-0.0010015869140625	2749.96123605702
0.261077880859375	-0.00100555419921875	2750.84624605478
0.25665283203125	-0.001009521484375	2751.73125605255
0.252227783203125	-0.0010137939453125	2752.61626605031
0.247802734375	-0.00101806640625	2753.50127604808
0.243377685546875	-0.00102264404296875	2754.38628604584
0.23895263671875	-0.0010272216796875	2755.27129604361
0.234527587890625	-0.00103271484375	2756.15630604137
0.2301025390625	-0.00103607177734375	2757.04131603914
0.225677490234375	-0.00104034423828125	2757.92632603691
0.22125244140625	-0.00104522705078125	2758.81133603467
0.216827392578125	-0.0010516357421875	2759.69634603244
0.21240234375	-0.00105621337890625	2760.5813560302
0.207977294921875	-0.00106109619140625	2761.46636602797
0.20355224609375	-0.00106658935546875	2762.35137602573
0.199127197265625	-0.00107177734375	2763.2363860235
0.1947021484375	-0.0010772705078125	2764.12139602126
0.190277099609375	-0.001082763671875	2765.00640601903
0.18585205078125	-0.00108917236328125	2765.8914160168
0.181427001953125	-0.001094970703125	2766.77642601456
0.177001953125	-0.0011004638671875	2767.66143601233
0.172576904296875	-0.001107177734375	2768.54644601009
0.16815185546875	-0.0011138916015625	2769.43145600786
0.163726806640625	-0.00112030029296875	2770.31646600562
0.1593017578125	-0.001126708984375	2771.20147600339
0.154876708984375	-0.0011334228515625	2772.08648600115
0.15045166015625	-0.00114013671875	2772.97149599892
0.146026611328125	-0.00114776611328125	2773.85650599669
0.1416015625	-0.0011553955078125	2774.74151599445
0.137176513671875	-0.00116241455078125	2775.62652599222
0.13275146484375	-0.00117034912109375	2776.51153598998
0.128326416015625	-0.00117950439453125	2777.39654598775
0.1239013671875	-0.00118743896484375	2778.28155598551
0.119476318359375	-0.00119598388671875	2779.16656598328
0.11505126953125	-0.00120269775390625	2780.05157598104
0.110626220703125	-0.001212158203125	2780.93658597881
0.106201171875	-0.00122039794921875	2781.82159597658
0.101776123046875	-0.00123046875	2782.70660597434
0.09735107421875	-0.0012396240234375	2783.59161597211
0.092926025390625	-0.001248779296875	2784.47662596987
0.0885009765625	-0.001258544921875	2785.36163596764
0.084075927734375	-0.00126800537109375	2786.2466459654
0.07965087890625	-0.001278076171875	2787.13165596317
0.075225830078125	-0.00128692626953125	2788.01666596093
0.07080078125	-0.001297607421875	2788.9016759587
0.066375732421875	-0.001307373046875	2789.78668595647
0.06195068359375	-0.001318359375	2790.67169595423
0.057525634765625	-0.00132904052734375	2791.556705952
0.0531005859375	-0.0013397216796875	2792.44171594976
0.048675537109375	-0.001351318359375	2793.32672594753
0.04425048828125	-0.00136260986328125	2794.21173594529
0.039825439453125	-0.0013739013671875	2795.09674594306
0.035400390625	-0.00138641357421875	2795.98175594082
0.030975341796875	-0.00139892578125	2796.86676593859
0.02655029296875	-0.00141143798828125	2797.75177593636
0.022125244140625	-0.00142333984375	2798.63678593412
0.0177001953125	-0.0014373779296875	2799.52179593189
0.013275146484375	-0.00145111083984375	2800.40680592965
0.00885009765625	-0.00146484375	2801.29181592742
0.004425048828125	-0.00147979736328125	2802.17682592518
0	-0.00149444580078125	2803.06183592295
0.004425048828125	-0.0007647705078125	2803.94684592071
0.00885009765625	-0.000289215087890625	2804.83185591848
0.013275146484375	3.38836669921875E-05	2805.71686591625
