Time (s)	WE(1).Potential (V)
66.002783833359	2.708740234375
66.0127838333337	2.708740234375
66.0227838333085	2.70843505859375
66.0327838332832	2.70904541015625
66.042783833258	2.708740234375
66.0527838332328	2.7081298828125
66.0627838332075	2.70904541015625
66.0727838331823	2.708740234375
66.082783833157	2.70843505859375
66.0927838331318	2.70843505859375
66.1027838331065	2.70843505859375
66.1127838330813	2.708740234375
66.122783833056	2.708740234375
66.1327838330308	2.708740234375
66.1427838330055	2.70843505859375
66.1527838329803	2.70843505859375
66.162783832955	2.708740234375
66.1727838329298	2.70904541015625
66.1827838329045	2.70904541015625
66.1927838328793	2.708740234375
66.202783832854	2.7093505859375
66.2127838328288	2.7093505859375
66.2227838328035	2.7093505859375
66.2327838327783	2.7099609375
66.242783832753	2.70965576171875
66.2527838327278	2.7093505859375
66.2627838327026	2.7093505859375
66.2727838326773	2.70965576171875
66.2827838326521	2.7093505859375
66.2927838326268	2.70965576171875
66.3027838326016	2.7093505859375
66.3127838325763	2.70904541015625
66.3227838325511	2.70965576171875
66.3327838325258	2.7099609375
66.3427838325006	2.7099609375
66.3527838324753	2.71026611328125
66.3627838324501	2.71026611328125
66.3727838324248	2.71026611328125
66.3827838323996	2.71026611328125
66.3927838323743	2.7105712890625
66.4027838323491	2.7105712890625
66.4127838323238	2.71087646484375
66.4227838322986	2.7105712890625
66.4327838322733	2.7105712890625
66.4427838322481	2.7105712890625
66.4527838322228	2.71087646484375
66.4627838321976	2.71087646484375
66.4727838321724	2.71148681640625
66.4827838321471	2.711181640625
66.4927838321219	2.711181640625
66.5027838320966	2.71087646484375
66.5127838320714	2.711181640625
66.5227838320461	2.711181640625
66.5327838320209	2.71148681640625
66.5427838319956	2.711181640625
66.5527838319704	2.71148681640625
66.5627838319451	2.71148681640625
66.5727838319199	2.711181640625
66.5827838318946	2.71148681640625
66.5927838318694	2.71148681640625
66.6027838318441	2.71148681640625
66.6127838318189	2.7117919921875
66.6227838317936	2.71209716796875
66.6327838317684	2.71209716796875
66.6427838317431	2.7117919921875
66.6527838317179	2.71148681640625
66.6627838316926	2.71148681640625
66.6727838316674	2.7117919921875
66.6827838316422	2.7117919921875
66.6927838316169	2.7117919921875
66.7027838315917	2.7117919921875
66.7127838315664	2.7117919921875
66.7227838315412	2.7117919921875
66.7327838315159	2.7117919921875
66.7427838314907	2.71148681640625
66.7527838314654	2.71148681640625
66.7627838314402	2.71148681640625
66.7727838314149	2.711181640625
66.7827838313897	2.71087646484375
66.7927838313644	2.71087646484375
66.8027838313392	2.711181640625
66.8127838313139	2.71148681640625
66.8227838312887	2.71087646484375
66.8327838312634	2.7105712890625
66.8427838312382	2.71087646484375
66.8527838312129	2.71087646484375
66.8627838311877	2.7105712890625
66.8727838311625	2.7105712890625
66.8827838311372	2.7105712890625
66.892783831112	2.71026611328125
66.9027838310867	2.7099609375
66.9127838310615	2.71026611328125
66.9227838310362	2.7099609375
66.932783831011	2.71026611328125
66.9427838309857	2.71026611328125
66.9527838309605	2.71026611328125
66.9627838309352	2.7099609375
66.97278383091	2.7099609375
66.9827838308847	2.71026611328125
66.9927838308595	2.70965576171875
67.0027838308342	2.70965576171875
67.012783830809	2.70965576171875
67.0227838307837	2.7099609375
67.0327838307585	2.7099609375
67.0427838307332	2.70965576171875
67.052783830708	2.70965576171875
67.0627838306827	2.7099609375
67.0727838306575	2.7093505859375
67.0827838306323	2.70965576171875
67.092783830607	2.7093505859375
67.1027838305818	2.7093505859375
67.1127838305565	2.70965576171875
67.1227838305313	2.71026611328125
67.132783830506	2.71026611328125
67.1427838304808	2.71026611328125
67.1527838304555	2.71026611328125
67.1627838304303	2.7099609375
67.172783830405	2.7099609375
67.1827838303798	2.7105712890625
67.1927838303545	2.71026611328125
67.2027838303293	2.71026611328125
67.212783830304	2.7099609375
67.2227838302788	2.71026611328125
67.2327838302535	2.7105712890625
67.2427838302283	2.71026611328125
67.252783830203	2.7105712890625
67.2627838301778	2.7105712890625
67.2727838301525	2.711181640625
67.2827838301273	2.71087646484375
67.2927838301021	2.71087646484375
67.3027838300768	2.71087646484375
67.3127838300516	2.71087646484375
67.3227838300263	2.71087646484375
67.3327838300011	2.71087646484375
67.3427838299758	2.71026611328125
67.3527838299506	2.7105712890625
67.3627838299253	2.71087646484375
67.3727838299001	2.7105712890625
67.3827838298748	2.71026611328125
67.3927838298496	2.71026611328125
67.4027838298243	2.71026611328125
67.4127838297991	2.71026611328125
67.4227838297738	2.71026611328125
67.4327838297486	2.71026611328125
67.4427838297233	2.71026611328125
67.4527838296981	2.71026611328125
67.4627838296728	2.7099609375
67.4727838296476	2.7099609375
67.4827838296223	2.7099609375
67.4927838295971	2.70965576171875
67.5027838295719	2.7099609375
67.5127838295466	2.7099609375
67.5227838295214	2.7099609375
67.5327838294961	2.70965576171875
67.5427838294709	2.70965576171875
67.5527838294456	2.70965576171875
67.5627838294204	2.7099609375
67.5727838293951	2.7099609375
67.5827838293699	2.7099609375
67.5927838293446	2.7099609375
67.6027838293194	2.70965576171875
67.6127838292941	2.70965576171875
67.6227838292689	2.70965576171875
67.6327838292436	2.7093505859375
67.6427838292184	2.7093505859375
67.6527838291931	2.70904541015625
67.6627838291679	2.70904541015625
67.6727838291426	2.7093505859375
67.6827838291174	2.70965576171875
67.6927838290921	2.7093505859375
67.7027838290669	2.7093505859375
67.7127838290417	2.70904541015625
67.7227838290164	2.7093505859375
67.7327838289912	2.70965576171875
67.7427838289659	2.70965576171875
67.7527838289407	2.70965576171875
67.7627838289154	2.7093505859375
67.7727838288902	2.7093505859375
67.7827838288649	2.7093505859375
67.7927838288397	2.708740234375
67.8027838288144	2.708740234375
67.8127838287892	2.708740234375
67.8227838287639	2.70843505859375
67.8327838287387	2.70843505859375
67.8427838287134	2.70843505859375
67.8527838286882	2.708740234375
67.8627838286629	2.708740234375
67.8727838286377	2.70843505859375
67.8827838286124	2.708740234375
67.8927838285872	2.70843505859375
67.902783828562	2.70843505859375
67.9127838285367	2.70843505859375
67.9227838285115	2.7081298828125
67.9327838284862	2.7081298828125
67.942783828461	2.70782470703125
67.9527838284357	2.7081298828125
67.9627838284105	2.70782470703125
67.9727838283852	2.70751953125
67.98278382836	2.70751953125
67.9927838283347	2.70751953125
68.0027838283095	2.7081298828125
68.0127838282842	2.7081298828125
68.022783828259	2.70782470703125
68.0327838282337	2.70782470703125
68.0427838282085	2.70751953125
68.0527838281832	2.70751953125
68.062783828158	2.70751953125
68.0727838281327	2.70782470703125
68.0827838281075	2.70782470703125
68.0927838280822	2.70782470703125
68.102783828057	2.70782470703125
68.1127838280318	2.70751953125
68.1227838280065	2.70751953125
68.1327838279813	2.70751953125
68.142783827956	2.70782470703125
68.1527838279308	2.70782470703125
68.1627838279055	2.70782470703125
68.1727838278803	2.7081298828125
68.182783827855	2.70782470703125
68.1927838278298	2.70782470703125
68.2027838278045	2.70782470703125
68.2127838277793	2.70782470703125
68.222783827754	2.70782470703125
68.2327838277288	2.70751953125
68.2427838277035	2.70751953125
68.2527838276783	2.70751953125
68.262783827653	2.70782470703125
68.2727838276278	2.70782470703125
68.2827838276025	2.70782470703125
68.2927838275773	2.70782470703125
68.302783827552	2.70782470703125
68.3127838275268	2.70782470703125
68.3227838275016	2.7081298828125
68.3327838274763	2.7081298828125
68.3427838274511	2.70843505859375
68.3527838274258	2.7081298828125
68.3627838274006	2.7081298828125
68.3727838273753	2.70843505859375
68.3827838273501	2.708740234375
68.3927838273248	2.70843505859375
68.4027838272996	2.708740234375
68.4127838272743	2.708740234375
68.4227838272491	2.708740234375
68.4327838272238	2.708740234375
68.4427838271986	2.70904541015625
68.4527838271733	2.708740234375
68.4627838271481	2.70904541015625
68.4727838271228	2.70904541015625
68.4827838270976	2.70904541015625
68.4927838270723	2.70904541015625
68.5027838270471	2.708740234375
68.5127838270218	2.70904541015625
68.5227838269966	2.7093505859375
68.5327838269714	2.7093505859375
68.5427838269461	2.70904541015625
68.5527838269209	2.70904541015625
68.5627838268956	2.70904541015625
68.5727838268704	2.708740234375
68.5827838268451	2.70904541015625
68.5927838268199	2.70904541015625
68.6027838267946	2.70904541015625
68.6127838267694	2.70904541015625
68.6227838267441	2.7093505859375
68.6327838267189	2.70965576171875
68.6427838266936	2.7099609375
68.6527838266684	2.71026611328125
68.6627838266431	2.71026611328125
68.6727838266179	2.71026611328125
68.6827838265926	2.71026611328125
68.6927838265674	2.7099609375
68.7027838265421	2.70965576171875
68.7127838265169	2.70965576171875
68.7227838264916	2.70965576171875
68.7327838264664	2.7099609375
68.7427838264412	2.7099609375
68.7527838264159	2.70965576171875
68.7627838263907	2.70965576171875
68.7727838263654	2.70965576171875
68.7827838263402	2.70965576171875
68.7927838263149	2.7093505859375
68.8027838262897	2.7093505859375
68.8127838262644	2.70965576171875
68.8227838262392	2.70965576171875
68.8327838262139	2.70965576171875
68.8427838261887	2.70965576171875
68.8527838261634	2.7093505859375
68.8627838261382	2.7093505859375
68.8727838261129	2.70965576171875
68.8827838260877	2.70965576171875
68.8927838260624	2.7093505859375
68.9027838260372	2.7093505859375
68.9127838260119	2.7093505859375
68.9227838259867	2.70904541015625
68.9327838259615	2.708740234375
68.9427838259362	2.708740234375
68.952783825911	2.7093505859375
68.9627838258857	2.7093505859375
68.9727838258605	2.7093505859375
68.9827838258352	2.7093505859375
68.99278382581	2.70965576171875
69.0027838257847	2.7099609375
69.0127838257595	2.7099609375
69.0227838257342	2.70965576171875
69.032783825709	2.7093505859375
69.0427838256837	2.70904541015625
69.0527838256585	2.708740234375
69.0627838256332	2.70904541015625
69.072783825608	2.70904541015625
69.0827838255827	2.7093505859375
69.0927838255575	2.708740234375
69.1027838255322	2.70904541015625
69.112783825507	2.708740234375
69.1227838254817	2.708740234375
69.1327838254565	2.708740234375
69.1427838254313	2.708740234375
69.152783825406	2.708740234375
69.1627838253808	2.708740234375
69.1727838253555	2.708740234375
69.1827838253303	2.708740234375
69.192783825305	2.708740234375
69.2027838252798	2.70904541015625
69.2127838252545	2.708740234375
69.2227838252293	2.708740234375
69.232783825204	2.708740234375
69.2427838251788	2.708740234375
69.2527838251535	2.70843505859375
69.2627838251283	2.70843505859375
69.272783825103	2.708740234375
69.2827838250778	2.70843505859375
69.2927838250525	2.70843505859375
69.3027838250273	2.708740234375
69.312783825002	2.708740234375
69.3227838249768	2.70843505859375
69.3327838249515	2.70843505859375
69.3427838249263	2.70843505859375
69.3527838249011	2.70843505859375
69.3627838248758	2.70843505859375
69.3727838248506	2.70843505859375
69.3827838248253	2.70843505859375
69.3927838248001	2.7081298828125
69.4027838247748	2.7081298828125
69.4127838247496	2.70782470703125
69.4227838247243	2.70782470703125
69.4327838246991	2.70782470703125
69.4427838246738	2.70751953125
69.4527838246486	2.70721435546875
69.4627838246233	2.70721435546875
69.4727838245981	2.70782470703125
69.4827838245728	2.70751953125
69.4927838245476	2.70782470703125
69.5027838245223	2.70751953125
69.5127838244971	2.7081298828125
69.5227838244718	2.70751953125
69.5327838244466	2.70782470703125
69.5427838244213	2.70782470703125
69.5527838243961	2.7081298828125
69.5627838243709	2.70843505859375
69.5727838243456	2.7081298828125
69.5827838243204	2.7081298828125
69.5927838242951	2.70782470703125
69.6027838242699	2.7081298828125
69.6127838242446	2.7081298828125
69.6227838242194	2.7081298828125
69.6327838241941	2.7081298828125
69.6427838241689	2.7081298828125
69.6527838241436	2.7081298828125
69.6627838241184	2.7081298828125
69.6727838240931	2.7081298828125
69.6827838240679	2.70782470703125
69.6927838240426	2.70782470703125
69.7027838240174	2.70782470703125
69.7127838239921	2.70782470703125
69.7227838239669	2.70782470703125
69.7327838239416	2.70782470703125
69.7427838239164	2.70782470703125
69.7527838238911	2.70751953125
69.7627838238659	2.70782470703125
69.7727838238407	2.70782470703125
69.7827838238154	2.70751953125
69.7927838237902	2.70782470703125
69.8027838237649	2.70782470703125
69.8127838237397	2.70782470703125
69.8227838237144	2.70782470703125
69.8327838236892	2.70751953125
69.8427838236639	2.70751953125
69.8527838236387	2.70721435546875
69.8627838236134	2.70751953125
69.8727838235882	2.70751953125
69.8827838235629	2.70782470703125
69.8927838235377	2.70782470703125
69.9027838235124	2.70751953125
69.9127838234872	2.70721435546875
69.9227838234619	2.7069091796875
69.9327838234367	2.70660400390625
69.9427838234114	2.70660400390625
69.9527838233862	2.70660400390625
69.962783823361	2.70660400390625
69.9727838233357	2.706298828125
69.9827838233105	2.706298828125
69.9927838232852	2.70660400390625
70.00278382326	2.70721435546875
70.0127838232347	2.70721435546875
70.0227838232095	2.70721435546875
70.0327838231842	2.7069091796875
70.042783823159	2.7069091796875
70.0527838231337	2.70751953125
70.0627838231085	2.70782470703125
70.0727838230832	2.70782470703125
70.082783823058	2.70751953125
70.0927838230327	2.70751953125
70.1027838230075	2.70721435546875
70.1127838229822	2.70721435546875
70.122783822957	2.70721435546875
70.1327838229317	2.7069091796875
70.1427838229065	2.7069091796875
70.1527838228812	2.7069091796875
70.162783822856	2.7069091796875
70.1727838228308	2.70721435546875
70.1827838228055	2.7069091796875
70.1927838227803	2.7069091796875
70.202783822755	2.70721435546875
70.2127838227298	2.7069091796875
70.2227838227045	2.7069091796875
70.2327838226793	2.70721435546875
70.242783822654	2.7069091796875
70.2527838226288	2.7069091796875
70.2627838226035	2.7069091796875
70.2727838225783	2.70660400390625
70.282783822553	2.70660400390625
70.2927838225278	2.7069091796875
70.3027838225025	2.70721435546875
70.3127838224773	2.70660400390625
70.322783822452	2.7069091796875
70.3327838224268	2.7069091796875
70.3427838224015	2.70660400390625
70.3527838223763	2.70660400390625
70.362783822351	2.70660400390625
70.3727838223258	2.7069091796875
70.3827838223006	2.7069091796875
70.3927838222753	2.7069091796875
70.4027838222501	2.7069091796875
70.4127838222248	2.7069091796875
70.4227838221996	2.70660400390625
70.4327838221743	2.70660400390625
70.4427838221491	2.70660400390625
70.4527838221238	2.70660400390625
70.4627838220986	2.70660400390625
70.4727838220733	2.7069091796875
70.4827838220481	2.70660400390625
70.4927838220228	2.7069091796875
70.5027838219976	2.70721435546875
70.5127838219723	2.7069091796875
70.5227838219471	2.7069091796875
70.5327838219218	2.70751953125
70.5427838218966	2.70721435546875
70.5527838218713	2.70751953125
70.5627838218461	2.7069091796875
70.5727838218208	2.7069091796875
70.5827838217956	2.7069091796875
70.5927838217704	2.7069091796875
70.6027838217451	2.7069091796875
70.6127838217199	2.7069091796875
70.6227838216946	2.70660400390625
70.6327838216694	2.7069091796875
70.6427838216441	2.7069091796875
70.6527838216189	2.70660400390625
70.6627838215936	2.706298828125
70.6727838215684	2.70660400390625
70.6827838215431	2.706298828125
70.6927838215179	2.70599365234375
70.7027838214926	2.706298828125
70.7127838214674	2.706298828125
70.7227838214421	2.706298828125
70.7327838214169	2.706298828125
70.7427838213916	2.70660400390625
70.7527838213664	2.7069091796875
70.7627838213411	2.7069091796875
70.7727838213159	2.7069091796875
70.7827838212906	2.70721435546875
70.7927838212654	2.70660400390625
70.8027838212402	2.7069091796875
70.8127838212149	2.7069091796875
70.8227838211897	2.7069091796875
70.8327838211644	2.70660400390625
70.8427838211392	2.70660400390625
70.8527838211139	2.706298828125
70.8627838210887	2.70660400390625
70.8727838210634	2.70660400390625
70.8827838210382	2.7069091796875
70.8927838210129	2.706298828125
70.9027838209877	2.706298828125
70.9127838209624	2.70660400390625
70.9227838209372	2.70660400390625
70.9327838209119	2.70660400390625
70.9427838208867	2.7069091796875
70.9527838208614	2.70660400390625
70.9627838208362	2.70660400390625
70.9727838208109	2.70660400390625
70.9827838207857	2.70660400390625
70.9927838207605	2.70660400390625
