Time (s)	WE(1).Potential (V)
145.505034632635	2.6934814453125
145.51503463261	2.6934814453125
145.525034632585	2.6934814453125
145.535034632559	2.69378662109375
145.545034632534	2.69378662109375
145.555034632509	2.69317626953125
145.565034632484	2.69287109375
145.575034632458	2.69287109375
145.585034632433	2.69317626953125
145.595034632408	2.69287109375
145.605034632383	2.69287109375
145.615034632357	2.69256591796875
145.625034632332	2.69287109375
145.635034632307	2.69378662109375
145.645034632282	2.694091796875
145.655034632256	2.69378662109375
145.665034632231	2.6934814453125
145.675034632206	2.69287109375
145.685034632181	2.69256591796875
145.695034632155	2.6922607421875
145.70503463213	2.69256591796875
145.715034632105	2.69256591796875
145.72503463208	2.69256591796875
145.735034632054	2.6922607421875
145.745034632029	2.6922607421875
145.755034632004	2.69287109375
145.765034631979	2.69256591796875
145.775034631953	2.69317626953125
145.785034631928	2.69256591796875
145.795034631903	2.69256591796875
145.805034631878	2.69256591796875
145.815034631852	2.69195556640625
145.825034631827	2.69287109375
145.835034631802	2.6922607421875
145.845034631777	2.69195556640625
145.855034631751	2.69195556640625
145.865034631726	2.6922607421875
145.875034631701	2.69195556640625
145.885034631676	2.69195556640625
145.89503463165	2.69195556640625
145.905034631625	2.69195556640625
145.9150346316	2.6922607421875
145.925034631575	2.6922607421875
145.935034631549	2.69256591796875
145.945034631524	2.69317626953125
145.955034631499	2.69287109375
145.965034631474	2.69287109375
145.975034631448	2.69317626953125
145.985034631423	2.69287109375
145.995034631398	2.69287109375
146.005034631373	2.69287109375
146.015034631347	2.69287109375
146.025034631322	2.69317626953125
146.035034631297	2.69317626953125
146.045034631272	2.69287109375
146.055034631246	2.69256591796875
146.065034631221	2.69256591796875
146.075034631196	2.69134521484375
146.085034631171	2.69134521484375
146.095034631145	2.691650390625
146.10503463112	2.691650390625
146.115034631095	2.691650390625
146.12503463107	2.69195556640625
146.135034631045	2.69134521484375
146.145034631019	2.69134521484375
146.155034630994	2.69134521484375
146.165034630969	2.69134521484375
146.175034630944	2.6910400390625
146.185034630918	2.691650390625
146.195034630893	2.6910400390625
146.205034630868	2.69073486328125
146.215034630843	2.69012451171875
146.225034630817	2.6904296875
146.235034630792	2.69012451171875
146.245034630767	2.69012451171875
146.255034630742	2.69073486328125
146.265034630716	2.69073486328125
146.275034630691	2.69073486328125
146.285034630666	2.69073486328125
146.295034630641	2.69073486328125
146.305034630615	2.68951416015625
146.31503463059	2.68951416015625
146.325034630565	2.6898193359375
146.33503463054	2.68951416015625
146.345034630514	2.68951416015625
146.355034630489	2.68951416015625
146.365034630464	2.6898193359375
146.375034630439	2.68951416015625
146.385034630413	2.68951416015625
146.395034630388	2.69012451171875
146.405034630363	2.6904296875
146.415034630338	2.689208984375
146.425034630312	2.68890380859375
146.435034630287	2.6898193359375
146.445034630262	2.68951416015625
146.455034630237	2.689208984375
146.465034630211	2.6898193359375
146.475034630186	2.68890380859375
146.485034630161	2.689208984375
146.495034630136	2.68890380859375
146.50503463011	2.68890380859375
146.515034630085	2.6885986328125
146.52503463006	2.68890380859375
146.535034630035	2.68890380859375
146.545034630009	2.68890380859375
146.555034629984	2.68890380859375
146.565034629959	2.68890380859375
146.575034629934	2.689208984375
146.585034629908	2.68890380859375
146.595034629883	2.6885986328125
146.605034629858	2.68951416015625
146.615034629833	2.6885986328125
146.625034629807	2.6885986328125
146.635034629782	2.689208984375
146.645034629757	2.68768310546875
146.655034629732	2.68768310546875
146.665034629706	2.68768310546875
146.675034629681	2.68798828125
146.685034629656	2.689208984375
146.695034629631	2.689208984375
146.705034629605	2.68890380859375
146.71503462958	2.68890380859375
146.725034629555	2.68890380859375
146.73503462953	2.68768310546875
146.745034629504	2.68829345703125
146.755034629479	2.6885986328125
146.765034629454	2.68829345703125
146.775034629429	2.68798828125
146.785034629403	2.68768310546875
146.795034629378	2.68798828125
146.805034629353	2.68798828125
146.815034629328	2.68798828125
146.825034629302	2.68768310546875
146.835034629277	2.68768310546875
146.845034629252	2.68829345703125
146.855034629227	2.68798828125
146.865034629201	2.68798828125
146.875034629176	2.68798828125
146.885034629151	2.68798828125
146.895034629126	2.6885986328125
146.9050346291	2.68829345703125
146.915034629075	2.6885986328125
146.92503462905	2.68829345703125
146.935034629025	2.689208984375
146.945034628999	2.689208984375
146.955034628974	2.68951416015625
146.965034628949	2.68951416015625
146.975034628924	2.6885986328125
146.985034628898	2.68890380859375
146.995034628873	2.68890380859375
147.005034628848	2.689208984375
147.015034628823	2.6885986328125
147.025034628797	2.689208984375
147.035034628772	2.68829345703125
147.045034628747	2.68829345703125
147.055034628722	2.68798828125
147.065034628696	2.68798828125
147.075034628671	2.68829345703125
147.085034628646	2.6873779296875
147.095034628621	2.68798828125
147.105034628595	2.68829345703125
147.11503462857	2.68798828125
147.125034628545	2.68798828125
147.13503462852	2.68829345703125
147.145034628494	2.68829345703125
147.155034628469	2.68798828125
147.165034628444	2.68890380859375
147.175034628419	2.68890380859375
147.185034628394	2.68890380859375
147.195034628368	2.68829345703125
147.205034628343	2.68798828125
147.215034628318	2.6885986328125
147.225034628293	2.68829345703125
147.235034628267	2.68829345703125
147.245034628242	2.68829345703125
147.255034628217	2.68829345703125
147.265034628192	2.6885986328125
147.275034628166	2.6885986328125
147.285034628141	2.68829345703125
147.295034628116	2.68829345703125
147.305034628091	2.68829345703125
147.315034628065	2.68798828125
147.32503462804	2.68798828125
147.335034628015	2.68829345703125
147.34503462799	2.68829345703125
147.355034627964	2.68829345703125
147.365034627939	2.68829345703125
147.375034627914	2.6885986328125
147.385034627889	2.689208984375
147.395034627863	2.68951416015625
147.405034627838	2.6885986328125
147.415034627813	2.6885986328125
147.425034627788	2.6885986328125
147.435034627762	2.68890380859375
147.445034627737	2.68890380859375
147.455034627712	2.68890380859375
147.465034627687	2.68829345703125
147.475034627661	2.6885986328125
147.485034627636	2.68829345703125
147.495034627611	2.6885986328125
147.505034627586	2.6885986328125
147.51503462756	2.6885986328125
147.525034627535	2.68951416015625
147.53503462751	2.68951416015625
147.545034627485	2.6898193359375
147.555034627459	2.6898193359375
147.565034627434	2.68951416015625
147.575034627409	2.68890380859375
147.585034627384	2.68798828125
147.595034627358	2.68829345703125
147.605034627333	2.68829345703125
147.615034627308	2.68829345703125
147.625034627283	2.689208984375
147.635034627257	2.68951416015625
147.645034627232	2.689208984375
147.655034627207	2.689208984375
147.665034627182	2.6885986328125
147.675034627156	2.68829345703125
147.685034627131	2.68829345703125
147.695034627106	2.6885986328125
147.705034627081	2.6885986328125
147.715034627055	2.6885986328125
147.72503462703	2.68951416015625
147.735034627005	2.689208984375
147.74503462698	2.68890380859375
147.755034626954	2.68890380859375
147.765034626929	2.6885986328125
147.775034626904	2.6885986328125
147.785034626879	2.6885986328125
147.795034626853	2.68890380859375
147.805034626828	2.689208984375
147.815034626803	2.6885986328125
147.825034626778	2.68829345703125
147.835034626752	2.6885986328125
147.845034626727	2.6885986328125
147.855034626702	2.6885986328125
147.865034626677	2.689208984375
147.875034626651	2.689208984375
147.885034626626	2.6885986328125
147.895034626601	2.6885986328125
147.905034626576	2.6885986328125
147.91503462655	2.6885986328125
147.925034626525	2.68951416015625
147.9350346265	2.689208984375
147.945034626475	2.68951416015625
147.955034626449	2.68890380859375
147.965034626424	2.68890380859375
147.975034626399	2.689208984375
147.985034626374	2.689208984375
147.995034626348	2.68951416015625
148.005034626323	2.68951416015625
148.015034626298	2.68890380859375
148.025034626273	2.689208984375
148.035034626247	2.689208984375
148.045034626222	2.6898193359375
148.055034626197	2.689208984375
148.065034626172	2.689208984375
148.075034626146	2.689208984375
148.085034626121	2.689208984375
148.095034626096	2.689208984375
148.105034626071	2.689208984375
148.115034626045	2.68951416015625
148.12503462602	2.689208984375
148.135034625995	2.68951416015625
148.14503462597	2.69012451171875
148.155034625944	2.689208984375
148.165034625919	2.689208984375
148.175034625894	2.68890380859375
148.185034625869	2.69012451171875
148.195034625844	2.69012451171875
148.205034625818	2.6898193359375
148.215034625793	2.68951416015625
148.225034625768	2.6898193359375
148.235034625743	2.6898193359375
148.245034625717	2.6898193359375
148.255034625692	2.69012451171875
148.265034625667	2.6898193359375
148.275034625642	2.68951416015625
148.285034625616	2.6898193359375
148.295034625591	2.6904296875
148.305034625566	2.6898193359375
148.315034625541	2.6898193359375
148.325034625515	2.6904296875
148.33503462549	2.69073486328125
148.345034625465	2.6898193359375
148.35503462544	2.69012451171875
148.365034625414	2.69012451171875
148.375034625389	2.69012451171875
148.385034625364	2.6898193359375
148.395034625339	2.69012451171875
148.405034625313	2.6898193359375
148.415034625288	2.68951416015625
148.425034625263	2.69012451171875
148.435034625238	2.6904296875
148.445034625212	2.6898193359375
148.455034625187	2.69012451171875
148.465034625162	2.69012451171875
148.475034625137	2.69012451171875
148.485034625111	2.6910400390625
148.495034625086	2.69073486328125
148.505034625061	2.69012451171875
148.515034625036	2.69012451171875
148.52503462501	2.6904296875
148.535034624985	2.69073486328125
148.54503462496	2.6904296875
148.555034624935	2.69012451171875
148.565034624909	2.6904296875
148.575034624884	2.6904296875
148.585034624859	2.69073486328125
148.595034624834	2.69073486328125
148.605034624808	2.69073486328125
148.615034624783	2.69073486328125
148.625034624758	2.69073486328125
148.635034624733	2.69073486328125
148.645034624707	2.6904296875
148.655034624682	2.6904296875
148.665034624657	2.69073486328125
148.675034624632	2.69073486328125
148.685034624606	2.6904296875
148.695034624581	2.6904296875
148.705034624556	2.69073486328125
148.715034624531	2.69012451171875
148.725034624505	2.69073486328125
148.73503462448	2.6910400390625
148.745034624455	2.69134521484375
148.75503462443	2.6910400390625
148.765034624404	2.6904296875
148.775034624379	2.6904296875
148.785034624354	2.6904296875
148.795034624329	2.6904296875
148.805034624303	2.69012451171875
148.815034624278	2.69012451171875
148.825034624253	2.69012451171875
148.835034624228	2.6910400390625
148.845034624202	2.69073486328125
148.855034624177	2.6904296875
148.865034624152	2.6904296875
148.875034624127	2.69073486328125
148.885034624101	2.6904296875
148.895034624076	2.6904296875
148.905034624051	2.6910400390625
148.915034624026	2.6910400390625
148.925034624	2.69073486328125
148.935034623975	2.69073486328125
148.94503462395	2.69012451171875
148.955034623925	2.68951416015625
148.965034623899	2.6898193359375
148.975034623874	2.69073486328125
148.985034623849	2.6904296875
148.995034623824	2.6898193359375
149.005034623798	2.69012451171875
149.015034623773	2.69073486328125
149.025034623748	2.6910400390625
149.035034623723	2.6910400390625
149.045034623697	2.6910400390625
149.055034623672	2.69012451171875
149.065034623647	2.68951416015625
149.075034623622	2.6898193359375
149.085034623596	2.69012451171875
149.095034623571	2.69012451171875
149.105034623546	2.6898193359375
149.115034623521	2.69012451171875
149.125034623495	2.69012451171875
149.13503462347	2.69012451171875
149.145034623445	2.69012451171875
149.15503462342	2.6898193359375
149.165034623394	2.6898193359375
149.175034623369	2.68951416015625
149.185034623344	2.68951416015625
149.195034623319	2.6898193359375
149.205034623293	2.68951416015625
149.215034623268	2.68951416015625
149.225034623243	2.689208984375
149.235034623218	2.689208984375
149.245034623193	2.689208984375
149.255034623167	2.689208984375
149.265034623142	2.69073486328125
149.275034623117	2.69073486328125
149.285034623092	2.6904296875
149.295034623066	2.6904296875
149.305034623041	2.6904296875
149.315034623016	2.6904296875
149.325034622991	2.6898193359375
149.335034622965	2.6898193359375
149.34503462294	2.6898193359375
149.355034622915	2.6904296875
149.36503462289	2.69012451171875
149.375034622864	2.69012451171875
149.385034622839	2.6898193359375
149.395034622814	2.68951416015625
149.405034622789	2.69012451171875
149.415034622763	2.6898193359375
149.425034622738	2.6898193359375
149.435034622713	2.69012451171875
149.445034622688	2.6904296875
149.455034622662	2.6898193359375
149.465034622637	2.6898193359375
149.475034622612	2.69012451171875
149.485034622587	2.68951416015625
149.495034622561	2.68951416015625
149.505034622536	2.6904296875
149.515034622511	2.6898193359375
149.525034622486	2.68951416015625
149.53503462246	2.68951416015625
149.545034622435	2.6898193359375
149.55503462241	2.689208984375
149.565034622385	2.6898193359375
149.575034622359	2.6898193359375
149.585034622334	2.6898193359375
149.595034622309	2.6898193359375
149.605034622284	2.68951416015625
149.615034622258	2.6898193359375
149.625034622233	2.6898193359375
149.635034622208	2.6898193359375
149.645034622183	2.689208984375
149.655034622157	2.689208984375
149.665034622132	2.689208984375
149.675034622107	2.68951416015625
149.685034622082	2.689208984375
149.695034622056	2.689208984375
149.705034622031	2.68890380859375
149.715034622006	2.689208984375
149.725034621981	2.689208984375
149.735034621955	2.689208984375
149.74503462193	2.6898193359375
149.755034621905	2.68890380859375
149.76503462188	2.68890380859375
149.775034621854	2.6885986328125
149.785034621829	2.68890380859375
149.795034621804	2.689208984375
149.805034621779	2.68890380859375
149.815034621753	2.6885986328125
149.825034621728	2.689208984375
149.835034621703	2.689208984375
149.845034621678	2.6885986328125
149.855034621652	2.6885986328125
149.865034621627	2.68890380859375
149.875034621602	2.6885986328125
149.885034621577	2.68890380859375
149.895034621551	2.689208984375
149.905034621526	2.68951416015625
149.915034621501	2.689208984375
149.925034621476	2.68951416015625
149.93503462145	2.68951416015625
149.945034621425	2.689208984375
149.9550346214	2.68890380859375
149.965034621375	2.68890380859375
149.975034621349	2.689208984375
149.985034621324	2.6898193359375
149.995034621299	2.6904296875
150.005034621274	2.689208984375
150.015034621248	2.68890380859375
150.025034621223	2.69012451171875
150.035034621198	2.6898193359375
150.045034621173	2.689208984375
150.055034621147	2.689208984375
150.065034621122	2.68890380859375
150.075034621097	2.689208984375
150.085034621072	2.6898193359375
150.095034621046	2.68951416015625
150.105034621021	2.6885986328125
150.115034620996	2.68829345703125
150.125034620971	2.6885986328125
150.135034620945	2.6885986328125
150.14503462092	2.689208984375
150.155034620895	2.6885986328125
150.16503462087	2.68890380859375
150.175034620844	2.6885986328125
150.185034620819	2.68798828125
150.195034620794	2.68829345703125
150.205034620769	2.68798828125
150.215034620743	2.68798828125
150.225034620718	2.68798828125
150.235034620693	2.68768310546875
150.245034620668	2.68798828125
150.255034620643	2.6885986328125
150.265034620617	2.68829345703125
150.275034620592	2.6885986328125
150.285034620567	2.68768310546875
150.295034620542	2.68798828125
150.305034620516	2.6873779296875
150.315034620491	2.68768310546875
150.325034620466	2.6885986328125
150.335034620441	2.68798828125
150.345034620415	2.68798828125
150.35503462039	2.6885986328125
150.365034620365	2.6885986328125
150.37503462034	2.68829345703125
150.385034620314	2.68768310546875
150.395034620289	2.68768310546875
150.405034620264	2.68768310546875
150.415034620239	2.6873779296875
150.425034620213	2.6873779296875
150.435034620188	2.6873779296875
150.445034620163	2.68798828125
150.455034620138	2.68768310546875
150.465034620112	2.68768310546875
150.475034620087	2.68707275390625
150.485034620062	2.68768310546875
150.495034620037	2.6873779296875
