Time (s)	WE(1).Potential (V)
1.33224299663641	4.13665771484375
1.34224299661116	4.15008544921875
1.35224299658591	4.16168212890625
1.36224299656067	4.156494140625
1.37224299653542	4.1534423828125
1.38224299651017	4.15374755859375
1.39224299648492	4.15252685546875
1.40224299645968	4.15740966796875
1.41224299643443	4.161376953125
1.42224299640918	4.16656494140625
1.43224299638393	4.17144775390625
1.44224299635869	4.17449951171875
1.45224299633344	4.1754150390625
1.46224299630819	4.171142578125
1.47224299628294	4.1748046875
1.4822429962577	4.18365478515625
1.49224299623245	4.1705322265625
1.5022429962072	4.14398193359375
1.51224299618195	4.1461181640625
1.52224299615671	4.1705322265625
1.53224299613146	4.19647216796875
1.54224299610621	4.1998291015625
1.55224299608096	4.1998291015625
1.56224299605572	4.195556640625
1.57224299603047	4.1937255859375
1.58224299600522	4.1961669921875
1.59224299597997	4.1986083984375
1.60224299595473	4.19219970703125
1.61224299592948	4.1973876953125
1.62224299590423	4.16656494140625
1.63224299587898	4.16839599609375
1.64224299585374	4.17022705078125
1.65224299582849	4.17724609375
1.66224299580324	4.1827392578125
1.67224299577799	4.1845703125
1.68224299575274	4.18914794921875
1.6922429957275	4.18975830078125
1.70224299570225	4.1943359375
1.712242995677	4.19403076171875
1.72224299565175	4.1937255859375
1.73224299562651	4.19708251953125
1.74224299560126	4.20166015625
1.75224299557601	4.2083740234375
1.76224299555076	4.20989990234375
1.77224299552552	4.210205078125
1.78224299550027	4.2138671875
1.79224299547502	4.21417236328125
1.80224299544977	4.215087890625
1.81224299542453	4.21844482421875
1.82224299539928	4.2181396484375
1.83224299537403	4.2193603515625
1.84224299534878	4.22027587890625
1.85224299532354	4.2230224609375
1.86224299529829	4.22149658203125
1.87224299527304	4.22271728515625
1.88224299524779	4.224853515625
1.89224299522255	4.2230224609375
1.9022429951973	4.222412109375
1.91224299517205	4.22698974609375
1.9222429951468	4.228515625
1.93224299512156	4.22760009765625
1.94224299509631	4.22637939453125
1.95224299507106	4.24652099609375
1.96224299504581	4.25506591796875
1.97224299502057	4.25537109375
1.98224299499532	4.2596435546875
1.99224299497007	4.26177978515625
2.00224299494482	4.261474609375
2.01224299491957	4.267578125
2.02224299489433	4.26239013671875
2.03224299486908	4.26666259765625
2.04224299484383	4.2669677734375
2.05224299481858	4.26422119140625
2.06224299479334	4.26788330078125
2.07224299476809	4.2742919921875
2.08224299474284	4.27093505859375
2.09224299471759	4.276123046875
2.10224299469235	4.2767333984375
2.1122429946671	4.27520751953125
2.12224299464185	4.27947998046875
2.1322429946166	4.2816162109375
2.14224299459136	4.27703857421875
2.15224299456611	4.27886962890625
2.16224299454086	4.28192138671875
2.17224299451561	4.28253173828125
2.18224299449037	4.27947998046875
2.19224299446512	4.28466796875
2.20224299443987	4.28680419921875
2.21224299441462	4.2840576171875
2.22224299438938	4.2864990234375
2.23224299436413	4.287109375
2.24224299433888	4.28741455078125
2.25224299431363	4.28955078125
2.26224299428839	4.29107666015625
2.27224299426314	4.2901611328125
2.28224299423789	4.2919921875
2.29224299421264	4.2987060546875
2.3022429941874	4.2987060546875
2.31224299416215	4.298095703125
2.3222429941369	4.30023193359375
2.33224299411165	4.300537109375
2.3422429940864	4.30145263671875
2.35224299406116	4.3035888671875
2.36224299403591	4.30328369140625
2.37224299401066	4.30450439453125
2.38224299398541	4.30450439453125
2.39224299396017	4.30419921875
2.40224299393492	4.30511474609375
2.41224299390967	4.3115234375
2.42224299388442	4.31243896484375
2.43224299385918	4.31427001953125
2.44224299383393	4.3170166015625
2.45224299380868	4.32098388671875
2.46224299378343	4.320068359375
2.47224299375819	4.3182373046875
2.48224299373294	4.32220458984375
2.49224299370769	4.32647705078125
2.50224299368244	4.3212890625
2.5122429936572	4.3212890625
2.52224299363195	4.3231201171875
2.5322429936067	4.3231201171875
2.54224299358145	4.3231201171875
2.55224299355621	4.3231201171875
2.56224299353096	4.32373046875
2.57224299350571	4.32464599609375
2.58224299348046	4.32708740234375
2.59224299345522	4.32647705078125
2.60224299342997	4.32647705078125
2.61224299340472	4.3292236328125
2.62224299337947	4.3304443359375
2.63224299335423	4.32891845703125
2.64224299332898	4.3310546875
2.65224299330373	4.33319091796875
2.66224299327848	4.3316650390625
2.67224299325323	4.3328857421875
2.68224299322799	4.33563232421875
2.69224299320274	4.3359375
2.70224299317749	4.334716796875
2.71224299315224	4.33349609375
2.722242993127	4.33502197265625
2.73224299310175	4.3359375
2.7422429930765	4.33502197265625
2.75224299305125	4.33746337890625
2.76224299302601	4.339599609375
2.77224299300076	4.3414306640625
2.78224299297551	4.34326171875
2.79224299295026	4.34478759765625
2.80224299292502	4.345703125
2.81224299289977	4.34844970703125
2.82224299287452	4.34967041015625
2.83224299284927	4.3487548828125
2.84224299282403	4.34783935546875
2.85224299279878	4.351806640625
2.86224299277353	4.35089111328125
2.87224299274828	4.3487548828125
2.88224299272304	4.3487548828125
2.89224299269779	4.35150146484375
2.90224299267254	4.35302734375
2.91224299264729	4.3511962890625
2.92224299262205	4.35333251953125
2.9322429925968	4.3548583984375
2.94224299257155	4.3548583984375
2.9522429925463	4.35577392578125
2.96224299252106	4.35791015625
2.97224299249581	4.35882568359375
2.98224299247056	4.35943603515625
2.99224299244531	4.3609619140625
3.00224299242007	4.36126708984375
3.01224299239482	4.359130859375
3.02224299236957	4.36187744140625
3.03224299234432	4.36004638671875
3.04224299231907	4.3609619140625
3.05224299229383	4.36309814453125
3.06224299226858	4.36309814453125
3.07224299224333	4.3621826171875
3.08224299221808	4.36065673828125
3.09224299219284	4.36126708984375
3.10224299216759	4.36187744140625
3.11224299214234	4.364013671875
3.12224299211709	4.3646240234375
3.13224299209185	4.3609619140625
3.1422429920666	4.3658447265625
3.15224299204135	4.36737060546875
3.1622429920161	4.36370849609375
3.17224299199086	4.36676025390625
3.18224299196561	4.36981201171875
3.19224299194036	4.36920166015625
3.20224299191511	4.36859130859375
3.21224299188987	4.36920166015625
3.22224299186462	4.36676025390625
3.23224299183937	4.37255859375
3.24224299181412	4.37164306640625
3.25224299178888	4.371337890625
3.26224299176363	4.37347412109375
3.27224299173838	4.37255859375
3.28224299171313	4.371337890625
3.29224299168789	4.3707275390625
3.30224299166264	4.373779296875
3.31224299163739	4.37225341796875
3.32224299161214	4.37225341796875
3.3322429915869	4.376220703125
3.34224299156165	4.37530517578125
3.3522429915364	4.37530517578125
3.36224299151115	4.376220703125
3.3722429914859	4.376220703125
3.38224299146066	4.37652587890625
3.39224299143541	4.3768310546875
3.40224299141016	4.37713623046875
3.41224299138491	4.378662109375
3.42224299135967	4.37774658203125
3.43224299133442	4.378662109375
3.44224299130917	4.37713623046875
3.45224299128392	4.37835693359375
3.46224299125868	4.37835693359375
3.47224299123343	4.37835693359375
3.48224299120818	4.3865966796875
3.49224299118293	4.38690185546875
3.50224299115769	4.385986328125
3.51224299113244	4.38873291015625
3.52224299110719	4.38995361328125
3.53224299108194	4.388427734375
3.5422429910567	4.3890380859375
3.55224299103145	4.3927001953125
3.5622429910062	4.39239501953125
3.57224299098095	4.39056396484375
3.58224299095571	4.39300537109375
3.59224299093046	4.39453125
3.60224299090521	4.39453125
3.61224299087996	4.3951416015625
3.62224299085472	4.39544677734375
3.63224299082947	4.39605712890625
3.64224299080422	4.39697265625
3.65224299077897	4.39666748046875
3.66224299075373	4.39605712890625
3.67224299072848	4.39727783203125
3.68224299070323	4.39697265625
3.69224299067798	4.3951416015625
3.70224299065273	4.39483642578125
3.71224299062749	4.395751953125
3.72224299060224	4.3951416015625
3.73224299057699	4.3963623046875
3.74224299055174	4.39727783203125
3.7522429905265	4.39666748046875
3.76224299050125	4.39788818359375
3.772242990476	4.39971923828125
3.78224299045075	4.3994140625
3.79224299042551	4.3994140625
3.80224299040026	4.4012451171875
3.81224299037501	4.39971923828125
3.82224299034976	4.39605712890625
3.83224299032452	4.3975830078125
3.84224299029927	4.3975830078125
3.85224299027402	4.3994140625
3.86224299024877	4.39849853515625
3.87224299022353	4.3988037109375
3.88224299019828	4.4000244140625
3.89224299017303	4.4000244140625
3.90224299014778	4.4000244140625
3.91224299012254	4.40093994140625
3.92224299009729	4.40673828125
3.93224299007204	4.40765380859375
3.94224299004679	4.4073486328125
3.95224299002155	4.4061279296875
3.9622429899963	4.40673828125
3.97224298997105	4.40765380859375
3.9822429899458	4.40704345703125
3.99224298992056	4.4085693359375
4.00224298989531	4.40948486328125
4.01224298987006	4.407958984375
4.02224298984481	4.40826416015625
4.03224298981957	4.407958984375
4.04224298979432	4.40826416015625
4.05224298976907	4.4085693359375
4.06224298974382	4.4091796875
4.07224298971857	4.40887451171875
4.08224298969333	4.40948486328125
4.09224298966808	4.41009521484375
4.10224298964283	4.3609619140625
4.11224298961758	4.35150146484375
4.12224298959234	4.34844970703125
4.13224298956709	4.3560791015625
4.14224298954184	4.351806640625
4.15224298951659	4.35516357421875
4.16224298949135	4.35821533203125
4.1722429894661	4.3603515625
4.18224298944085	4.35791015625
4.1922429894156	4.35943603515625
4.20224298939036	4.35821533203125
4.21224298936511	4.35760498046875
4.22224298933986	4.3609619140625
4.23224298931461	4.3597412109375
4.24224298928937	4.361572265625
4.25224298926412	4.36126708984375
4.26224298923887	4.3609619140625
4.27224298921362	4.3621826171875
4.28224298918838	4.3621826171875
4.29224298916313	4.364013671875
4.30224298913788	4.3609619140625
4.31224298911263	4.36187744140625
4.32224298908739	4.36309814453125
4.33224298906214	4.36553955078125
4.34224298903689	4.36492919921875
4.35224298901164	4.36248779296875
4.3622429889864	4.364013671875
4.37224298896115	4.36431884765625
4.3822429889359	4.36309814453125
4.39224298891065	4.36859130859375
4.4022429888854	4.36614990234375
4.41224298886016	4.36370849609375
4.42224298883491	4.35791015625
4.43224298880966	4.359130859375
4.44224298878441	4.3609619140625
4.45224298875917	4.364013671875
4.46224298873392	4.36767578125
4.47224298870867	4.36981201171875
4.48224298868342	4.36798095703125
4.49224298865818	4.368896484375
4.50224298863293	4.3701171875
4.51224298860768	4.368896484375
4.52224298858243	4.3695068359375
4.53224298855719	4.3707275390625
4.54224298853194	4.371337890625
4.55224298850669	4.371337890625
4.56224298848144	4.3719482421875
4.5722429884562	4.3731689453125
4.58224298843095	4.3756103515625
4.5922429884057	4.37408447265625
4.60224298838045	4.3731689453125
4.61224298835521	4.3756103515625
4.62224298832996	4.37713623046875
4.63224298830471	4.37957763671875
4.64224298827946	4.366455078125
4.65224298825422	4.37225341796875
4.66224298822897	4.37347412109375
4.67224298820372	4.375
4.68224298817847	4.378662109375
4.69224298815323	4.38140869140625
4.70224298812798	4.383544921875
4.71224298810273	4.3756103515625
4.72224298807748	4.37652587890625
4.73224298805223	4.38018798828125
4.74224298802699	4.3804931640625
4.75224298800174	4.37347412109375
4.76224298797649	4.37164306640625
4.77224298795124	4.37164306640625
4.782242987926	4.373779296875
4.79224298790075	4.3743896484375
4.8022429878755	4.37774658203125
4.81224298785025	4.38385009765625
4.82224298782501	4.38629150390625
4.83224298779976	4.38720703125
4.84224298777451	4.38934326171875
4.85224298774926	4.3896484375
4.86224298772402	4.38751220703125
4.87224298769877	4.388427734375
4.88224298767352	4.38934326171875
4.89224298764827	4.3896484375
4.90224298762303	4.39117431640625
4.91224298759778	4.39178466796875
4.92224298757253	4.38751220703125
4.93224298754728	4.388427734375
4.94224298752204	4.38751220703125
4.95224298749679	4.38720703125
4.96224298747154	4.38232421875
4.97224298744629	4.384765625
4.98224298742105	4.383544921875
4.9922429873958	4.384765625
5.00224298737055	4.383544921875
5.0122429873453	4.38629150390625
5.02224298732006	4.38690185546875
5.03224298729481	4.38446044921875
5.04224298726956	4.38568115234375
5.05224298724431	4.385986328125
5.06224298721907	4.38232421875
5.07224298719382	4.381103515625
5.08224298716857	4.3817138671875
5.09224298714332	4.38079833984375
5.10224298711807	4.3817138671875
5.11224298709283	4.3853759765625
5.12224298706758	4.38140869140625
5.13224298704233	4.3792724609375
5.14224298701708	4.3792724609375
5.15224298699184	4.3798828125
5.16224298696659	4.381103515625
5.17224298694134	4.3804931640625
5.18224298691609	4.38446044921875
5.19224298689085	4.3817138671875
5.2022429868656	4.3768310546875
5.21224298684035	4.376220703125
5.2222429868151	4.37713623046875
5.23224298678986	4.37744140625
5.24224298676461	4.3768310546875
5.25224298673936	4.3768310546875
5.26224298671411	4.37744140625
5.27224298668887	4.3792724609375
5.28224298666362	4.37896728515625
5.29224298663837	4.3798828125
5.30224298661312	4.3792724609375
5.31224298658788	4.37957763671875
5.32224298656263	4.3798828125
5.33224298653738	4.3798828125
5.34224298651213	4.38140869140625
5.35224298648689	4.38140869140625
5.36224298646164	4.38079833984375
5.37224298643639	4.38140869140625
5.38224298641114	4.3817138671875
5.3922429863859	4.381103515625
5.40224298636065	4.38140869140625
5.4122429863354	4.38140869140625
5.42224298631015	4.381103515625
5.4322429862849	4.3829345703125
5.44224298625966	4.3829345703125
5.45224298623441	4.38201904296875
5.46224298620916	4.38232421875
5.47224298618391	4.3853759765625
5.48224298615867	4.385986328125
5.49224298613342	4.3865966796875
5.50224298610817	4.3890380859375
5.51224298608292	4.3890380859375
5.52224298605768	4.390869140625
5.53224298603243	4.3914794921875
5.54224298600718	4.3865966796875
5.55224298598193	4.385986328125
5.56224298595669	4.38720703125
5.57224298593144	4.38934326171875
5.58224298590619	4.3865966796875
5.59224298588094	4.38140869140625
5.6022429858557	4.38201904296875
5.61224298583045	4.38323974609375
5.6222429858052	4.38751220703125
5.63224298577995	4.3890380859375
5.64224298575471	4.3896484375
5.65224298572946	4.390869140625
5.66224298570421	4.3878173828125
5.67224298567896	4.3878173828125
5.68224298565372	4.385986328125
5.69224298562847	4.38629150390625
5.70224298560322	4.39361572265625
5.71224298557797	4.3939208984375
5.72224298555273	4.39300537109375
5.73224298552748	4.39727783203125
5.74224298550223	4.3927001953125
5.75224298547698	4.38995361328125
5.76224298545173	4.3927001953125
5.77224298542649	4.3939208984375
5.78224298540124	4.39605712890625
5.79224298537599	4.3988037109375
5.80224298535074	4.40155029296875
5.8122429853255	4.39910888671875
5.82224298530025	4.40216064453125
5.832242985275	4.4024658203125
5.84224298524975	4.4012451171875
5.85224298522451	4.40399169921875
5.86224298519926	4.40093994140625
5.87224298517401	4.4024658203125
5.88224298514876	4.40216064453125
5.89224298512352	4.4073486328125
5.90224298509827	4.40826416015625
5.91224298507302	4.40582275390625
5.92224298504777	4.40887451171875
5.93224298502253	4.41070556640625
5.94224298499728	4.3951416015625
5.95224298497203	4.39788818359375
5.96224298494678	4.3963623046875
5.97224298492154	4.40185546875
5.98224298489629	4.4061279296875
5.99224298487104	4.40948486328125
6.00224298484579	4.40948486328125
6.01224298482055	4.4097900390625
6.0222429847953	4.4012451171875
6.03224298477005	4.39727783203125
6.0422429847448	4.39300537109375
6.05224298471956	4.398193359375
6.06224298469431	4.41802978515625
6.07224298466906	4.45037841796875
6.08224298464381	4.44854736328125
6.09224298461857	4.449462890625
6.10224298459332	4.44732666015625
6.11224298456807	4.44549560546875
6.12224298454282	4.444580078125
6.13224298451757	4.44549560546875
6.14224298449233	4.44549560546875
6.15224298446708	4.44580078125
6.16224298444183	4.44580078125
6.17224298441658	4.44610595703125
6.18224298439134	4.4451904296875
6.19224298436609	4.44671630859375
6.20224298434084	4.44732666015625
6.21224298431559	4.4464111328125
6.22224298429035	4.44549560546875
6.2322429842651	4.444580078125
6.24224298423985	4.44488525390625
6.2522429842146	4.4451904296875
6.26224298418936	4.444580078125
6.27224298416411	4.444580078125
6.28224298413886	4.44671630859375
6.29224298411361	4.44732666015625
6.30224298408837	4.44427490234375
6.31224298406312	4.44488525390625
6.32224298403787	4.44488525390625
