Time (s)	WE(1).Potential (V)
155.819523606594	0.95977783203125
156.819523604069	0.9698486328125
157.819523601544	0.9765625
158.819523599019	0.9814453125
159.819523596494	0.98541259765625
160.81952359397	0.98846435546875
161.819523591445	0.99151611328125
162.81952358892	0.9942626953125
163.819523586395	0.99639892578125
164.819523583871	0.99853515625
165.819523581346	1.0003662109375
166.819523578821	1.002197265625
167.819523576296	1.0040283203125
168.819523573772	1.005859375
