Time (s)	WE(1).Potential (V)
33.042787916575	2.72796630859375
33.0527879165497	2.72796630859375
33.0627879165245	2.728271484375
33.0727879164992	2.728271484375
33.082787916474	2.728271484375
33.0927879164487	2.728271484375
33.1027879164235	2.728271484375
33.1127879163982	2.728271484375
33.122787916373	2.728271484375
33.1327879163478	2.728271484375
33.1427879163225	2.728271484375
33.1527879162973	2.728271484375
33.162787916272	2.728271484375
33.1727879162468	2.728271484375
33.1827879162215	2.728271484375
33.1927879161963	2.72857666015625
33.202787916171	2.72857666015625
33.2127879161458	2.72857666015625
33.2227879161205	2.72857666015625
33.2327879160953	2.72857666015625
33.24278791607	2.72857666015625
33.2527879160448	2.72857666015625
33.2627879160195	2.72857666015625
33.2727879159943	2.72857666015625
33.282787915969	2.72857666015625
33.2927879159438	2.72857666015625
33.3027879159185	2.72857666015625
33.3127879158933	2.72857666015625
33.322787915868	2.72857666015625
33.3327879158428	2.72857666015625
33.3427879158176	2.72857666015625
33.3527879157923	2.7288818359375
33.3627879157671	2.7288818359375
33.3727879157418	2.7288818359375
33.3827879157166	2.7288818359375
33.3927879156913	2.7288818359375
33.4027879156661	2.7288818359375
33.4127879156408	2.7288818359375
33.4227879156156	2.7288818359375
33.4327879155903	2.7288818359375
33.4427879155651	2.7288818359375
33.4527879155398	2.72918701171875
33.4627879155146	2.7288818359375
33.4727879154893	2.72918701171875
33.4827879154641	2.7288818359375
33.4927879154388	2.7288818359375
33.5027879154136	2.7288818359375
33.5127879153883	2.72918701171875
33.5227879153631	2.72918701171875
33.5327879153378	2.72918701171875
33.5427879153126	2.72918701171875
33.5527879152874	2.72918701171875
33.5627879152621	2.72918701171875
33.5727879152369	2.72918701171875
33.5827879152116	2.72918701171875
33.5927879151864	2.72918701171875
33.6027879151611	2.7288818359375
33.6127879151359	2.72918701171875
33.6227879151106	2.72918701171875
33.6327879150854	2.72918701171875
33.6427879150601	2.72918701171875
33.6527879150349	2.72918701171875
33.6627879150096	2.7288818359375
33.6727879149844	2.7288818359375
33.6827879149591	2.7288818359375
33.6927879149339	2.7288818359375
33.7027879149086	2.7288818359375
33.7127879148834	2.7288818359375
33.7227879148581	2.7288818359375
33.7327879148329	2.7288818359375
33.7427879148076	2.7288818359375
33.7527879147824	2.7288818359375
33.7627879147572	2.7288818359375
33.7727879147319	2.7288818359375
33.7827879147067	2.7288818359375
33.7927879146814	2.7288818359375
33.8027879146562	2.7288818359375
33.8127879146309	2.7288818359375
33.8227879146057	2.7288818359375
33.8327879145804	2.7288818359375
33.8427879145552	2.7288818359375
33.8527879145299	2.7288818359375
33.8627879145047	2.7288818359375
33.8727879144794	2.7288818359375
33.8827879144542	2.72918701171875
33.8927879144289	2.72918701171875
33.9027879144037	2.72918701171875
33.9127879143784	2.72918701171875
33.9227879143532	2.72918701171875
33.9327879143279	2.72918701171875
33.9427879143027	2.72918701171875
33.9527879142775	2.72918701171875
33.9627879142522	2.72918701171875
33.972787914227	2.72918701171875
33.9827879142017	2.72918701171875
33.9927879141765	2.72918701171875
34.0027879141512	2.72918701171875
34.012787914126	2.72918701171875
34.0227879141007	2.72918701171875
34.0327879140755	2.72918701171875
34.0427879140502	2.72918701171875
34.052787914025	2.7288818359375
34.0627879139997	2.7288818359375
34.0727879139745	2.7288818359375
34.0827879139492	2.72918701171875
34.092787913924	2.7288818359375
34.1027879138987	2.72918701171875
34.1127879138735	2.72918701171875
34.1227879138482	2.72918701171875
34.132787913823	2.72918701171875
34.1427879137977	2.72918701171875
34.1527879137725	2.72918701171875
34.1627879137473	2.72918701171875
34.172787913722	2.72918701171875
34.1827879136968	2.72918701171875
34.1927879136715	2.72918701171875
34.2027879136463	2.72918701171875
34.212787913621	2.72918701171875
34.2227879135958	2.72918701171875
34.2327879135705	2.72918701171875
34.2427879135453	2.72918701171875
34.25278791352	2.72918701171875
34.2627879134948	2.72918701171875
34.2727879134695	2.72918701171875
34.2827879134443	2.72918701171875
34.292787913419	2.72918701171875
34.3027879133938	2.72918701171875
34.3127879133685	2.72918701171875
34.3227879133433	2.72918701171875
34.332787913318	2.72918701171875
34.3427879132928	2.72918701171875
34.3527879132675	2.72918701171875
34.3627879132423	2.72918701171875
34.3727879132171	2.72918701171875
34.3827879131918	2.72918701171875
34.3927879131666	2.72918701171875
34.4027879131413	2.72918701171875
34.4127879131161	2.72918701171875
34.4227879130908	2.72918701171875
34.4327879130656	2.72918701171875
34.4427879130403	2.7288818359375
34.4527879130151	2.7288818359375
34.4627879129898	2.7288818359375
34.4727879129646	2.7288818359375
34.4827879129393	2.7288818359375
34.4927879129141	2.7288818359375
34.5027879128888	2.7288818359375
34.5127879128636	2.72857666015625
34.5227879128383	2.72857666015625
34.5327879128131	2.72857666015625
34.5427879127878	2.72857666015625
34.5527879127626	2.72857666015625
34.5627879127373	2.72857666015625
34.5727879127121	2.72857666015625
34.5827879126869	2.72857666015625
34.5927879126616	2.72857666015625
34.6027879126364	2.72857666015625
34.6127879126111	2.72857666015625
34.6227879125859	2.72857666015625
34.6327879125606	2.72857666015625
34.6427879125354	2.72857666015625
34.6527879125101	2.72857666015625
34.6627879124849	2.72857666015625
34.6727879124596	2.72857666015625
34.6827879124344	2.72857666015625
34.6927879124091	2.72857666015625
34.7027879123839	2.72857666015625
34.7127879123586	2.728271484375
34.7227879123334	2.72857666015625
34.7327879123081	2.72857666015625
34.7427879122829	2.72857666015625
34.7527879122576	2.72857666015625
34.7627879122324	2.728271484375
34.7727879122071	2.728271484375
34.7827879121819	2.728271484375
34.7927879121567	2.728271484375
34.8027879121314	2.728271484375
34.8127879121062	2.728271484375
34.8227879120809	2.728271484375
34.8327879120557	2.728271484375
34.8427879120304	2.728271484375
34.8527879120052	2.728271484375
34.8627879119799	2.72857666015625
34.8727879119547	2.728271484375
34.8827879119294	2.728271484375
34.8927879119042	2.728271484375
34.9027879118789	2.72857666015625
34.9127879118537	2.72857666015625
34.9227879118284	2.72857666015625
34.9327879118032	2.72857666015625
34.9427879117779	2.728271484375
34.9527879117527	2.728271484375
34.9627879117274	2.728271484375
34.9727879117022	2.728271484375
34.982787911677	2.728271484375
34.9927879116517	2.728271484375
35.0027879116265	2.728271484375
35.0127879116012	2.728271484375
35.022787911576	2.728271484375
35.0327879115507	2.728271484375
35.0427879115255	2.728271484375
35.0527879115002	2.728271484375
35.062787911475	2.728271484375
35.0727879114497	2.72857666015625
35.0827879114245	2.728271484375
35.0927879113992	2.728271484375
35.102787911374	2.728271484375
35.1127879113487	2.72857666015625
35.1227879113235	2.72857666015625
35.1327879112982	2.728271484375
35.142787911273	2.728271484375
35.1527879112477	2.72857666015625
35.1627879112225	2.728271484375
35.1727879111972	2.728271484375
35.182787911172	2.728271484375
35.1927879111468	2.728271484375
35.2027879111215	2.728271484375
35.2127879110963	2.728271484375
35.222787911071	2.72857666015625
35.2327879110458	2.728271484375
35.2427879110205	2.728271484375
35.2527879109953	2.728271484375
35.26278791097	2.728271484375
35.2727879109448	2.728271484375
35.2827879109195	2.728271484375
35.2927879108943	2.728271484375
35.302787910869	2.728271484375
35.3127879108438	2.728271484375
35.3227879108185	2.728271484375
35.3327879107933	2.72857666015625
35.342787910768	2.72857666015625
35.3527879107428	2.72857666015625
35.3627879107175	2.72857666015625
35.3727879106923	2.728271484375
35.382787910667	2.728271484375
35.3927879106418	2.728271484375
35.4027879106166	2.728271484375
35.4127879105913	2.728271484375
35.4227879105661	2.728271484375
35.4327879105408	2.728271484375
35.4427879105156	2.728271484375
35.4527879104903	2.728271484375
35.4627879104651	2.728271484375
35.4727879104398	2.728271484375
35.4827879104146	2.728271484375
35.4927879103893	2.728271484375
35.5027879103641	2.728271484375
35.5127879103388	2.728271484375
35.5227879103136	2.728271484375
35.5327879102883	2.72857666015625
35.5427879102631	2.728271484375
35.5527879102378	2.72857666015625
35.5627879102126	2.728271484375
35.5727879101873	2.728271484375
35.5827879101621	2.728271484375
35.5927879101368	2.728271484375
35.6027879101116	2.728271484375
35.6127879100864	2.728271484375
35.6227879100611	2.728271484375
35.6327879100359	2.728271484375
35.6427879100106	2.728271484375
35.6527879099854	2.72857666015625
35.6627879099601	2.72857666015625
35.6727879099349	2.728271484375
35.6827879099096	2.728271484375
35.6927879098844	2.72857666015625
35.7027879098591	2.72857666015625
35.7127879098339	2.72857666015625
35.7227879098086	2.72857666015625
35.7327879097834	2.72857666015625
35.7427879097581	2.728271484375
35.7527879097329	2.728271484375
35.7627879097076	2.728271484375
35.7727879096824	2.728271484375
35.7827879096571	2.728271484375
35.7927879096319	2.728271484375
35.8027879096066	2.728271484375
35.8127879095814	2.728271484375
35.8227879095562	2.728271484375
35.8327879095309	2.728271484375
35.8427879095057	2.728271484375
35.8527879094804	2.728271484375
35.8627879094552	2.728271484375
35.8727879094299	2.728271484375
35.8827879094047	2.728271484375
35.8927879093794	2.728271484375
35.9027879093542	2.728271484375
35.9127879093289	2.728271484375
35.9227879093037	2.728271484375
35.9327879092784	2.728271484375
35.9427879092532	2.728271484375
35.9527879092279	2.728271484375
35.9627879092027	2.728271484375
35.9727879091774	2.728271484375
35.9827879091522	2.728271484375
35.9927879091269	2.728271484375
36.0027879091017	2.72857666015625
36.0127879090765	2.72857666015625
36.0227879090512	2.72857666015625
36.032787909026	2.72857666015625
36.0427879090007	2.7288818359375
36.0527879089755	2.7288818359375
36.0627879089502	2.7288818359375
36.072787908925	2.72857666015625
36.0827879088997	2.7288818359375
36.0927879088745	2.7288818359375
36.1027879088492	2.7288818359375
36.112787908824	2.7288818359375
36.1227879087987	2.7288818359375
36.1327879087735	2.72857666015625
36.1427879087482	2.7288818359375
36.152787908723	2.7288818359375
36.1627879086977	2.72857666015625
36.1727879086725	2.72857666015625
36.1827879086472	2.7288818359375
36.192787908622	2.7288818359375
36.2027879085967	2.72857666015625
36.2127879085715	2.7288818359375
36.2227879085463	2.7288818359375
36.232787908521	2.7288818359375
36.2427879084958	2.7288818359375
36.2527879084705	2.7288818359375
36.2627879084453	2.7288818359375
36.27278790842	2.7288818359375
36.2827879083948	2.72918701171875
36.2927879083695	2.72918701171875
36.3027879083443	2.72918701171875
36.312787908319	2.72918701171875
36.3227879082938	2.72918701171875
36.3327879082685	2.72918701171875
36.3427879082433	2.72918701171875
36.352787908218	2.72918701171875
36.3627879081928	2.72918701171875
36.3727879081675	2.72918701171875
36.3827879081423	2.72918701171875
36.392787908117	2.7288818359375
36.4027879080918	2.72918701171875
36.4127879080665	2.72918701171875
36.4227879080413	2.72918701171875
36.4327879080161	2.7288818359375
36.4427879079908	2.72979736328125
36.4527879079656	2.7294921875
36.4627879079403	2.72918701171875
36.4727879079151	2.72918701171875
36.4827879078898	2.72918701171875
36.4927879078646	2.72918701171875
36.5027879078393	2.72918701171875
36.5127879078141	2.72918701171875
36.5227879077888	2.7294921875
36.5327879077636	2.7294921875
36.5427879077383	2.7294921875
36.5527879077131	2.7294921875
36.5627879076878	2.7294921875
36.5727879076626	2.7294921875
36.5827879076373	2.7294921875
36.5927879076121	2.7294921875
36.6027879075868	2.7294921875
36.6127879075616	2.7294921875
36.6227879075363	2.72979736328125
36.6327879075111	2.7294921875
36.6427879074859	2.72979736328125
36.6527879074606	2.72979736328125
36.6627879074354	2.72979736328125
36.6727879074101	2.72979736328125
36.6827879073849	2.72979736328125
36.6927879073596	2.72979736328125
36.7027879073344	2.72979736328125
36.7127879073091	2.7301025390625
36.7227879072839	2.7301025390625
36.7327879072586	2.7301025390625
36.7427879072334	2.7301025390625
36.7527879072081	2.7301025390625
36.7627879071829	2.72979736328125
36.7727879071576	2.7301025390625
36.7827879071324	2.7301025390625
36.7927879071071	2.73040771484375
36.8027879070819	2.73040771484375
36.8127879070566	2.73040771484375
36.8227879070314	2.73040771484375
36.8327879070061	2.73040771484375
36.8427879069809	2.73040771484375
36.8527879069557	2.73040771484375
36.8627879069304	2.730712890625
36.8727879069052	2.730712890625
36.8827879068799	2.730712890625
36.8927879068547	2.730712890625
36.9027879068294	2.730712890625
36.9127879068042	2.730712890625
36.9227879067789	2.730712890625
36.9327879067537	2.730712890625
36.9427879067284	2.730712890625
36.9527879067032	2.730712890625
36.9627879066779	2.73101806640625
36.9727879066527	2.73101806640625
36.9827879066274	2.730712890625
36.9927879066022	2.730712890625
37.0027879065769	2.730712890625
37.0127879065517	2.730712890625
37.0227879065264	2.73101806640625
37.0327879065012	2.73101806640625
37.042787906476	2.730712890625
37.0527879064507	2.730712890625
37.0627879064255	2.730712890625
37.0727879064002	2.730712890625
37.082787906375	2.73101806640625
37.0927879063497	2.73101806640625
37.1027879063245	2.73101806640625
37.1127879062992	2.73101806640625
37.122787906274	2.7313232421875
37.1327879062487	2.73101806640625
37.1427879062235	2.73101806640625
37.1527879061982	2.7313232421875
37.162787906173	2.73101806640625
37.1727879061477	2.73101806640625
37.1827879061225	2.73101806640625
37.1927879060972	2.73101806640625
37.202787906072	2.73101806640625
37.2127879060467	2.73101806640625
37.2227879060215	2.73101806640625
37.2327879059962	2.73101806640625
37.242787905971	2.73101806640625
37.2527879059458	2.73101806640625
37.2627879059205	2.73101806640625
37.2727879058953	2.73101806640625
37.28278790587	2.73101806640625
37.2927879058448	2.730712890625
37.3027879058195	2.73101806640625
37.3127879057943	2.73101806640625
37.322787905769	2.73101806640625
37.3327879057438	2.73101806640625
37.3427879057185	2.7313232421875
37.3527879056933	2.7313232421875
37.362787905668	2.73101806640625
37.3727879056428	2.73101806640625
37.3827879056175	2.7313232421875
37.3927879055923	2.73101806640625
37.402787905567	2.73101806640625
37.4127879055418	2.73101806640625
37.4227879055165	2.730712890625
37.4327879054913	2.73101806640625
37.442787905466	2.73101806640625
37.4527879054408	2.73101806640625
37.4627879054156	2.73101806640625
37.4727879053903	2.7313232421875
37.4827879053651	2.73101806640625
37.4927879053398	2.7313232421875
37.5027879053146	2.7313232421875
37.5127879052893	2.7313232421875
37.5227879052641	2.7313232421875
37.5327879052388	2.73101806640625
37.5427879052136	2.7313232421875
37.5527879051883	2.7313232421875
37.5627879051631	2.7313232421875
37.5727879051378	2.7313232421875
37.5827879051126	2.7313232421875
37.5927879050873	2.7313232421875
37.6027879050621	2.7313232421875
37.6127879050368	2.7313232421875
37.6227879050116	2.7313232421875
37.6327879049863	2.73101806640625
37.6427879049611	2.7313232421875
37.6527879049358	2.7313232421875
37.6627879049106	2.7313232421875
37.6727879048854	2.73101806640625
37.6827879048601	2.73101806640625
37.6927879048349	2.73101806640625
37.7027879048096	2.73101806640625
37.7127879047844	2.73101806640625
37.7227879047591	2.73101806640625
37.7327879047339	2.7313232421875
37.7427879047086	2.73101806640625
37.7527879046834	2.73101806640625
37.7627879046581	2.7313232421875
37.7727879046329	2.7313232421875
37.7827879046076	2.73101806640625
37.7927879045824	2.73101806640625
37.8027879045571	2.73101806640625
37.8127879045319	2.73101806640625
37.8227879045066	2.73101806640625
37.8327879044814	2.73101806640625
37.8427879044561	2.73101806640625
37.8527879044309	2.73101806640625
37.8627879044056	2.73101806640625
37.8727879043804	2.73101806640625
37.8827879043552	2.73101806640625
37.8927879043299	2.7313232421875
37.9027879043047	2.7313232421875
37.9127879042794	2.7313232421875
37.9227879042542	2.7313232421875
37.9327879042289	2.7313232421875
37.9427879042037	2.73162841796875
37.9527879041784	2.73162841796875
37.9627879041532	2.73162841796875
37.9727879041279	2.7313232421875
37.9827879041027	2.7313232421875
37.9927879040774	2.7313232421875
38.0027879040522	2.7313232421875
38.0127879040269	2.7313232421875
38.0227879040017	2.7313232421875
38.0327879039764	2.7313232421875
