Time (s)	WE(1).Potential (V)
5004.64834736448	0.75897216796875
5005.64834736195	0.74676513671875
5006.64834735943	0.74005126953125
5007.6483473569	0.73486328125
5008.64834735438	0.73089599609375
5009.64834735185	0.72723388671875
5010.64834734933	0.72418212890625
5011.6483473468	0.721435546875
5012.64834734428	0.71868896484375
5013.64834734175	0.71624755859375
5014.64834733923	0.714111328125
5015.64834733671	0.71197509765625
5016.64834733418	0.7098388671875
5017.64834733166	0.70770263671875
5018.64834732913	0.70587158203125
5019.64834732661	0.70404052734375
5020.64834732408	0.7025146484375
5021.64834732156	0.70068359375
5022.64834731903	0.6988525390625
5023.64834731651	0.69732666015625
5024.64834731398	0.69580078125
5025.64834731146	0.69427490234375
5026.64834730893	0.6927490234375
5027.64834730641	0.6915283203125
5028.64834730388	0.69000244140625
5029.64834730136	0.68878173828125
5030.64834729883	0.687255859375
5031.64834729631	0.68572998046875
5032.64834729378	0.68450927734375
5033.64834729126	0.68328857421875
5034.64834728873	0.68206787109375
5035.64834728621	0.68084716796875
5036.64834728369	0.67962646484375
5037.64834728116	0.67840576171875
5038.64834727864	0.677490234375
5039.64834727611	0.67626953125
5040.64834727359	0.675048828125
5041.64834727106	0.67413330078125
5042.64834726854	0.67291259765625
5043.64834726601	0.6719970703125
5044.64834726349	0.6707763671875
5045.64834726096	0.66986083984375
5046.64834725844	0.66864013671875
5047.64834725591	0.667724609375
5048.64834725339	0.66680908203125
5049.64834725086	0.66558837890625
5050.64834724834	0.6646728515625
5051.64834724581	0.66375732421875
5052.64834724329	0.66253662109375
5053.64834724076	0.66162109375
5054.64834723824	0.66070556640625
5055.64834723571	0.6597900390625
5056.64834723319	0.65887451171875
5057.64834723067	0.657958984375
5058.64834722814	0.65704345703125
5059.64834722562	0.6561279296875
5060.64834722309	0.65521240234375
5061.64834722057	0.654296875
5062.64834721804	0.65338134765625
5063.64834721552	0.6524658203125
5064.64834721299	0.65155029296875
5065.64834721047	0.65093994140625
5066.64834720794	0.6500244140625
5067.64834720542	0.64910888671875
5068.64834720289	0.648193359375
5069.64834720037	0.6475830078125
5070.64834719784	0.64666748046875
5071.64834719532	0.645751953125
5072.64834719279	0.6451416015625
5073.64834719027	0.64422607421875
5074.64834718774	0.643310546875
5075.64834718522	0.6427001953125
5076.6483471827	0.64178466796875
5077.64834718017	0.64117431640625
5078.64834717765	0.6402587890625
5079.64834717512	0.6396484375
5080.6483471726	0.63873291015625
5081.64834717007	0.6378173828125
5082.64834716755	0.63720703125
5083.64834716502	0.63629150390625
5084.6483471625	0.63568115234375
5085.64834715997	0.63507080078125
5086.64834715745	0.6341552734375
5087.64834715492	0.63323974609375
5088.6483471524	0.63262939453125
5089.64834714987	0.63201904296875
5090.64834714735	0.631103515625
5091.64834714482	0.6304931640625
5092.6483471423	0.6298828125
5093.64834713977	0.62896728515625
5094.64834713725	0.62835693359375
5095.64834713472	0.62774658203125
5096.6483471322	0.62713623046875
5097.64834712968	0.62652587890625
5098.64834712715	0.6256103515625
5099.64834712463	0.625
5100.6483471221	0.6243896484375
5101.64834711958	0.623779296875
5102.64834711705	0.6231689453125
5103.64834711453	0.62225341796875
5104.648347112	0.62164306640625
5105.64834710948	0.62103271484375
5106.64834710695	0.62042236328125
5107.64834710443	0.61981201171875
5108.6483471019	0.61920166015625
5109.64834709938	0.61859130859375
5110.64834709685	0.61767578125
5111.64834709433	0.6170654296875
5112.6483470918	0.616455078125
5113.64834708928	0.6158447265625
5114.64834708675	0.615234375
5115.64834708423	0.6146240234375
5116.6483470817	0.614013671875
5117.64834707918	0.61309814453125
5118.64834707666	0.61279296875
5119.64834707413	0.6121826171875
5120.64834707161	0.61126708984375
5121.64834706908	0.61065673828125
5122.64834706656	0.61004638671875
5123.64834706403	0.6097412109375
5124.64834706151	0.609130859375
5125.64834705898	0.6085205078125
5126.64834705646	0.60791015625
5127.64834705393	0.6072998046875
5128.64834705141	0.606689453125
5129.64834704888	0.6060791015625
5130.64834704636	0.60546875
5131.64834704383	0.6048583984375
5132.64834704131	0.604248046875
5133.64834703878	0.6036376953125
5134.64834703626	0.60302734375
5135.64834703373	0.6024169921875
5136.64834703121	0.601806640625
5137.64834702868	0.60150146484375
5138.64834702616	0.60089111328125
5139.64834702364	0.60028076171875
5140.64834702111	0.59967041015625
5141.64834701859	0.59906005859375
5142.64834701606	0.59844970703125
5143.64834701354	0.59783935546875
5144.64834701101	0.59722900390625
5145.64834700849	0.59661865234375
5146.64834700596	0.59600830078125
5147.64834700344	0.59539794921875
5148.64834700091	0.5950927734375
5149.64834699839	0.594482421875
5150.64834699586	0.5938720703125
5151.64834699334	0.59326171875
5152.64834699081	0.59295654296875
5153.64834698829	0.59234619140625
5154.64834698576	0.59173583984375
5155.64834698324	0.59112548828125
5156.64834698071	0.59051513671875
5157.64834697819	0.5902099609375
5158.64834697566	0.589599609375
5159.64834697314	0.5889892578125
5160.64834697062	0.58837890625
5161.64834696809	0.58807373046875
5162.64834696557	0.58746337890625
5163.64834696304	0.58685302734375
5164.64834696052	0.5865478515625
5165.64834695799	0.5859375
5166.64834695547	0.5853271484375
5167.64834695294	0.584716796875
5168.64834695042	0.5841064453125
5169.64834694789	0.58380126953125
5170.64834694537	0.58319091796875
5171.64834694284	0.58258056640625
5172.64834694032	0.58197021484375
5173.64834693779	0.58135986328125
5174.64834693527	0.5810546875
5175.64834693274	0.5804443359375
5176.64834693022	0.579833984375
5177.64834692769	0.5792236328125
5178.64834692517	0.57861328125
5179.64834692265	0.57830810546875
5180.64834692012	0.57769775390625
5181.6483469176	0.577392578125
5182.64834691507	0.5767822265625
5183.64834691255	0.576171875
5184.64834691002	0.5755615234375
5185.6483469075	0.57525634765625
5186.64834690497	0.57464599609375
5187.64834690245	0.57403564453125
5188.64834689992	0.57373046875
5189.6483468974	0.5731201171875
5190.64834689487	0.57281494140625
5191.64834689235	0.57220458984375
5192.64834688982	0.57159423828125
5193.6483468873	0.5712890625
5194.64834688477	0.5706787109375
5195.64834688225	0.57037353515625
5196.64834687972	0.56976318359375
5197.6483468772	0.56915283203125
5198.64834687467	0.56854248046875
5199.64834687215	0.5682373046875
5200.64834686963	0.567626953125
5201.6483468671	0.56732177734375
5202.64834686458	0.56671142578125
5203.64834686205	0.56610107421875
5204.64834685953	0.5657958984375
5205.648346857	0.565185546875
5206.64834685448	0.5645751953125
5207.64834685195	0.56427001953125
5208.64834684943	0.56365966796875
5209.6483468469	0.56304931640625
5210.64834684438	0.56243896484375
5211.64834684185	0.5621337890625
5212.64834683933	0.5615234375
5213.6483468368	0.56121826171875
5214.64834683428	0.56060791015625
5215.64834683175	0.55999755859375
5216.64834682923	0.5596923828125
5217.6483468267	0.55908203125
5218.64834682418	0.55877685546875
5219.64834682165	0.55816650390625
5220.64834681913	0.557861328125
5221.64834681661	0.5572509765625
5222.64834681408	0.556640625
5223.64834681156	0.55633544921875
5224.64834680903	0.5560302734375
5225.64834680651	0.555419921875
5226.64834680398	0.55511474609375
5227.64834680146	0.55450439453125
5228.64834679893	0.55389404296875
5229.64834679641	0.5535888671875
5230.64834679388	0.552978515625
5231.64834679136	0.55267333984375
5232.64834678883	0.55206298828125
5233.64834678631	0.5517578125
5234.64834678378	0.5511474609375
5235.64834678126	0.55084228515625
5236.64834677873	0.55023193359375
5237.64834677621	0.5499267578125
5238.64834677368	0.54931640625
5239.64834677116	0.54901123046875
5240.64834676863	0.54840087890625
5241.64834676611	0.548095703125
5242.64834676359	0.5474853515625
5243.64834676106	0.54718017578125
5244.64834675854	0.54656982421875
5245.64834675601	0.5462646484375
5246.64834675349	0.54595947265625
5247.64834675096	0.54534912109375
5248.64834674844	0.54473876953125
5249.64834674591	0.54443359375
5250.64834674339	0.54412841796875
5251.64834674086	0.54351806640625
5252.64834673834	0.543212890625
5253.64834673581	0.5426025390625
5254.64834673329	0.54229736328125
5255.64834673076	0.54168701171875
5256.64834672824	0.5413818359375
5257.64834672571	0.540771484375
5258.64834672319	0.54046630859375
5259.64834672066	0.53985595703125
5260.64834671814	0.53955078125
5261.64834671561	0.5389404296875
5262.64834671309	0.53863525390625
5263.64834671057	0.538330078125
5264.64834670804	0.5377197265625
5265.64834670552	0.53741455078125
5266.64834670299	0.53680419921875
5267.64834670047	0.5364990234375
5268.64834669794	0.535888671875
5269.64834669542	0.53558349609375
5270.64834669289	0.5352783203125
5271.64834669037	0.53466796875
5272.64834668784	0.5340576171875
5273.64834668532	0.53375244140625
5274.64834668279	0.533447265625
5275.64834668027	0.5328369140625
5276.64834667774	0.53253173828125
5277.64834667522	0.53192138671875
5278.64834667269	0.5316162109375
5279.64834667017	0.53131103515625
5280.64834666764	0.53070068359375
5281.64834666512	0.5303955078125
5282.6483466626	0.52978515625
5283.64834666007	0.52947998046875
5284.64834665755	0.52886962890625
5285.64834665502	0.528564453125
5286.6483466525	0.5279541015625
5287.64834664997	0.52764892578125
5288.64834664745	0.52734375
5289.64834664492	0.5267333984375
5290.6483466424	0.52642822265625
5291.64834663987	0.52581787109375
5292.64834663735	0.5255126953125
5293.64834663482	0.52490234375
5294.6483466323	0.52459716796875
5295.64834662977	0.52398681640625
5296.64834662725	0.523681640625
5297.64834662472	0.52337646484375
5298.6483466222	0.52276611328125
5299.64834661967	0.5224609375
5300.64834661715	0.5218505859375
5301.64834661462	0.52154541015625
5302.6483466121	0.521240234375
5303.64834660958	0.5206298828125
5304.64834660705	0.52032470703125
5305.64834660453	0.52001953125
5306.648346602	0.5194091796875
5307.64834659948	0.51910400390625
5308.64834659695	0.518798828125
5309.64834659443	0.5181884765625
5310.6483465919	0.51788330078125
5311.64834658938	0.517578125
5312.64834658685	0.5169677734375
5313.64834658433	0.51666259765625
5314.6483465818	0.51605224609375
5315.64834657928	0.5157470703125
5316.64834657675	0.51544189453125
5317.64834657423	0.51483154296875
5318.6483465717	0.5145263671875
5319.64834656918	0.513916015625
5320.64834656665	0.51361083984375
5321.64834656413	0.51300048828125
5322.6483465616	0.5126953125
5323.64834655908	0.51239013671875
5324.64834655656	0.5120849609375
5325.64834655403	0.511474609375
5326.64834655151	0.51116943359375
5327.64834654898	0.51055908203125
5328.64834654646	0.51025390625
5329.64834654393	0.50994873046875
5330.64834654141	0.50933837890625
5331.64834653888	0.509033203125
5332.64834653636	0.5084228515625
5333.64834653383	0.50811767578125
5334.64834653131	0.5078125
5335.64834652878	0.5072021484375
5336.64834652626	0.50689697265625
5337.64834652373	0.50628662109375
5338.64834652121	0.5059814453125
5339.64834651868	0.50567626953125
5340.64834651616	0.50506591796875
5341.64834651363	0.5047607421875
5342.64834651111	0.504150390625
5343.64834650858	0.50384521484375
5344.64834650606	0.5035400390625
5345.64834650354	0.5029296875
5346.64834650101	0.50262451171875
5347.64834649849	0.5023193359375
5348.64834649596	0.501708984375
5349.64834649344	0.50140380859375
5350.64834649091	0.5010986328125
5351.64834648839	0.50079345703125
5352.64834648586	0.50018310546875
5353.64834648334	0.49981689453125
5354.64834648081	0.49951171875
5355.64834647829	0.4991455078125
5356.64834647576	0.49871826171875
5357.64834647324	0.498321533203125
5358.64834647071	0.497955322265625
5359.64834646819	0.497589111328125
5360.64834646566	0.497222900390625
5361.64834646314	0.496795654296875
5362.64834646061	0.496368408203125
5363.64834645809	0.4959716796875
5364.64834645556	0.495574951171875
5365.64834645304	0.49517822265625
5366.64834645052	0.4947509765625
5367.64834644799	0.494384765625
5368.64834644547	0.494049072265625
5369.64834644294	0.49365234375
5370.64834644042	0.4931640625
5371.64834643789	0.49285888671875
5372.64834643537	0.49237060546875
5373.64834643284	0.49200439453125
5374.64834643032	0.491546630859375
5375.64834642779	0.4910888671875
5376.64834642527	0.49072265625
5377.64834642274	0.490325927734375
5378.64834642022	0.489959716796875
5379.64834641769	0.489593505859375
5380.64834641517	0.489105224609375
5381.64834641264	0.48876953125
5382.64834641012	0.48834228515625
5383.64834640759	0.4879150390625
5384.64834640507	0.48748779296875
5385.64834640255	0.48712158203125
5386.64834640002	0.48681640625
5387.6483463975	0.486419677734375
5388.64834639497	0.485992431640625
5389.64834639245	0.485626220703125
5390.64834638992	0.4852294921875
5391.6483463874	0.484832763671875
5392.64834638487	0.484466552734375
5393.64834638235	0.48406982421875
5394.64834637982	0.483642578125
5395.6483463773	0.483306884765625
5396.64834637477	0.482879638671875
5397.64834637225	0.482452392578125
5398.64834636972	0.48211669921875
5399.6483463672	0.481658935546875
5400.64834636467	0.4813232421875
5401.64834636215	0.48089599609375
5402.64834635962	0.480499267578125
5403.6483463571	0.4801025390625
5404.64834635457	0.47967529296875
5405.64834635205	0.47930908203125
5406.64834634953	0.4788818359375
5407.648346347	0.478515625
5408.64834634448	0.47808837890625
5409.64834634195	0.477569580078125
5410.64834633943	0.477142333984375
5411.6483463369	0.476806640625
5412.64834633438	0.476348876953125
5413.64834633185	0.4759521484375
5414.64834632933	0.47552490234375
5415.6483463268	0.475189208984375
5416.64834632428	0.47479248046875
5417.64834632175	0.4744873046875
5418.64834631923	0.474090576171875
5419.6483463167	0.473724365234375
5420.64834631418	0.47332763671875
5421.64834631165	0.47296142578125
5422.64834630913	0.472564697265625
5423.6483463066	0.47216796875
5424.64834630408	0.471771240234375
5425.64834630155	0.47137451171875
5426.64834629903	0.47100830078125
5427.64834629651	0.47064208984375
5428.64834629398	0.470123291015625
5429.64834629146	0.469757080078125
5430.64834628893	0.469451904296875
5431.64834628641	0.46905517578125
5432.64834628388	0.46868896484375
5433.64834628136	0.468292236328125
5434.64834627883	0.467926025390625
5435.64834627631	0.467529296875
5436.64834627378	0.46710205078125
5437.64834627126	0.46673583984375
5438.64834626873	0.46636962890625
5439.64834626621	0.4659423828125
5440.64834626368	0.465545654296875
5441.64834626116	0.465118408203125
5442.64834625863	0.464752197265625
5443.64834625611	0.46435546875
5444.64834625358	0.463958740234375
5445.64834625106	0.463592529296875
5446.64834624853	0.463226318359375
5447.64834624601	0.46282958984375
5448.64834624349	0.46240234375
5449.64834624096	0.46197509765625
5450.64834623844	0.461578369140625
5451.64834623591	0.461181640625
5452.64834623339	0.46075439453125
5453.64834623086	0.4603271484375
5454.64834622834	0.459930419921875
5455.64834622581	0.459564208984375
5456.64834622329	0.45916748046875
5457.64834622076	0.45880126953125
5458.64834621824	0.458465576171875
5459.64834621571	0.458038330078125
5460.64834621319	0.457672119140625
5461.64834621066	0.457275390625
5462.64834620814	0.4569091796875
5463.64834620561	0.456512451171875
5464.64834620309	0.45611572265625
5465.64834620056	0.45574951171875
5466.64834619804	0.455352783203125
5467.64834619551	0.455078125
5468.64834619299	0.454681396484375
5469.64834619047	0.454315185546875
5470.64834618794	0.454010009765625
5471.64834618542	0.45361328125
5472.64834618289	0.45330810546875
5473.64834618037	0.452911376953125
5474.64834617784	0.452545166015625
5475.64834617532	0.4521484375
5476.64834617279	0.451751708984375
5477.64834617027	0.45135498046875
5478.64834616774	0.450958251953125
5479.64834616522	0.450531005859375
5480.64834616269	0.450164794921875
5481.64834616017	0.44976806640625
5482.64834615764	0.4493408203125
5483.64834615512	0.44891357421875
5484.64834615259	0.448516845703125
5485.64834615007	0.44818115234375
5486.64834614754	0.44781494140625
5487.64834614502	0.447418212890625
5488.6483461425	0.447021484375
5489.64834613997	0.4466552734375
5490.64834613745	0.44635009765625
5491.64834613492	0.44598388671875
5492.6483461324	0.445587158203125
5493.64834612987	0.445220947265625
5494.64834612735	0.444793701171875
5495.64834612482	0.44439697265625
5496.6483461223	0.4439697265625
5497.64834611977	0.443572998046875
5498.64834611725	0.443206787109375
5499.64834611472	0.44287109375
5500.6483461122	0.44244384765625
5501.64834610967	0.44207763671875
5502.64834610715	0.441741943359375
5503.64834610462	0.44134521484375
5504.6483461021	0.441009521484375
5505.64834609957	0.44061279296875
5506.64834609705	0.440277099609375
5507.64834609452	0.439910888671875
5508.648346092	0.43951416015625
5509.64834608948	0.439178466796875
5510.64834608695	0.4388427734375
5511.64834608443	0.4384765625
5512.6483460819	0.43804931640625
5513.64834607938	0.437713623046875
5514.64834607685	0.437347412109375
5515.64834607433	0.43695068359375
5516.6483460718	0.4365234375
5517.64834606928	0.436187744140625
5518.64834606675	0.435821533203125
5519.64834606423	0.435455322265625
5520.6483460617	0.43505859375
5521.64834605918	0.434661865234375
5522.64834605665	0.434356689453125
5523.64834605413	0.433990478515625
5524.6483460516	0.433624267578125
5525.64834604908	0.433197021484375
5526.64834604655	0.432861328125
5527.64834604403	0.43243408203125
5528.6483460415	0.432098388671875
5529.64834603898	0.4317626953125
5530.64834603646	0.431427001953125
5531.64834603393	0.43109130859375
5532.64834603141	0.4307861328125
5533.64834602888	0.430419921875
5534.64834602636	0.42999267578125
5535.64834602383	0.429656982421875
5536.64834602131	0.42919921875
5537.64834601878	0.42889404296875
5538.64834601626	0.428466796875
5539.64834601373	0.42816162109375
5540.64834601121	0.42779541015625
5541.64834600868	0.427459716796875
5542.64834600616	0.42706298828125
5543.64834600363	0.42669677734375
5544.64834600111	0.426300048828125
5545.64834599858	0.42596435546875
5546.64834599606	0.425567626953125
5547.64834599353	0.42523193359375
5548.64834599101	0.424835205078125
5549.64834598848	0.424407958984375
5550.64834598596	0.42413330078125
5551.64834598344	0.423858642578125
5552.64834598091	0.423492431640625
5553.64834597839	0.423095703125
5554.64834597586	0.4227294921875
5555.64834597334	0.42236328125
5556.64834597081	0.421966552734375
5557.64834596829	0.42169189453125
5558.64834596576	0.4212646484375
5559.64834596324	0.420928955078125
5560.64834596071	0.42059326171875
5561.64834595819	0.420166015625
5562.64834595566	0.41986083984375
5563.64834595314	0.419464111328125
5564.64834595061	0.419097900390625
5565.64834594809	0.418731689453125
5566.64834594556	0.418426513671875
5567.64834594304	0.41802978515625
5568.64834594051	0.417633056640625
5569.64834593799	0.41729736328125
5570.64834593546	0.41693115234375
5571.64834593294	0.41656494140625
5572.64834593042	0.416168212890625
5573.64834592789	0.415802001953125
5574.64834592537	0.415435791015625
5575.64834592284	0.4151611328125
5576.64834592032	0.41485595703125
5577.64834591779	0.41448974609375
5578.64834591527	0.414093017578125
5579.64834591274	0.413726806640625
5580.64834591022	0.413421630859375
5581.64834590769	0.4130859375
5582.64834590517	0.412811279296875
5583.64834590264	0.412384033203125
5584.64834590012	0.4119873046875
5585.64834589759	0.411529541015625
