Time (s)	WE(1).Potential (V)
21564.7355755543	0.83587646484375
21565.7355755518	0.88348388671875
21566.7355755492	0.91217041015625
21567.7355755467	0.93353271484375
21568.7355755442	0.9503173828125
21569.7355755417	0.96435546875
21570.7355755391	0.9759521484375
21571.7355755366	0.98602294921875
21572.7355755341	0.99456787109375
21573.7355755316	1.002197265625
21574.735575529	1.00860595703125
21575.7355755265	1.0150146484375
21576.735575524	1.0205078125
