Time (s)	WE(1).Potential (V)
2.46735899377052	0.3172607421875
3.46735899124576	0.328521728515625
4.467358988721	0.33551025390625
5.46735898619625	0.341033935546875
6.46735898367149	0.345733642578125
7.46735898114673	0.350006103515625
8.46735897862197	0.353851318359375
9.46735897609722	0.357513427734375
10.4673589735725	0.36090087890625
11.4673589710477	0.364105224609375
12.4673589685229	0.367218017578125
13.4673589659982	0.370208740234375
14.4673589634734	0.373138427734375
15.4673589609487	0.37591552734375
16.4673589584239	0.37872314453125
17.4673589558992	0.381500244140625
18.4673589533744	0.38409423828125
19.4673589508496	0.386566162109375
20.4673589483249	0.3890380859375
21.4673589458001	0.3914794921875
22.4673589432754	0.393798828125
23.4673589407506	0.396087646484375
24.4673589382259	0.3984375
25.4673589357011	0.400787353515625
26.4673589331763	0.403167724609375
27.4673589306516	0.405487060546875
28.4673589281268	0.4075927734375
29.4673589256021	0.4097900390625
30.4673589230773	0.4119873046875
31.4673589205526	0.41412353515625
32.4673589180278	0.416168212890625
33.467358915503	0.418243408203125
34.4673589129783	0.42034912109375
35.4673589104535	0.42236328125
36.4673589079288	0.42431640625
37.467358905404	0.42626953125
38.4673589028793	0.42828369140625
39.4673589003545	0.430206298828125
40.4673588978297	0.432098388671875
41.467358895305	0.43408203125
42.4673588927802	0.436004638671875
43.4673588902555	0.4378662109375
44.4673588877307	0.43975830078125
45.467358885206	0.441741943359375
46.4673588826812	0.44354248046875
47.4673588801564	0.4453125
48.4673588776317	0.44708251953125
49.4673588751069	0.448822021484375
50.4673588725822	0.45062255859375
51.4673588700574	0.452392578125
52.4673588675327	0.4542236328125
53.4673588650079	0.455902099609375
54.4673588624831	0.4576416015625
55.4673588599584	0.4593505859375
56.4673588574336	0.461029052734375
57.4673588549089	0.46270751953125
58.4673588523841	0.46380615234375
59.4673588498594	0.4656982421875
60.4673588473346	0.46771240234375
61.4673588448098	0.4693603515625
62.4673588422851	0.47100830078125
63.4673588397603	0.472747802734375
64.4673588372356	0.4744873046875
65.4673588347108	0.476165771484375
66.4673588321861	0.477752685546875
67.4673588296613	0.479339599609375
68.4673588271365	0.480865478515625
69.4673588246118	0.4822998046875
70.467358822087	0.48388671875
71.4673588195623	0.485382080078125
72.4673588170375	0.48687744140625
73.4673588145127	0.488433837890625
74.467358811988	0.48992919921875
75.4673588094632	0.49139404296875
76.4673588069385	0.492889404296875
77.4673588044137	0.49432373046875
78.467358801889	0.4957275390625
79.4673587993642	0.497161865234375
80.4673587968394	0.49853515625
81.4673587943147	0.499908447265625
82.4673587917899	0.5010986328125
83.4673587892652	0.50262451171875
84.4673587867404	0.504150390625
85.4673587842157	0.50567626953125
86.4673587816909	0.5072021484375
87.4673587791661	0.5084228515625
88.4673587766414	0.5096435546875
89.4673587741166	0.51116943359375
90.4673587715919	0.51239013671875
91.4673587690671	0.51361083984375
92.4673587665424	0.51513671875
93.4673587640176	0.516357421875
94.4673587614928	0.51788330078125
95.4673587589681	0.51910400390625
96.4673587564433	0.52032470703125
97.4673587539186	0.52154541015625
98.4673587513938	0.5230712890625
99.4673587488691	0.5242919921875
100.467358746344	0.5255126953125
101.46735874382	0.5267333984375
102.467358741295	0.5267333984375
103.46735873877	0.52734375
104.467358736245	0.52886962890625
105.467358733721	0.5303955078125
106.467358731196	0.53192138671875
107.467358728671	0.53375244140625
108.467358726146	0.5352783203125
109.467358723621	0.5364990234375
110.467358721097	0.53741455078125
111.467358718572	0.538330078125
112.467358716047	0.53955078125
113.467358713522	0.540771484375
114.467358710998	0.54168701171875
115.467358708473	0.54290771484375
116.467358705948	0.54412841796875
117.467358703423	0.54534912109375
118.467358700899	0.5462646484375
119.467358698374	0.54718017578125
120.467358695849	0.548095703125
121.467358693324	0.54931640625
122.4673586908	0.55023193359375
123.467358688275	0.55145263671875
124.46735868575	0.5523681640625
125.467358683225	0.5535888671875
126.467358680701	0.55450439453125
127.467358678176	0.55572509765625
128.467358675651	0.556640625
129.467358673126	0.557861328125
130.467358670602	0.55877685546875
131.467358668077	0.5596923828125
132.467358665552	0.5609130859375
133.467358663027	0.5621337890625
134.467358660503	0.56304931640625
135.467358657978	0.56427001953125
136.467358655453	0.565185546875
137.467358652928	0.56640625
138.467358650404	0.56732177734375
139.467358647879	0.5682373046875
140.467358645354	0.5694580078125
141.467358642829	0.57037353515625
142.467358640304	0.5712890625
143.46735863778	0.57220458984375
144.467358635255	0.5731201171875
145.46735863273	0.57403564453125
146.467358630205	0.57525634765625
147.467358627681	0.576171875
148.467358625156	0.57708740234375
149.467358622631	0.5780029296875
150.467358620106	0.5792236328125
151.467358617582	0.58013916015625
152.467358615057	0.5810546875
153.467358612532	0.58197021484375
154.467358610007	0.5828857421875
155.467358607483	0.5828857421875
156.467358604958	0.58380126953125
157.467358602433	0.58502197265625
158.467358599908	0.5859375
159.467358597384	0.58685302734375
160.467358594859	0.5877685546875
161.467358592334	0.58868408203125
162.467358589809	0.589599609375
163.467358587285	0.5902099609375
164.46735858476	0.5914306640625
165.467358582235	0.5926513671875
166.46735857971	0.59356689453125
167.467358577186	0.59417724609375
168.467358574661	0.59478759765625
169.467358572136	0.595703125
170.467358569611	0.5963134765625
171.467358567087	0.59722900390625
172.467358564562	0.59783935546875
173.467358562037	0.5987548828125
174.467358559512	0.59967041015625
175.467358556988	0.60028076171875
176.467358554463	0.6011962890625
177.467358551938	0.601806640625
178.467358549413	0.60272216796875
179.467358546888	0.60333251953125
180.467358544364	0.604248046875
181.467358541839	0.6048583984375
182.467358539314	0.60577392578125
183.467358536789	0.60638427734375
184.467358534265	0.6072998046875
185.46735853174	0.60791015625
186.467358529215	0.60882568359375
187.46735852669	0.60943603515625
188.467358524166	0.6103515625
189.467358521641	0.6109619140625
190.467358519116	0.611572265625
191.467358516591	0.61248779296875
192.467358514067	0.61309814453125
193.467358511542	0.614013671875
194.467358509017	0.6146240234375
195.467358506492	0.61553955078125
196.467358503968	0.61614990234375
197.467358501443	0.61676025390625
198.467358498918	0.61767578125
199.467358496393	0.6182861328125
200.467358493869	0.61920166015625
201.467358491344	0.61981201171875
202.467358488819	0.62042236328125
203.467358486294	0.621337890625
204.46735848377	0.6219482421875
205.467358481245	0.62286376953125
206.46735847872	0.62347412109375
207.467358476195	0.6243896484375
208.467358473671	0.625
209.467358471146	0.6256103515625
210.467358468621	0.626220703125
211.467358466096	0.62713623046875
212.467358463571	0.62774658203125
213.467358461047	0.62835693359375
214.467358458522	0.62896728515625
215.467358455997	0.62957763671875
216.467358453472	0.63018798828125
217.467358450948	0.6304931640625
218.467358448423	0.63140869140625
219.467358445898	0.63201904296875
220.467358443373	0.63262939453125
221.467358440849	0.63323974609375
222.467358438324	0.63385009765625
223.467358435799	0.63446044921875
224.467358433274	0.6353759765625
225.46735843075	0.635986328125
226.467358428225	0.6365966796875
227.4673584257	0.63720703125
228.467358423175	0.63812255859375
229.467358420651	0.63873291015625
230.467358418126	0.63934326171875
231.467358415601	0.63995361328125
232.467358413076	0.64056396484375
233.467358410552	0.6414794921875
234.467358408027	0.64178466796875
235.467358405502	0.64239501953125
236.467358402977	0.64300537109375
237.467358400453	0.64361572265625
238.467358397928	0.64453125
239.467358395403	0.6451416015625
240.467358392878	0.645751953125
241.467358390354	0.6463623046875
242.467358387829	0.64697265625
243.467358385304	0.64727783203125
244.467358382779	0.64788818359375
245.467358380254	0.6488037109375
246.46735837773	0.6494140625
247.467358375205	0.6500244140625
248.46735837268	0.650634765625
249.467358370155	0.6512451171875
250.467358367631	0.65185546875
251.467358365106	0.6524658203125
252.467358362581	0.653076171875
253.467358360056	0.6536865234375
254.467358357532	0.65460205078125
255.467358355007	0.65521240234375
256.467358352482	0.65582275390625
257.467358349957	0.65643310546875
258.467358347433	0.65673828125
259.467358344908	0.65673828125
260.467358342383	0.65673828125
261.467358339858	0.65704345703125
262.467358337334	0.65765380859375
263.467358334809	0.65826416015625
264.467358332284	0.6591796875
265.467358329759	0.6597900390625
266.467358327235	0.66009521484375
267.46735832471	0.66070556640625
268.467358322185	0.66131591796875
269.46735831966	0.66192626953125
270.467358317136	0.66253662109375
271.467358314611	0.66314697265625
272.467358312086	0.6640625
273.467358309561	0.6646728515625
274.467358307037	0.665283203125
275.467358304512	0.6658935546875
276.467358301987	0.66619873046875
277.467358299462	0.66650390625
278.467358296938	0.66680908203125
279.467358294413	0.6671142578125
280.467358291888	0.667724609375
281.467358289363	0.66802978515625
282.467358286838	0.66864013671875
283.467358284314	0.66925048828125
284.467358281789	0.6695556640625
285.467358279264	0.670166015625
286.467358276739	0.67047119140625
287.467358274215	0.6707763671875
288.46735827169	0.67138671875
289.467358269165	0.6719970703125
290.46735826664	0.67230224609375
291.467358264116	0.67291259765625
292.467358261591	0.67352294921875
293.467358259066	0.673828125
294.467358256541	0.6744384765625
295.467358254017	0.67474365234375
296.467358251492	0.67535400390625
297.467358248967	0.67596435546875
298.467358246442	0.67626953125
299.467358243918	0.6768798828125
300.467358241393	0.67718505859375
301.467358238868	0.67779541015625
302.467358236343	0.6781005859375
303.467358233819	0.6787109375
304.467358231294	0.67901611328125
305.467358228769	0.67962646484375
306.467358226244	0.679931640625
307.46735822372	0.6805419921875
308.467358221195	0.68115234375
309.46735821867	0.68145751953125
310.467358216145	0.68206787109375
311.467358213621	0.68267822265625
312.467358211096	0.6829833984375
313.467358208571	0.68359375
314.467358206046	0.68389892578125
315.467358203521	0.6842041015625
316.467358200997	0.68450927734375
317.467358198472	0.68511962890625
318.467358195947	0.6854248046875
319.467358193422	0.68603515625
320.467358190898	0.68634033203125
321.467358188373	0.68695068359375
322.467358185848	0.68756103515625
323.467358183323	0.6878662109375
324.467358180799	0.6884765625
325.467358178274	0.68878173828125
326.467358175749	0.68939208984375
327.467358173224	0.69000244140625
328.4673581707	0.6903076171875
329.467358168175	0.69091796875
330.46735816565	0.6915283203125
331.467358163125	0.69183349609375
332.467358160601	0.69244384765625
333.467358158076	0.6927490234375
334.467358155551	0.693359375
335.467358153026	0.69366455078125
336.467358150502	0.69427490234375
337.467358147977	0.69488525390625
338.467358145452	0.6951904296875
339.467358142927	0.69580078125
340.467358140403	0.69610595703125
341.467358137878	0.69671630859375
342.467358135353	0.697021484375
343.467358132828	0.69732666015625
344.467358130304	0.69793701171875
345.467358127779	0.6982421875
346.467358125254	0.6988525390625
347.467358122729	0.699462890625
348.467358120204	0.69976806640625
349.46735811768	0.69976806640625
350.467358115155	0.69976806640625
351.46735811263	0.7000732421875
352.467358110105	0.70037841796875
353.467358107581	0.70098876953125
354.467358105056	0.70159912109375
355.467358102531	0.70220947265625
356.467358100006	0.70281982421875
357.467358097482	0.703125
358.467358094957	0.703125
359.467358092432	0.70343017578125
360.467358089907	0.7037353515625
361.467358087383	0.704345703125
362.467358084858	0.70465087890625
363.467358082333	0.7049560546875
364.467358079808	0.70526123046875
365.467358077284	0.70556640625
366.467358074759	0.70587158203125
367.467358072234	0.70648193359375
368.467358069709	0.706787109375
369.467358067185	0.70709228515625
370.46735806466	0.7073974609375
371.467358062135	0.70770263671875
372.46735805961	0.7080078125
373.467358057086	0.70831298828125
374.467358054561	0.70892333984375
375.467358052036	0.709228515625
376.467358049511	0.70953369140625
377.467358046987	0.7098388671875
378.467358044462	0.71044921875
379.467358041937	0.71075439453125
380.467358039412	0.7110595703125
381.467358036888	0.71136474609375
382.467358034363	0.71197509765625
383.467358031838	0.7122802734375
384.467358029313	0.71258544921875
385.467358026788	0.712890625
386.467358024264	0.71319580078125
387.467358021739	0.7135009765625
388.467358019214	0.71380615234375
389.467358016689	0.71441650390625
390.467358014165	0.7147216796875
391.46735801164	0.71502685546875
392.467358009115	0.71533203125
393.46735800659	0.71563720703125
394.467358004066	0.7159423828125
395.467358001541	0.71624755859375
396.467357999016	0.716552734375
397.467357996491	0.71685791015625
398.467357993967	0.71746826171875
399.467357991442	0.7177734375
400.467357988917	0.71807861328125
401.467357986392	0.7183837890625
402.467357983868	0.71868896484375
403.467357981343	0.718994140625
404.467357978818	0.71929931640625
405.467357976293	0.7196044921875
406.467357973769	0.72021484375
407.467357971244	0.72052001953125
408.467357968719	0.7208251953125
409.467357966194	0.72113037109375
410.46735796367	0.72174072265625
411.467357961145	0.72174072265625
412.46735795862	0.721435546875
413.467357956095	0.72174072265625
414.467357953571	0.7220458984375
415.467357951046	0.72265625
416.467357948521	0.72296142578125
417.467357945996	0.7232666015625
418.467357943471	0.72357177734375
419.467357940947	0.723876953125
420.467357938422	0.723876953125
421.467357935897	0.72418212890625
422.467357933372	0.7244873046875
423.467357930848	0.72479248046875
424.467357928323	0.72509765625
425.467357925798	0.72540283203125
426.467357923273	0.7257080078125
427.467357920749	0.72601318359375
428.467357918224	0.726318359375
429.467357915699	0.72662353515625
430.467357913174	0.7269287109375
431.46735791065	0.72723388671875
432.467357908125	0.7275390625
433.4673579056	0.72784423828125
434.467357903075	0.7281494140625
435.467357900551	0.72845458984375
436.467357898026	0.728759765625
437.467357895501	0.72906494140625
438.467357892976	0.7293701171875
439.467357890452	0.72967529296875
440.467357887927	0.72998046875
441.467357885402	0.73028564453125
442.467357882877	0.7305908203125
443.467357880353	0.73089599609375
444.467357877828	0.731201171875
445.467357875303	0.73150634765625
446.467357872778	0.7318115234375
447.467357870254	0.73211669921875
448.467357867729	0.732421875
449.467357865204	0.73272705078125
450.467357862679	0.7330322265625
451.467357860154	0.7330322265625
452.46735785763	0.73333740234375
453.467357855105	0.733642578125
454.46735785258	0.73394775390625
455.467357850055	0.7342529296875
456.467357847531	0.73455810546875
457.467357845006	0.73486328125
458.467357842481	0.73516845703125
459.467357839956	0.7354736328125
460.467357837432	0.73577880859375
461.467357834907	0.736083984375
462.467357832382	0.73638916015625
463.467357829857	0.7366943359375
464.467357827333	0.73699951171875
465.467357824808	0.7373046875
466.467357822283	0.7373046875
467.467357819758	0.73760986328125
468.467357817234	0.73760986328125
469.467357814709	0.73760986328125
470.467357812184	0.7379150390625
471.467357809659	0.73822021484375
472.467357807135	0.738525390625
473.46735780461	0.73883056640625
474.467357802085	0.73883056640625
475.46735779956	0.7391357421875
476.467357797036	0.73944091796875
477.467357794511	0.73974609375
478.467357791986	0.74005126953125
479.467357789461	0.7403564453125
480.467357786937	0.7403564453125
481.467357784412	0.74066162109375
482.467357781887	0.740966796875
483.467357779362	0.74127197265625
484.467357776838	0.7415771484375
485.467357774313	0.74188232421875
486.467357771788	0.74188232421875
487.467357769263	0.7421875
488.467357766738	0.74249267578125
489.467357764214	0.7427978515625
490.467357761689	0.74310302734375
491.467357759164	0.74310302734375
492.467357756639	0.743408203125
493.467357754115	0.74371337890625
494.46735775159	0.7440185546875
495.467357749065	0.74432373046875
496.46735774654	0.74432373046875
497.467357744016	0.74462890625
498.467357741491	0.74493408203125
499.467357738966	0.7452392578125
500.467357736441	0.74554443359375
501.467357733917	0.745849609375
502.467357731392	0.74615478515625
503.467357728867	0.7464599609375
504.467357726342	0.7464599609375
505.467357723818	0.74676513671875
506.467357721293	0.7470703125
507.467357718768	0.74737548828125
508.467357716243	0.7476806640625
509.467357713719	0.74798583984375
510.467357711194	0.748291015625
511.467357708669	0.74859619140625
512.467357706144	0.7489013671875
513.46735770362	0.74920654296875
514.467357701095	0.74951171875
515.46735769857	0.74981689453125
516.467357696045	0.74981689453125
517.467357693521	0.7501220703125
518.467357690996	0.7501220703125
519.467357688471	0.7501220703125
520.467357685946	0.75042724609375
521.467357683421	0.750732421875
522.467357680897	0.75103759765625
523.467357678372	0.75103759765625
524.467357675847	0.7513427734375
525.467357673322	0.75164794921875
526.467357670798	0.75164794921875
527.467357668273	0.751953125
528.467357665748	0.75225830078125
529.467357663223	0.7525634765625
530.467357660699	0.7525634765625
531.467357658174	0.75286865234375
532.467357655649	0.753173828125
533.467357653124	0.75347900390625
534.4673576506	0.7537841796875
535.467357648075	0.75408935546875
536.46735764555	0.75408935546875
537.467357643025	0.75439453125
538.467357640501	0.75469970703125
539.467357637976	0.7550048828125
540.467357635451	0.75531005859375
541.467357632926	0.755615234375
542.467357630402	0.75592041015625
543.467357627877	0.7562255859375
544.467357625352	0.75653076171875
545.467357622827	0.75653076171875
546.467357620303	0.7568359375
547.467357617778	0.75714111328125
548.467357615253	0.7574462890625
549.467357612728	0.75775146484375
550.467357610204	0.758056640625
551.467357607679	0.75836181640625
552.467357605154	0.7586669921875
553.467357602629	0.75897216796875
554.467357600104	0.75927734375
555.46735759758	0.75958251953125
556.467357595055	0.7598876953125
557.46735759253	0.76019287109375
558.467357590005	0.76019287109375
559.467357587481	0.76080322265625
560.467357584956	0.7611083984375
561.467357582431	0.76141357421875
562.467357579906	0.76171875
563.467357577382	0.76202392578125
564.467357574857	0.7623291015625
565.467357572332	0.762939453125
566.467357569807	0.76324462890625
567.467357567283	0.76385498046875
568.467357564758	0.76416015625
569.467357562233	0.76446533203125
570.467357559708	0.7647705078125
571.467357557184	0.76507568359375
572.467357554659	0.765380859375
573.467357552134	0.76568603515625
574.467357549609	0.7659912109375
575.467357547085	0.76629638671875
576.46735754456	0.7666015625
577.467357542035	0.76690673828125
578.46735753951	0.7672119140625
579.467357536986	0.76751708984375
580.467357534461	0.76751708984375
581.467357531936	0.767822265625
582.467357529411	0.76812744140625
583.467357526887	0.7684326171875
584.467357524362	0.76873779296875
585.467357521837	0.76904296875
586.467357519312	0.76934814453125
587.467357516788	0.76934814453125
588.467357514263	0.7696533203125
