Time (s)	WE(1).Potential (V)
17188.0965456042	0.79010009765625
17189.0965456017	0.775146484375
17190.0965455992	0.7672119140625
17191.0965455967	0.76141357421875
17192.0965455941	0.7568359375
17193.0965455916	0.753173828125
17194.0965455891	0.74981689453125
17195.0965455866	0.74676513671875
17196.096545584	0.74432373046875
17197.0965455815	0.74188232421875
17198.096545579	0.73944091796875
17199.0965455765	0.7373046875
17200.0965455739	0.73516845703125
17201.0965455714	0.73333740234375
17202.0965455689	0.73150634765625
17203.0965455664	0.72998046875
17204.0965455638	0.7281494140625
17205.0965455613	0.72662353515625
17206.0965455588	0.72479248046875
17207.0965455563	0.72357177734375
17208.0965455537	0.7220458984375
17209.0965455512	0.72052001953125
17210.0965455487	0.71929931640625
17211.0965455462	0.7177734375
17212.0965455436	0.716552734375
17213.0965455411	0.71533203125
17214.0965455386	0.714111328125
17215.0965455361	0.712890625
17216.0965455335	0.711669921875
17217.096545531	0.71014404296875
17218.0965455285	0.709228515625
17219.096545526	0.7080078125
17220.0965455234	0.70709228515625
17221.0965455209	0.70587158203125
17222.0965455184	0.70465087890625
17223.0965455159	0.7037353515625
17224.0965455133	0.70281982421875
17225.0965455108	0.70159912109375
17226.0965455083	0.70068359375
17227.0965455058	0.69976806640625
17228.0965455032	0.6988525390625
17229.0965455007	0.6976318359375
17230.0965454982	0.69671630859375
17231.0965454957	0.69580078125
17232.0965454931	0.69488525390625
17233.0965454906	0.6939697265625
17234.0965454881	0.69305419921875
17235.0965454856	0.69183349609375
17236.096545483	0.69091796875
17237.0965454805	0.6903076171875
17238.096545478	0.6890869140625
17239.0965454755	0.6884765625
17240.0965454729	0.687255859375
17241.0965454704	0.68634033203125
17242.0965454679	0.68572998046875
17243.0965454654	0.684814453125
17244.0965454628	0.68389892578125
17245.0965454603	0.6829833984375
17246.0965454578	0.68206787109375
17247.0965454553	0.68115234375
17248.0965454527	0.6805419921875
17249.0965454502	0.67962646484375
17250.0965454477	0.6787109375
17251.0965454452	0.6781005859375
17252.0965454426	0.67718505859375
17253.0965454401	0.67626953125
17254.0965454376	0.6756591796875
17255.0965454351	0.67474365234375
17256.0965454325	0.673828125
17257.09654543	0.6732177734375
17258.0965454275	0.67230224609375
17259.096545425	0.67169189453125
17260.0965454224	0.6707763671875
17261.0965454199	0.670166015625
17262.0965454174	0.66925048828125
17263.0965454149	0.66864013671875
17264.0965454123	0.667724609375
17265.0965454098	0.6671142578125
17266.0965454073	0.66619873046875
17267.0965454048	0.66558837890625
17268.0965454022	0.66497802734375
17269.0965453997	0.6640625
17270.0965453972	0.6634521484375
17271.0965453947	0.66253662109375
17272.0965453921	0.66192626953125
17273.0965453896	0.66131591796875
17274.0965453871	0.660400390625
17275.0965453846	0.6597900390625
17276.096545382	0.65887451171875
17277.0965453795	0.65826416015625
17278.096545377	0.65765380859375
17279.0965453745	0.65704345703125
17280.096545372	0.6561279296875
17281.0965453694	0.655517578125
17282.0965453669	0.6549072265625
17283.0965453644	0.65399169921875
17284.0965453619	0.65338134765625
17285.0965453593	0.65277099609375
17286.0965453568	0.65216064453125
17287.0965453543	0.6512451171875
17288.0965453518	0.650634765625
17289.0965453492	0.6500244140625
17290.0965453467	0.6494140625
17291.0965453442	0.6488037109375
17292.0965453417	0.648193359375
17293.0965453391	0.64727783203125
17294.0965453366	0.64666748046875
17295.0965453341	0.64605712890625
17296.0965453316	0.64544677734375
17297.096545329	0.64483642578125
17298.0965453265	0.64422607421875
17299.096545324	0.643310546875
17300.0965453215	0.6427001953125
17301.0965453189	0.64208984375
17302.0965453164	0.6414794921875
17303.0965453139	0.640869140625
17304.0965453114	0.6402587890625
17305.0965453088	0.63934326171875
17306.0965453063	0.63873291015625
17307.0965453038	0.63812255859375
17308.0965453013	0.63751220703125
17309.0965452987	0.63690185546875
17310.0965452962	0.63629150390625
17311.0965452937	0.63568115234375
17312.0965452912	0.63507080078125
17313.0965452886	0.63446044921875
17314.0965452861	0.63385009765625
17315.0965452836	0.63323974609375
17316.0965452811	0.63262939453125
17317.0965452785	0.63201904296875
17318.096545276	0.63140869140625
17319.0965452735	0.63079833984375
17320.096545271	0.63018798828125
17321.0965452684	0.62957763671875
17322.0965452659	0.62896728515625
17323.0965452634	0.62835693359375
17324.0965452609	0.62774658203125
17325.0965452583	0.6268310546875
17326.0965452558	0.626220703125
17327.0965452533	0.6256103515625
17328.0965452508	0.62530517578125
17329.0965452482	0.62469482421875
17330.0965452457	0.6243896484375
17331.0965452432	0.62347412109375
17332.0965452407	0.62286376953125
17333.0965452381	0.62225341796875
17334.0965452356	0.62164306640625
17335.0965452331	0.62103271484375
17336.0965452306	0.62042236328125
17337.096545228	0.61981201171875
17338.0965452255	0.61920166015625
17339.096545223	0.61859130859375
17340.0965452205	0.61798095703125
17341.0965452179	0.61737060546875
17342.0965452154	0.61676025390625
17343.0965452129	0.61614990234375
17344.0965452104	0.61553955078125
17345.0965452078	0.61492919921875
17346.0965452053	0.61431884765625
17347.0965452028	0.614013671875
17348.0965452003	0.6134033203125
17349.0965451977	0.61279296875
17350.0965451952	0.6121826171875
17351.0965451927	0.611572265625
17352.0965451902	0.6109619140625
17353.0965451876	0.61065673828125
17354.0965451851	0.61004638671875
17355.0965451826	0.60943603515625
17356.0965451801	0.60882568359375
17357.0965451775	0.60821533203125
17358.096545175	0.60791015625
17359.0965451725	0.6072998046875
17360.09654517	0.606689453125
17361.0965451674	0.6060791015625
17362.0965451649	0.60546875
17363.0965451624	0.60516357421875
17364.0965451599	0.60455322265625
17365.0965451573	0.60394287109375
17366.0965451548	0.60333251953125
17367.0965451523	0.60272216796875
17368.0965451498	0.6024169921875
17369.0965451472	0.601806640625
17370.0965451447	0.6011962890625
17371.0965451422	0.6005859375
17372.0965451397	0.60028076171875
17373.0965451371	0.59967041015625
17374.0965451346	0.59906005859375
17375.0965451321	0.59844970703125
17376.0965451296	0.59783935546875
17377.096545127	0.5975341796875
17378.0965451245	0.596923828125
17379.096545122	0.5963134765625
17380.0965451195	0.595703125
17381.096545117	0.5950927734375
17382.0965451144	0.59478759765625
17383.0965451119	0.59417724609375
17384.0965451094	0.59356689453125
17385.0965451069	0.59295654296875
17386.0965451043	0.59234619140625
17387.0965451018	0.592041015625
17388.0965450993	0.5914306640625
17389.0965450968	0.5908203125
17390.0965450942	0.5902099609375
17391.0965450917	0.58990478515625
17392.0965450892	0.58929443359375
17393.0965450867	0.58868408203125
17394.0965450841	0.58837890625
17395.0965450816	0.5877685546875
17396.0965450791	0.587158203125
17397.0965450766	0.5865478515625
17398.096545074	0.58624267578125
17399.0965450715	0.58563232421875
17400.096545069	0.58502197265625
17401.0965450665	0.584716796875
17402.0965450639	0.5841064453125
17403.0965450614	0.58349609375
17404.0965450589	0.5828857421875
17405.0965450564	0.58258056640625
17406.0965450538	0.58197021484375
17407.0965450513	0.5816650390625
17408.0965450488	0.5810546875
17409.0965450463	0.5804443359375
17410.0965450437	0.58013916015625
17411.0965450412	0.57952880859375
17412.0965450387	0.57891845703125
17413.0965450362	0.57861328125
17414.0965450336	0.5780029296875
17415.0965450311	0.577392578125
17416.0965450286	0.57708740234375
17417.0965450261	0.57647705078125
17418.0965450235	0.576171875
17419.096545021	0.5755615234375
17420.0965450185	0.574951171875
17421.096545016	0.5743408203125
17422.0965450134	0.57403564453125
17423.0965450109	0.57342529296875
17424.0965450084	0.5731201171875
17425.0965450059	0.572509765625
17426.0965450033	0.5718994140625
17427.0965450008	0.57159423828125
17428.0965449983	0.57098388671875
17429.0965449958	0.5706787109375
17430.0965449932	0.570068359375
17431.0965449907	0.5694580078125
17432.0965449882	0.56915283203125
17433.0965449857	0.56854248046875
17434.0965449831	0.5682373046875
17435.0965449806	0.567626953125
17436.0965449781	0.5670166015625
17437.0965449756	0.56671142578125
17438.096544973	0.56610107421875
17439.0965449705	0.5657958984375
17440.096544968	0.565185546875
17441.0965449655	0.5645751953125
17442.0965449629	0.56427001953125
17443.0965449604	0.56365966796875
17444.0965449579	0.5633544921875
17445.0965449554	0.562744140625
17446.0965449528	0.5621337890625
17447.0965449503	0.56182861328125
17448.0965449478	0.5615234375
17449.0965449453	0.5609130859375
17450.0965449427	0.560302734375
17451.0965449402	0.55999755859375
17452.0965449377	0.55938720703125
17453.0965449352	0.55877685546875
17454.0965449326	0.5584716796875
17455.0965449301	0.557861328125
17456.0965449276	0.55755615234375
17457.0965449251	0.55694580078125
17458.0965449225	0.556640625
17459.09654492	0.5560302734375
17460.0965449175	0.55572509765625
17461.096544915	0.55511474609375
17462.0965449124	0.5548095703125
17463.0965449099	0.55419921875
17464.0965449074	0.55389404296875
17465.0965449049	0.55328369140625
17466.0965449023	0.552978515625
17467.0965448998	0.5523681640625
17468.0965448973	0.55206298828125
17469.0965448948	0.55145263671875
17470.0965448922	0.5511474609375
17471.0965448897	0.550537109375
17472.0965448872	0.55023193359375
17473.0965448847	0.54962158203125
17474.0965448821	0.54931640625
17475.0965448796	0.5487060546875
17476.0965448771	0.54840087890625
17477.0965448746	0.548095703125
17478.096544872	0.5474853515625
17479.0965448695	0.54718017578125
17480.096544867	0.54656982421875
17481.0965448645	0.5462646484375
17482.0965448619	0.54595947265625
17483.0965448594	0.54534912109375
17484.0965448569	0.5450439453125
17485.0965448544	0.54443359375
17486.0965448519	0.54412841796875
17487.0965448493	0.54351806640625
17488.0965448468	0.543212890625
17489.0965448443	0.5426025390625
17490.0965448418	0.54229736328125
17491.0965448392	0.54168701171875
17492.0965448367	0.5413818359375
17493.0965448342	0.540771484375
17494.0965448317	0.54046630859375
17495.0965448291	0.53985595703125
17496.0965448266	0.53955078125
17497.0965448241	0.53924560546875
17498.0965448216	0.53863525390625
17499.096544819	0.53802490234375
17500.0965448165	0.5377197265625
17501.096544814	0.53741455078125
17502.0965448115	0.53680419921875
17503.0965448089	0.5364990234375
17504.0965448064	0.53619384765625
17505.0965448039	0.53558349609375
17506.0965448014	0.53497314453125
17507.0965447988	0.53466796875
17508.0965447963	0.53436279296875
17509.0965447938	0.53375244140625
17510.0965447913	0.533447265625
17511.0965447887	0.5328369140625
17512.0965447862	0.53253173828125
17513.0965447837	0.5322265625
17514.0965447812	0.5316162109375
17515.0965447786	0.53131103515625
17516.0965447761	0.531005859375
17517.0965447736	0.5303955078125
17518.0965447711	0.53009033203125
17519.0965447685	0.52947998046875
17520.096544766	0.5291748046875
17521.0965447635	0.528564453125
17522.096544761	0.52825927734375
17523.0965447584	0.52764892578125
17524.0965447559	0.52734375
17525.0965447534	0.52703857421875
17526.0965447509	0.52642822265625
17527.0965447483	0.526123046875
17528.0965447458	0.5255126953125
17529.0965447433	0.52520751953125
17530.0965447408	0.52490234375
17531.0965447382	0.5242919921875
17532.0965447357	0.52398681640625
17533.0965447332	0.52337646484375
17534.0965447307	0.5230712890625
17535.0965447281	0.5224609375
17536.0965447256	0.52215576171875
17537.0965447231	0.52154541015625
17538.0965447206	0.521240234375
17539.096544718	0.52093505859375
17540.0965447155	0.52032470703125
17541.096544713	0.52001953125
17542.0965447105	0.5194091796875
17543.0965447079	0.51910400390625
17544.0965447054	0.51849365234375
17545.0965447029	0.5181884765625
17546.0965447004	0.51788330078125
17547.0965446978	0.51727294921875
17548.0965446953	0.5169677734375
17549.0965446928	0.51666259765625
17550.0965446903	0.51605224609375
17551.0965446877	0.5157470703125
17552.0965446852	0.51544189453125
17553.0965446827	0.51483154296875
17554.0965446802	0.5145263671875
17555.0965446776	0.51422119140625
17556.0965446751	0.51361083984375
17557.0965446726	0.5133056640625
17558.0965446701	0.5126953125
17559.0965446675	0.51239013671875
17560.096544665	0.5120849609375
17561.0965446625	0.511474609375
17562.09654466	0.51116943359375
17563.0965446574	0.5108642578125
17564.0965446549	0.51055908203125
17565.0965446524	0.50994873046875
17566.0965446499	0.5096435546875
17567.0965446473	0.509033203125
17568.0965446448	0.50872802734375
17569.0965446423	0.5084228515625
17570.0965446398	0.50811767578125
17571.0965446372	0.50750732421875
17572.0965446347	0.5072021484375
17573.0965446322	0.50689697265625
17574.0965446297	0.50628662109375
17575.0965446271	0.5059814453125
17576.0965446246	0.50567626953125
17577.0965446221	0.50506591796875
17578.0965446196	0.5047607421875
17579.096544617	0.50445556640625
17580.0965446145	0.504150390625
17581.096544612	0.5035400390625
17582.0965446095	0.50323486328125
17583.0965446069	0.50262451171875
17584.0965446044	0.5023193359375
17585.0965446019	0.50201416015625
17586.0965445994	0.50140380859375
17587.0965445969	0.5010986328125
17588.0965445943	0.50048828125
17589.0965445918	0.50018310546875
17590.0965445893	0.4998779296875
17591.0965445868	0.499481201171875
17592.0965445842	0.49908447265625
17593.0965445817	0.498779296875
17594.0965445792	0.49835205078125
17595.0965445767	0.4979248046875
17596.0965445741	0.49749755859375
17597.0965445716	0.497100830078125
17598.0965445691	0.4967041015625
17599.0965445666	0.49627685546875
17600.096544564	0.49591064453125
17601.0965445615	0.49554443359375
17602.096544559	0.495147705078125
17603.0965445565	0.4947509765625
17604.0965445539	0.494354248046875
17605.0965445514	0.493927001953125
17606.0965445489	0.4935302734375
17607.0965445464	0.4931640625
17608.0965445438	0.49273681640625
17609.0965445413	0.492340087890625
17610.0965445388	0.49200439453125
17611.0965445363	0.49163818359375
17612.0965445337	0.491180419921875
17613.0965445312	0.49078369140625
17614.0965445287	0.4903564453125
17615.0965445262	0.489959716796875
17616.0965445236	0.489593505859375
17617.0965445211	0.489227294921875
17618.0965445186	0.48883056640625
17619.0965445161	0.488433837890625
17620.0965445135	0.48797607421875
17621.096544511	0.487640380859375
17622.0965445085	0.487274169921875
17623.096544506	0.486846923828125
17624.0965445034	0.4864501953125
17625.0965445009	0.486114501953125
17626.0965444984	0.485687255859375
17627.0965444959	0.485321044921875
17628.0965444933	0.484954833984375
17629.0965444908	0.4844970703125
17630.0965444883	0.484100341796875
17631.0965444858	0.483734130859375
17632.0965444832	0.483367919921875
17633.0965444807	0.48297119140625
17634.0965444782	0.482635498046875
17635.0965444757	0.482330322265625
17636.0965444731	0.48187255859375
17637.0965444706	0.481536865234375
17638.0965444681	0.48114013671875
17639.0965444656	0.480743408203125
17640.096544463	0.480377197265625
17641.0965444605	0.47991943359375
17642.096544458	0.479522705078125
17643.0965444555	0.47918701171875
17644.0965444529	0.478759765625
17645.0965444504	0.4783935546875
17646.0965444479	0.477996826171875
17647.0965444454	0.47760009765625
17648.0965444428	0.47723388671875
17649.0965444403	0.476837158203125
17650.0965444378	0.476409912109375
17651.0965444353	0.47607421875
17652.0965444327	0.475677490234375
17653.0965444302	0.47528076171875
17654.0965444277	0.474853515625
17655.0965444252	0.474517822265625
17656.0965444226	0.47418212890625
17657.0965444201	0.47381591796875
17658.0965444176	0.47344970703125
17659.0965444151	0.473114013671875
17660.0965444125	0.47271728515625
17661.09654441	0.47235107421875
17662.0965444075	0.472015380859375
17663.096544405	0.471588134765625
17664.0965444024	0.471282958984375
17665.0965443999	0.470855712890625
17666.0965443974	0.47052001953125
17667.0965443949	0.470123291015625
17668.0965443923	0.46966552734375
17669.0965443898	0.46929931640625
17670.0965443873	0.468902587890625
17671.0965443848	0.468597412109375
17672.0965443822	0.46820068359375
17673.0965443797	0.467864990234375
17674.0965443772	0.46746826171875
17675.0965443747	0.467071533203125
17676.0965443721	0.466705322265625
17677.0965443696	0.466339111328125
17678.0965443671	0.46600341796875
17679.0965443646	0.465667724609375
17680.096544362	0.465240478515625
17681.0965443595	0.464874267578125
17682.096544357	0.46453857421875
17683.0965443545	0.46417236328125
17684.0965443519	0.46380615234375
17685.0965443494	0.463470458984375
17686.0965443469	0.463134765625
17687.0965443444	0.462738037109375
17688.0965443418	0.46234130859375
17689.0965443393	0.46197509765625
17690.0965443368	0.46160888671875
17691.0965443343	0.461273193359375
17692.0965443318	0.460906982421875
17693.0965443292	0.4605712890625
17694.0965443267	0.46014404296875
17695.0965443242	0.459808349609375
17696.0965443217	0.45941162109375
17697.0965443191	0.459014892578125
17698.0965443166	0.458587646484375
17699.0965443141	0.45819091796875
17700.0965443116	0.4578857421875
17701.096544309	0.457489013671875
17702.0965443065	0.457122802734375
17703.096544304	0.456787109375
17704.0965443015	0.4564208984375
17705.0965442989	0.456024169921875
17706.0965442964	0.455657958984375
17707.0965442939	0.455352783203125
17708.0965442914	0.454925537109375
17709.0965442888	0.454559326171875
17710.0965442863	0.4542236328125
17711.0965442838	0.453857421875
17712.0965442813	0.453460693359375
17713.0965442787	0.453094482421875
17714.0965442762	0.45269775390625
17715.0965442737	0.45233154296875
17716.0965442712	0.45196533203125
17717.0965442686	0.45159912109375
17718.0965442661	0.451202392578125
17719.0965442636	0.450836181640625
17720.0965442611	0.450469970703125
17721.0965442585	0.450103759765625
17722.096544256	0.449676513671875
17723.0965442535	0.449371337890625
17724.096544251	0.449005126953125
17725.0965442484	0.44866943359375
17726.0965442459	0.448272705078125
17727.0965442434	0.44793701171875
17728.0965442409	0.447418212890625
17729.0965442383	0.447113037109375
17730.0965442358	0.44683837890625
17731.0965442333	0.446441650390625
17732.0965442308	0.446075439453125
17733.0965442282	0.445709228515625
17734.0965442257	0.445404052734375
17735.0965442232	0.445098876953125
17736.0965442207	0.44476318359375
17737.0965442181	0.444366455078125
17738.0965442156	0.444000244140625
17739.0965442131	0.44354248046875
17740.0965442106	0.443206787109375
17741.096544208	0.44281005859375
17742.0965442055	0.4423828125
17743.096544203	0.44207763671875
17744.0965442005	0.44171142578125
17745.0965441979	0.44140625
17746.0965441954	0.44097900390625
17747.0965441929	0.440643310546875
17748.0965441904	0.4403076171875
17749.0965441878	0.439849853515625
17750.0965441853	0.439483642578125
17751.0965441828	0.438995361328125
17752.0965441803	0.4385986328125
17753.0965441777	0.438232421875
17754.0965441752	0.437957763671875
17755.0965441727	0.43756103515625
17756.0965441702	0.4371337890625
17757.0965441676	0.436859130859375
17758.0965441651	0.4365234375
17759.0965441626	0.436187744140625
17760.0965441601	0.435821533203125
17761.0965441575	0.4354248046875
17762.096544155	0.435089111328125
17763.0965441525	0.434722900390625
17764.09654415	0.434356689453125
17765.0965441474	0.4339599609375
17766.0965441449	0.43359375
17767.0965441424	0.43328857421875
17768.0965441399	0.432891845703125
17769.0965441373	0.43255615234375
17770.0965441348	0.432281494140625
17771.0965441323	0.431915283203125
17772.0965441298	0.4315185546875
17773.0965441272	0.43115234375
17774.0965441247	0.430755615234375
17775.0965441222	0.43035888671875
17776.0965441197	0.430023193359375
17777.0965441171	0.42974853515625
17778.0965441146	0.42938232421875
17779.0965441121	0.428985595703125
17780.0965441096	0.428741455078125
17781.096544107	0.428314208984375
17782.0965441045	0.427947998046875
17783.096544102	0.42767333984375
17784.0965440995	0.427276611328125
17785.0965440969	0.426910400390625
17786.0965440944	0.4266357421875
17787.0965440919	0.42626953125
17788.0965440894	0.425872802734375
17789.0965440868	0.425537109375
17790.0965440843	0.4251708984375
17791.0965440818	0.42486572265625
17792.0965440793	0.424591064453125
17793.0965440768	0.424224853515625
17794.0965440742	0.42388916015625
17795.0965440717	0.423553466796875
17796.0965440692	0.42315673828125
17797.0965440667	0.422821044921875
17798.0965440641	0.422454833984375
17799.0965440616	0.422210693359375
17800.0965440591	0.421844482421875
17801.0965440566	0.4215087890625
17802.096544054	0.421051025390625
17803.0965440515	0.420745849609375
17804.096544049	0.420379638671875
17805.0965440465	0.4200439453125
17806.0965440439	0.419708251953125
17807.0965440414	0.419342041015625
17808.0965440389	0.4189453125
17809.0965440364	0.41864013671875
17810.0965440338	0.418243408203125
17811.0965440313	0.41790771484375
17812.0965440288	0.417572021484375
17813.0965440263	0.417205810546875
17814.0965440237	0.416839599609375
17815.0965440212	0.41656494140625
17816.0965440187	0.4161376953125
17817.0965440162	0.415771484375
17818.0965440136	0.41546630859375
17819.0965440111	0.415130615234375
17820.0965440086	0.4149169921875
17821.0965440061	0.414581298828125
17822.0965440035	0.414276123046875
17823.096544001	0.4139404296875
17824.0965439985	0.413604736328125
17825.096543996	0.4132080078125
17826.0965439934	0.41290283203125
17827.0965439909	0.412567138671875
17828.0965439884	0.41204833984375
17829.0965439859	0.41180419921875
17830.0965439833	0.4114990234375
17831.0965439808	0.411163330078125
17832.0965439783	0.4107666015625
17833.0965439758	0.410430908203125
17834.0965439732	0.410186767578125
17835.0965439707	0.4097900390625
17836.0965439682	0.4095458984375
17837.0965439657	0.40924072265625
17838.0965439631	0.408935546875
17839.0965439606	0.408599853515625
17840.0965439581	0.408203125
17841.0965439556	0.407867431640625
17842.096543953	0.407501220703125
17843.0965439505	0.407196044921875
17844.096543948	0.406890869140625
17845.0965439455	0.406494140625
17846.0965439429	0.4061279296875
17847.0965439404	0.40576171875
17848.0965439379	0.405487060546875
17849.0965439354	0.40521240234375
17850.0965439328	0.404876708984375
17851.0965439303	0.404571533203125
17852.0965439278	0.404205322265625
17853.0965439253	0.403839111328125
17854.0965439227	0.40350341796875
17855.0965439202	0.403167724609375
17856.0965439177	0.40283203125
17857.0965439152	0.40252685546875
17858.0965439126	0.40216064453125
17859.0965439101	0.40179443359375
17860.0965439076	0.401458740234375
17861.0965439051	0.401153564453125
17862.0965439025	0.400787353515625
17863.0965439	0.40045166015625
17864.0965438975	0.400054931640625
17865.096543895	0.399749755859375
17866.0965438924	0.3994140625
17867.0965438899	0.39910888671875
17868.0965438874	0.398773193359375
17869.0965438849	0.398406982421875
17870.0965438823	0.398162841796875
17871.0965438798	0.397796630859375
17872.0965438773	0.3974609375
17873.0965438748	0.397125244140625
17874.0965438722	0.39678955078125
17875.0965438697	0.396484375
17876.0965438672	0.3961181640625
17877.0965438647	0.395782470703125
17878.0965438621	0.395477294921875
17879.0965438596	0.395111083984375
17880.0965438571	0.394744873046875
17881.0965438546	0.394439697265625
17882.096543852	0.394012451171875
17883.0965438495	0.39361572265625
17884.096543847	0.39324951171875
17885.0965438445	0.392852783203125
17886.0965438419	0.392608642578125
17887.0965438394	0.392242431640625
17888.0965438369	0.39190673828125
17889.0965438344	0.391510009765625
17890.0965438318	0.391143798828125
17891.0965438293	0.3907470703125
17892.0965438268	0.3905029296875
17893.0965438243	0.390228271484375
17894.0965438217	0.389862060546875
17895.0965438192	0.389495849609375
17896.0965438167	0.3892822265625
17897.0965438142	0.388916015625
17898.0965438117	0.388580322265625
17899.0965438091	0.38818359375
17900.0965438066	0.38787841796875
17901.0965438041	0.387420654296875
17902.0965438016	0.387115478515625
17903.096543799	0.386688232421875
17904.0965437965	0.38629150390625
17905.096543794	0.386016845703125
17906.0965437915	0.38568115234375
17907.0965437889	0.3853759765625
17908.0965437864	0.384918212890625
17909.0965437839	0.384552001953125
17910.0965437814	0.384246826171875
17911.0965437788	0.38385009765625
17912.0965437763	0.383575439453125
17913.0965437738	0.38323974609375
17914.0965437713	0.382965087890625
17915.0965437687	0.382568359375
17916.0965437662	0.38226318359375
17917.0965437637	0.381866455078125
17918.0965437612	0.38153076171875
17919.0965437586	0.381256103515625
17920.0965437561	0.380859375
17921.0965437536	0.3804931640625
17922.0965437511	0.380157470703125
17923.0965437485	0.37982177734375
17924.096543746	0.3795166015625
17925.0965437435	0.379119873046875
17926.096543741	0.378753662109375
17927.0965437384	0.37841796875
17928.0965437359	0.378082275390625
17929.0965437334	0.377716064453125
17930.0965437309	0.377410888671875
17931.0965437283	0.37701416015625
17932.0965437258	0.376739501953125
17933.0965437233	0.376434326171875
17934.0965437208	0.37603759765625
17935.0965437182	0.375732421875
17936.0965437157	0.37530517578125
17937.0965437132	0.375
17938.0965437107	0.374603271484375
17939.0965437081	0.374237060546875
17940.0965437056	0.373931884765625
17941.0965437031	0.37347412109375
17942.0965437006	0.373138427734375
17943.096543698	0.372711181640625
17944.0965436955	0.372344970703125
17945.096543693	0.371978759765625
17946.0965436905	0.371673583984375
17947.0965436879	0.371337890625
17948.0965436854	0.371002197265625
17949.0965436829	0.37060546875
17950.0965436804	0.3702392578125
17951.0965436778	0.36993408203125
17952.0965436753	0.369598388671875
17953.0965436728	0.3692626953125
17954.0965436703	0.368865966796875
17955.0965436677	0.36859130859375
17956.0965436652	0.368316650390625
17957.0965436627	0.36798095703125
17958.0965436602	0.367645263671875
17959.0965436576	0.36737060546875
17960.0965436551	0.367034912109375
17961.0965436526	0.366729736328125
17962.0965436501	0.3663330078125
17963.0965436475	0.36602783203125
17964.096543645	0.365753173828125
17965.0965436425	0.3653564453125
17966.09654364	0.3651123046875
17967.0965436374	0.36474609375
17968.0965436349	0.3643798828125
17969.0965436324	0.364105224609375
17970.0965436299	0.36383056640625
17971.0965436273	0.363494873046875
17972.0965436248	0.363128662109375
17973.0965436223	0.362884521484375
17974.0965436198	0.36260986328125
17975.0965436172	0.362213134765625
17976.0965436147	0.3619384765625
17977.0965436122	0.36151123046875
17978.0965436097	0.3612060546875
17979.0965436071	0.360870361328125
17980.0965436046	0.36053466796875
17981.0965436021	0.36029052734375
17982.0965435996	0.35986328125
17983.096543597	0.359405517578125
17984.0965435945	0.35931396484375
17985.096543592	0.3590087890625
17986.0965435895	0.358673095703125
17987.0965435869	0.3583984375
17988.0965435844	0.35809326171875
17989.0965435819	0.357757568359375
17990.0965435794	0.357421875
17991.0965435768	0.357147216796875
17992.0965435743	0.35675048828125
17993.0965435718	0.3564453125
17994.0965435693	0.356109619140625
17995.0965435667	0.355743408203125
17996.0965435642	0.355377197265625
17997.0965435617	0.355010986328125
17998.0965435592	0.35467529296875
17999.0965435567	0.354339599609375
18000.0965435541	0.354095458984375
18001.0965435516	0.353729248046875
18002.0965435491	0.35333251953125
18003.0965435466	0.35296630859375
18004.096543544	0.3526611328125
18005.0965435415	0.352294921875
18006.096543539	0.351959228515625
18007.0965435365	0.351654052734375
18008.0965435339	0.351287841796875
18009.0965435314	0.350921630859375
18010.0965435289	0.3505859375
18011.0965435264	0.35028076171875
18012.0965435238	0.349945068359375
18013.0965435213	0.349578857421875
18014.0965435188	0.34930419921875
18015.0965435163	0.34906005859375
18016.0965435137	0.348785400390625
18017.0965435112	0.3485107421875
18018.0965435087	0.348114013671875
18019.0965435062	0.3477783203125
18020.0965435036	0.347320556640625
18021.0965435011	0.34698486328125
18022.0965434986	0.346710205078125
18023.0965434961	0.34637451171875
18024.0965434935	0.346038818359375
18025.096543491	0.34564208984375
18026.0965434885	0.345306396484375
18027.096543486	0.34503173828125
18028.0965434834	0.344696044921875
18029.0965434809	0.344482421875
18030.0965434784	0.344085693359375
18031.0965434759	0.343780517578125
18032.0965434733	0.343475341796875
18033.0965434708	0.343109130859375
18034.0965434683	0.34283447265625
18035.0965434658	0.342498779296875
18036.0965434632	0.342132568359375
18037.0965434607	0.341796875
18038.0965434582	0.341461181640625
18039.0965434557	0.341064453125
18040.0965434531	0.34075927734375
18041.0965434506	0.340423583984375
18042.0965434481	0.340087890625
18043.0965434456	0.33984375
18044.096543443	0.339508056640625
18045.0965434405	0.339202880859375
18046.096543438	0.338897705078125
18047.0965434355	0.338470458984375
18048.0965434329	0.338226318359375
18049.0965434304	0.3377685546875
18050.0965434279	0.33734130859375
18051.0965434254	0.337066650390625
18052.0965434228	0.336700439453125
18053.0965434203	0.33636474609375
18054.0965434178	0.33612060546875
18055.0965434153	0.335723876953125
18056.0965434127	0.335357666015625
18057.0965434102	0.334930419921875
18058.0965434077	0.334625244140625
18059.0965434052	0.334320068359375
18060.0965434026	0.33392333984375
18061.0965434001	0.33355712890625
18062.0965433976	0.33319091796875
18063.0965433951	0.3330078125
18064.0965433925	0.3326416015625
18065.09654339	0.332275390625
18066.0965433875	0.331817626953125
18067.096543385	0.331512451171875
18068.0965433824	0.331024169921875
18069.0965433799	0.330657958984375
18070.0965433774	0.330291748046875
18071.0965433749	0.3299560546875
18072.0965433723	0.32965087890625
18073.0965433698	0.32940673828125
18074.0965433673	0.329010009765625
18075.0965433648	0.328643798828125
18076.0965433622	0.328277587890625
18077.0965433597	0.328094482421875
18078.0965433572	0.32769775390625
18079.0965433547	0.327301025390625
18080.0965433521	0.32708740234375
18081.0965433496	0.326629638671875
18082.0965433471	0.326263427734375
18083.0965433446	0.325927734375
18084.096543342	0.325653076171875
18085.0965433395	0.325286865234375
18086.096543337	0.3248291015625
18087.0965433345	0.324554443359375
18088.0965433319	0.324066162109375
18089.0965433294	0.32373046875
18090.0965433269	0.323486328125
18091.0965433244	0.32318115234375
18092.0965433218	0.322845458984375
18093.0965433193	0.322509765625
18094.0965433168	0.32220458984375
18095.0965433143	0.3218994140625
18096.0965433117	0.32159423828125
18097.0965433092	0.3211669921875
18098.0965433067	0.32080078125
18099.0965433042	0.32049560546875
18100.0965433016	0.3201904296875
18101.0965432991	0.319732666015625
18102.0965432966	0.31939697265625
18103.0965432941	0.31903076171875
18104.0965432916	0.3187255859375
18105.096543289	0.31842041015625
18106.0965432865	0.318084716796875
18107.096543284	0.3177490234375
18108.0965432815	0.3173828125
18109.0965432789	0.317047119140625
18110.0965432764	0.316650390625
18111.0965432739	0.316314697265625
18112.0965432714	0.316009521484375
18113.0965432688	0.315643310546875
18114.0965432663	0.31524658203125
18115.0965432638	0.3148193359375
18116.0965432613	0.314239501953125
18117.0965432587	0.314208984375
18118.0965432562	0.313934326171875
18119.0965432537	0.3135986328125
18120.0965432512	0.313232421875
18121.0965432486	0.312896728515625
18122.0965432461	0.31256103515625
18123.0965432436	0.312255859375
18124.0965432411	0.31182861328125
18125.0965432385	0.31158447265625
18126.096543236	0.311187744140625
18127.0965432335	0.31085205078125
18128.096543231	0.310516357421875
18129.0965432284	0.310150146484375
18130.0965432259	0.309844970703125
18131.0965432234	0.309478759765625
18132.0965432209	0.30908203125
18133.0965432183	0.30877685546875
18134.0965432158	0.308441162109375
18135.0965432133	0.30816650390625
18136.0965432108	0.3077392578125
18137.0965432082	0.30731201171875
18138.0965432057	0.307037353515625
18139.0965432032	0.306732177734375
18140.0965432007	0.30633544921875
18141.0965431981	0.30596923828125
18142.0965431956	0.305694580078125
18143.0965431931	0.305267333984375
18144.0965431906	0.304931640625
18145.096543188	0.304595947265625
18146.0965431855	0.30419921875
18147.096543183	0.3038330078125
18148.0965431805	0.303466796875
18149.0965431779	0.3031005859375
18150.0965431754	0.302764892578125
18151.0965431729	0.30242919921875
18152.0965431704	0.302093505859375
18153.0965431678	0.301727294921875
18154.0965431653	0.301361083984375
18155.0965431628	0.301055908203125
18156.0965431603	0.30072021484375
18157.0965431577	0.30035400390625
18158.0965431552	0.29998779296875
18159.0965431527	0.299713134765625
18160.0965431502	0.29931640625
18161.0965431476	0.298980712890625
18162.0965431451	0.298614501953125
18163.0965431426	0.29827880859375
18164.0965431401	0.29791259765625
18165.0965431375	0.297607421875
18166.096543135	0.29705810546875
18167.0965431325	0.296844482421875
18168.09654313	0.2965087890625
18169.0965431274	0.296051025390625
18170.0965431249	0.295745849609375
18171.0965431224	0.295440673828125
18172.0965431199	0.29510498046875
18173.0965431173	0.2947998046875
18174.0965431148	0.29443359375
18175.0965431123	0.293975830078125
18176.0965431098	0.293792724609375
18177.0965431072	0.29351806640625
18178.0965431047	0.29315185546875
18179.0965431022	0.29278564453125
18180.0965430997	0.292449951171875
18181.0965430971	0.292083740234375
18182.0965430946	0.291717529296875
18183.0965430921	0.29144287109375
18184.0965430896	0.291107177734375
18185.096543087	0.290771484375
18186.0965430845	0.290435791015625
18187.096543082	0.29010009765625
18188.0965430795	0.28973388671875
18189.0965430769	0.289398193359375
18190.0965430744	0.28900146484375
18191.0965430719	0.28863525390625
18192.0965430694	0.288299560546875
18193.0965430668	0.287994384765625
18194.0965430643	0.28765869140625
18195.0965430618	0.287322998046875
18196.0965430593	0.28704833984375
18197.0965430567	0.286651611328125
18198.0965430542	0.286285400390625
18199.0965430517	0.28594970703125
18200.0965430492	0.285614013671875
18201.0965430466	0.2852783203125
18202.0965430441	0.284942626953125
18203.0965430416	0.2845458984375
18204.0965430391	0.2841796875
18205.0965430366	0.283843994140625
18206.096543034	0.283538818359375
18207.0965430315	0.283203125
18208.096543029	0.28289794921875
18209.0965430265	0.2825927734375
18210.0965430239	0.2822265625
18211.0965430214	0.28179931640625
18212.0965430189	0.281463623046875
18213.0965430164	0.28118896484375
18214.0965430138	0.28082275390625
18215.0965430113	0.280517578125
18216.0965430088	0.2801513671875
18217.0965430063	0.279815673828125
18218.0965430037	0.27947998046875
18219.0965430012	0.279083251953125
18220.0965429987	0.278778076171875
18221.0965429962	0.278472900390625
18222.0965429936	0.27813720703125
18223.0965429911	0.277801513671875
18224.0965429886	0.277435302734375
18225.0965429861	0.27703857421875
18226.0965429835	0.27630615234375
18227.096542981	0.2763671875
18228.0965429785	0.276031494140625
18229.096542976	0.27569580078125
18230.0965429734	0.27532958984375
18231.0965429709	0.274993896484375
18232.0965429684	0.274627685546875
18233.0965429659	0.2742919921875
18234.0965429633	0.273712158203125
18235.0965429608	0.273529052734375
18236.0965429583	0.27325439453125
18237.0965429558	0.27288818359375
18238.0965429532	0.27252197265625
18239.0965429507	0.272125244140625
18240.0965429482	0.271759033203125
18241.0965429457	0.27142333984375
18242.0965429431	0.27105712890625
18243.0965429406	0.27069091796875
18244.0965429381	0.270355224609375
18245.0965429356	0.269989013671875
18246.096542933	0.269622802734375
18247.0965429305	0.269256591796875
18248.096542928	0.2689208984375
18249.0965429255	0.26849365234375
18250.0965429229	0.268157958984375
18251.0965429204	0.267791748046875
18252.0965429179	0.26739501953125
18253.0965429154	0.267059326171875
18254.0965429128	0.266693115234375
18255.0965429103	0.266357421875
18256.0965429078	0.266021728515625
18257.0965429053	0.26568603515625
18258.0965429027	0.265289306640625
18259.0965429002	0.264984130859375
18260.0965428977	0.26458740234375
18261.0965428952	0.26422119140625
18262.0965428926	0.263885498046875
18263.0965428901	0.263519287109375
18264.0965428876	0.263153076171875
18265.0965428851	0.262847900390625
18266.0965428825	0.262420654296875
18267.09654288	0.262054443359375
18268.0965428775	0.26171875
18269.096542875	0.261383056640625
18270.0965428724	0.261016845703125
18271.0965428699	0.260650634765625
18272.0965428674	0.26031494140625
18273.0965428649	0.260009765625
18274.0965428623	0.2596435546875
18275.0965428598	0.259307861328125
18276.0965428573	0.25897216796875
18277.0965428548	0.25860595703125
18278.0965428522	0.25823974609375
18279.0965428497	0.2578125
18280.0965428472	0.25732421875
18281.0965428447	0.257049560546875
18282.0965428421	0.2567138671875
18283.0965428396	0.256439208984375
18284.0965428371	0.256072998046875
18285.0965428346	0.255645751953125
18286.096542832	0.25531005859375
18287.0965428295	0.254852294921875
18288.096542827	0.25445556640625
18289.0965428245	0.254180908203125
18290.0965428219	0.253814697265625
18291.0965428194	0.253448486328125
18292.0965428169	0.2529296875
18293.0965428144	0.252655029296875
18294.0965428118	0.252288818359375
18295.0965428093	0.251922607421875
18296.0965428068	0.2515869140625
18297.0965428043	0.25115966796875
18298.0965428017	0.250823974609375
18299.0965427992	0.250396728515625
18300.0965427967	0.25
18301.0965427942	0.249725341796875
18302.0965427916	0.2493896484375
18303.0965427891	0.24896240234375
18304.0965427866	0.24859619140625
18305.0965427841	0.248199462890625
18306.0965427815	0.247650146484375
18307.096542779	0.24749755859375
18308.0965427765	0.24713134765625
18309.096542774	0.2467041015625
18310.0965427715	0.24627685546875
18311.0965427689	0.24591064453125
18312.0965427664	0.2454833984375
18313.0965427639	0.245025634765625
18314.0965427614	0.24468994140625
18315.0965427588	0.24432373046875
18316.0965427563	0.243927001953125
18317.0965427538	0.243560791015625
18318.0965427513	0.243255615234375
18319.0965427487	0.24285888671875
18320.0965427462	0.242462158203125
18321.0965427437	0.242095947265625
18322.0965427412	0.24163818359375
18323.0965427386	0.240753173828125
18324.0965427361	0.24090576171875
18325.0965427336	0.240570068359375
18326.0965427311	0.24017333984375
18327.0965427285	0.23980712890625
18328.096542726	0.239501953125
18329.0965427235	0.23907470703125
18330.096542721	0.2386474609375
18331.0965427184	0.23828125
18332.0965427159	0.23785400390625
18333.0965427134	0.23748779296875
18334.0965427109	0.23712158203125
18335.0965427083	0.23663330078125
18336.0965427058	0.236297607421875
18337.0965427033	0.235870361328125
18338.0965427008	0.235443115234375
18339.0965426982	0.23504638671875
18340.0965426957	0.234619140625
18341.0965426932	0.234283447265625
18342.0965426907	0.233795166015625
18343.0965426881	0.2333984375
18344.0965426856	0.233001708984375
18345.0965426831	0.232574462890625
18346.0965426806	0.232147216796875
18347.096542678	0.231781005859375
18348.0965426755	0.231353759765625
18349.096542673	0.230926513671875
18350.0965426705	0.23052978515625
18351.0965426679	0.230133056640625
18352.0965426654	0.229705810546875
18353.0965426629	0.229278564453125
18354.0965426604	0.228912353515625
18355.0965426578	0.22845458984375
18356.0965426553	0.228057861328125
18357.0965426528	0.22760009765625
18358.0965426503	0.227203369140625
18359.0965426477	0.2269287109375
18360.0965426452	0.22637939453125
18361.0965426427	0.225860595703125
18362.0965426402	0.225372314453125
18363.0965426376	0.224884033203125
18364.0965426351	0.224334716796875
18365.0965426326	0.223846435546875
18366.0965426301	0.223419189453125
18367.0965426275	0.22283935546875
18368.096542625	0.22235107421875
18369.0965426225	0.2218017578125
18370.09654262	0.22125244140625
18371.0965426174	0.220672607421875
18372.0965426149	0.220001220703125
18373.0965426124	0.21942138671875
18374.0965426099	0.21905517578125
18375.0965426073	0.218292236328125
18376.0965426048	0.21783447265625
18377.0965426023	0.21722412109375
18378.0965425998	0.21673583984375
18379.0965425972	0.21588134765625
18380.0965425947	0.215179443359375
18381.0965425922	0.214630126953125
18382.0965425897	0.21417236328125
18383.0965425871	0.213409423828125
18384.0965425846	0.212921142578125
18385.0965425821	0.21209716796875
18386.0965425796	0.211151123046875
18387.096542577	0.210845947265625
18388.0965425745	0.21051025390625
18389.096542572	0.2099609375
18390.0965425695	0.20941162109375
18391.0965425669	0.208953857421875
18392.0965425644	0.207916259765625
18393.0965425619	0.207794189453125
18394.0965425594	0.207244873046875
18395.0965425568	0.206787109375
18396.0965425543	0.205902099609375
18397.0965425518	0.20574951171875
18398.0965425493	0.2052001953125
18399.0965425467	0.20440673828125
18400.0965425442	0.204376220703125
18401.0965425417	0.203826904296875
18402.0965425392	0.203155517578125
18403.0965425366	0.2030029296875
18404.0965425341	0.202484130859375
18405.0965425316	0.20196533203125
18406.0965425291	0.201751708984375
18407.0965425265	0.201263427734375
18408.096542524	0.200714111328125
18409.0965425215	0.200439453125
18410.096542519	0.199981689453125
18411.0965425165	0.199615478515625
18412.0965425139	0.1990966796875
18413.0965425114	0.198638916015625
18414.0965425089	0.198486328125
18415.0965425064	0.197967529296875
18416.0965425038	0.197479248046875
18417.0965425013	0.1971435546875
18418.0965424988	0.196685791015625
18419.0965424963	0.195587158203125
18420.0965424937	0.195953369140625
18421.0965424912	0.194976806640625
18422.0965424887	0.195068359375
18423.0965424862	0.1944580078125
18424.0965424836	0.19415283203125
18425.0965424811	0.193695068359375
18426.0965424786	0.193328857421875
18427.0965424761	0.192962646484375
18428.0965424735	0.192657470703125
18429.096542471	0.1923828125
18430.0965424685	0.191864013671875
18431.096542466	0.191497802734375
18432.0965424634	0.191131591796875
18433.0965424609	0.19061279296875
18434.0965424584	0.19036865234375
18435.0965424559	0.1898193359375
18436.0965424533	0.189453125
18437.0965424508	0.188934326171875
18438.0965424483	0.188446044921875
18439.0965424458	0.1881103515625
18440.0965424432	0.187713623046875
18441.0965424407	0.187255859375
18442.0965424382	0.18682861328125
18443.0965424357	0.1864013671875
18444.0965424331	0.18603515625
18445.0965424306	0.185546875
18446.0965424281	0.1849365234375
18447.0965424256	0.18463134765625
18448.096542423	0.18414306640625
18449.0965424205	0.1837158203125
18450.096542418	0.183349609375
18451.0965424155	0.182830810546875
18452.0965424129	0.1826171875
18453.0965424104	0.18212890625
18454.0965424079	0.181640625
18455.0965424054	0.181182861328125
18456.0965424028	0.180908203125
18457.0965424003	0.180389404296875
18458.0965423978	0.18011474609375
18459.0965423953	0.179656982421875
18460.0965423927	0.17913818359375
18461.0965423902	0.178802490234375
18462.0965423877	0.178466796875
18463.0965423852	0.178131103515625
18464.0965423826	0.177490234375
18465.0965423801	0.177276611328125
18466.0965423776	0.1768798828125
18467.0965423751	0.17596435546875
18468.0965423725	0.17596435546875
18469.09654237	0.17462158203125
18470.0965423675	0.175079345703125
18471.096542365	0.17449951171875
18472.0965423624	0.17425537109375
18473.0965423599	0.1739501953125
18474.0965423574	0.173309326171875
18475.0965423549	0.172698974609375
18476.0965423523	0.172393798828125
18477.0965423498	0.172210693359375
18478.0965423473	0.17181396484375
18479.0965423448	0.171295166015625
18480.0965423422	0.170654296875
18481.0965423397	0.170440673828125
18482.0965423372	0.16998291015625
18483.0965423347	0.16943359375
18484.0965423321	0.16876220703125
18485.0965423296	0.1683349609375
18486.0965423271	0.1680908203125
18487.0965423246	0.16766357421875
18488.096542322	0.16748046875
18489.0965423195	0.166961669921875
18490.096542317	0.166748046875
18491.0965423145	0.166290283203125
18492.0965423119	0.16583251953125
18493.0965423094	0.165771484375
18494.0965423069	0.1651611328125
18495.0965423044	0.16473388671875
18496.0965423018	0.164520263671875
18497.0965422993	0.16400146484375
18498.0965422968	0.163665771484375
18499.0965422943	0.163421630859375
18500.0965422917	0.1629638671875
18501.0965422892	0.162628173828125
18502.0965422867	0.162353515625
18503.0965422842	0.161895751953125
18504.0965422816	0.161468505859375
18505.0965422791	0.16094970703125
18506.0965422766	0.160675048828125
18507.0965422741	0.160247802734375
18508.0965422715	0.1595458984375
18509.096542269	0.1591796875
18510.0965422665	0.15869140625
18511.096542264	0.1580810546875
18512.0965422614	0.1575927734375
18513.0965422589	0.15716552734375
18514.0965422564	0.15667724609375
18515.0965422539	0.156280517578125
18516.0965422514	0.1558837890625
18517.0965422488	0.1552734375
18518.0965422463	0.15478515625
18519.0965422438	0.154449462890625
18520.0965422413	0.154510498046875
18521.0965422387	0.153839111328125
18522.0965422362	0.15338134765625
18523.0965422337	0.153106689453125
18524.0965422312	0.15264892578125
18525.0965422286	0.152130126953125
18526.0965422261	0.1512451171875
18527.0965422236	0.15069580078125
18528.0965422211	0.150115966796875
18529.0965422185	0.15008544921875
18530.096542216	0.1497802734375
18531.0965422135	0.1492919921875
18532.096542211	0.148773193359375
18533.0965422084	0.148284912109375
18534.0965422059	0.147979736328125
18535.0965422034	0.147613525390625
18536.0965422009	0.147491455078125
18537.0965421983	0.14727783203125
18538.0965421958	0.1466064453125
18539.0965421933	0.146392822265625
18540.0965421908	0.145843505859375
18541.0965421882	0.145477294921875
18542.0965421857	0.144866943359375
18543.0965421832	0.14459228515625
18544.0965421807	0.144073486328125
18545.0965421781	0.143585205078125
18546.0965421756	0.1431884765625
18547.0965421731	0.142730712890625
18548.0965421706	0.142120361328125
18549.096542168	0.14154052734375
18550.0965421655	0.14111328125
18551.096542163	0.140594482421875
18552.0965421605	0.140045166015625
18553.0965421579	0.1397705078125
18554.0965421554	0.139312744140625
18555.0965421529	0.138824462890625
18556.0965421504	0.138336181640625
18557.0965421478	0.137847900390625
18558.0965421453	0.1368408203125
18559.0965421428	0.136444091796875
18560.0965421403	0.136505126953125
18561.0965421377	0.136566162109375
18562.0965421352	0.13616943359375
18563.0965421327	0.1357421875
18564.0965421302	0.135284423828125
18565.0965421276	0.137451171875
18566.0965421251	0.13720703125
18567.0965421226	0.137054443359375
18568.0965421201	0.13653564453125
18569.0965421175	0.136260986328125
18570.096542115	0.135833740234375
18571.0965421125	0.1353759765625
18572.09654211	0.135101318359375
18573.0965421074	0.13458251953125
18574.0965421049	0.134033203125
18575.0965421024	0.1336669921875
18576.0965420999	0.133514404296875
18577.0965420973	0.133148193359375
18578.0965420948	0.132598876953125
18579.0965420923	0.132293701171875
18580.0965420898	0.13189697265625
18581.0965420872	0.1314697265625
18582.0965420847	0.131072998046875
18583.0965420822	0.13128662109375
18584.0965420797	0.1309814453125
18585.0965420771	0.131072998046875
18586.0965420746	0.13079833984375
18587.0965420721	0.130401611328125
18588.0965420696	0.1298828125
18589.096542067	0.12945556640625
18590.0965420645	0.12908935546875
18591.096542062	0.128631591796875
18592.0965420595	0.12823486328125
18593.0965420569	0.1278076171875
18594.0965420544	0.127197265625
18595.0965420519	0.12738037109375
18596.0965420494	0.127044677734375
18597.0965420468	0.126556396484375
18598.0965420443	0.126434326171875
18599.0965420418	0.1259765625
18600.0965420393	0.12542724609375
18601.0965420367	0.125
18602.0965420342	0.12420654296875
18603.0965420317	0.12408447265625
18604.0965420292	0.123809814453125
18605.0965420266	0.123504638671875
18606.0965420241	0.12298583984375
18607.0965420216	0.12261962890625
18608.0965420191	0.122161865234375
18609.0965420165	0.121612548828125
18610.096542014	0.121185302734375
18611.0965420115	0.120697021484375
18612.096542009	0.120361328125
18613.0965420064	0.119842529296875
18614.0965420039	0.119232177734375
18615.0965420014	0.119110107421875
18616.0965419989	0.11932373046875
18617.0965419964	0.1190185546875
18618.0965419938	0.118865966796875
18619.0965419913	0.118560791015625
18620.0965419888	0.118072509765625
18621.0965419863	0.11761474609375
18622.0965419837	0.117156982421875
18623.0965419812	0.11669921875
18624.0965419787	0.116302490234375
18625.0965419762	0.1171875
18626.0965419736	0.11785888671875
18627.0965419711	0.117645263671875
18628.0965419686	0.117279052734375
18629.0965419661	0.11688232421875
18630.0965419635	0.11651611328125
18631.096541961	0.1160888671875
18632.0965419585	0.115692138671875
18633.096541956	0.11541748046875
18634.0965419534	0.114959716796875
18635.0965419509	0.11456298828125
18636.0965419484	0.1142578125
18637.0965419459	0.113922119140625
18638.0965419433	0.113494873046875
18639.0965419408	0.1131591796875
18640.0965419383	0.112762451171875
18641.0965419358	0.112518310546875
18642.0965419332	0.1121826171875
18643.0965419307	0.111663818359375
18644.0965419282	0.111358642578125
18645.0965419257	0.111175537109375
18646.0965419231	0.110748291015625
18647.0965419206	0.110260009765625
18648.0965419181	0.1097412109375
18649.0965419156	0.10919189453125
18650.096541913	0.10882568359375
18651.0965419105	0.1083984375
18652.096541908	0.10784912109375
18653.0965419055	0.107513427734375
18654.0965419029	0.107086181640625
18655.0965419004	0.1065673828125
18656.0965418979	0.10601806640625
18657.0965418954	0.10552978515625
18658.0965418928	0.1053466796875
18659.0965418903	0.105010986328125
18660.0965418878	0.1046142578125
18661.0965418853	0.104248046875
18662.0965418827	0.104705810546875
18663.0965418802	0.10443115234375
18664.0965418777	0.104888916015625
18665.0965418752	0.1046142578125
18666.0965418726	0.104217529296875
18667.0965418701	0.103759765625
18668.0965418676	0.10345458984375
18669.0965418651	0.102996826171875
18670.0965418625	0.10260009765625
18671.09654186	0.102081298828125
18672.0965418575	0.10162353515625
18673.096541855	0.101043701171875
18674.0965418524	0.10052490234375
18675.0965418499	0.10009765625
18676.0965418474	0.0994873046875
18677.0965418449	0.0989990234375
18678.0965418423	0.0985107421875
18679.0965418398	0.097991943359375
18680.0965418373	0.09735107421875
18681.0965418348	0.09686279296875
18682.0965418322	0.09637451171875
18683.0965418297	0.09588623046875
18684.0965418272	0.095367431640625
18685.0965418247	0.09490966796875
18686.0965418221	0.094390869140625
18687.0965418196	0.094451904296875
18688.0965418171	0.094207763671875
18689.0965418146	0.093780517578125
18690.096541812	0.09332275390625
18691.0965418095	0.09283447265625
18692.096541807	0.092254638671875
18693.0965418045	0.09307861328125
18694.0965418019	0.09259033203125
18695.0965417994	0.09222412109375
18696.0965417969	0.091888427734375
18697.0965417944	0.091400146484375
18698.0965417918	0.090911865234375
18699.0965417893	0.09027099609375
18700.0965417868	0.089813232421875
18701.0965417843	0.08935546875
18702.0965417817	0.0888671875
18703.0965417792	0.08905029296875
18704.0965417767	0.0889892578125
18705.0965417742	0.088775634765625
18706.0965417716	0.088409423828125
18707.0965417691	0.08795166015625
18708.0965417666	0.087493896484375
18709.0965417641	0.087066650390625
18710.0965417615	0.086578369140625
18711.096541759	0.086181640625
18712.0965417565	0.08563232421875
18713.096541754	0.085296630859375
18714.0965417514	0.084747314453125
18715.0965417489	0.084320068359375
18716.0965417464	0.083892822265625
18717.0965417439	0.0833740234375
18718.0965417413	0.082977294921875
18719.0965417388	0.082427978515625
18720.0965417363	0.08209228515625
18721.0965417338	0.081695556640625
18722.0965417313	0.081298828125
18723.0965417287	0.080718994140625
18724.0965417262	0.0804443359375
18725.0965417237	0.079986572265625
18726.0965417212	0.0794677734375
18727.0965417186	0.078887939453125
18728.0965417161	0.0784912109375
18729.0965417136	0.078033447265625
18730.0965417111	0.07745361328125
18731.0965417085	0.07684326171875
18732.096541706	0.076416015625
18733.0965417035	0.07586669921875
18734.096541701	0.075286865234375
18735.0965416984	0.0748291015625
18736.0965416959	0.074371337890625
18737.0965416934	0.074127197265625
18738.0965416909	0.073760986328125
18739.0965416883	0.0733642578125
18740.0965416858	0.07281494140625
18741.0965416833	0.072357177734375
18742.0965416808	0.0718994140625
18743.0965416782	0.071563720703125
18744.0965416757	0.07196044921875
18745.0965416732	0.071502685546875
18746.0965416707	0.07080078125
18747.0965416681	0.0703125
18748.0965416656	0.069915771484375
18749.0965416631	0.069610595703125
18750.0965416606	0.069091796875
18751.096541658	0.068603515625
18752.0965416555	0.068145751953125
18753.096541653	0.067535400390625
18754.0965416505	0.0670166015625
18755.0965416479	0.066650390625
18756.0965416454	0.066162109375
18757.0965416429	0.06585693359375
18758.0965416404	0.06549072265625
18759.0965416378	0.064971923828125
18760.0965416353	0.0645751953125
18761.0965416328	0.06396484375
18762.0965416303	0.063690185546875
18763.0965416277	0.06341552734375
18764.0965416252	0.06292724609375
18765.0965416227	0.062469482421875
18766.0965416202	0.062103271484375
18767.0965416176	0.061737060546875
18768.0965416151	0.061187744140625
18769.0965416126	0.06060791015625
18770.0965416101	0.05999755859375
18771.0965416075	0.05963134765625
18772.096541605	0.059112548828125
18773.0965416025	0.058563232421875
18774.0965416	0.057891845703125
18775.0965415974	0.0572509765625
18776.0965415949	0.05670166015625
18777.0965415924	0.05609130859375
18778.0965415899	0.055633544921875
18779.0965415873	0.055267333984375
18780.0965415848	0.05462646484375
18781.0965415823	0.054229736328125
18782.0965415798	0.0535888671875
18783.0965415772	0.05316162109375
18784.0965415747	0.05255126953125
18785.0965415722	0.051788330078125
18786.0965415697	0.051177978515625
18787.0965415671	0.050750732421875
18788.0965415646	0.05023193359375
18789.0965415621	0.0498016357421875
18790.0965415596	0.0494049072265625
18791.096541557	0.0488616943359375
18792.0965415545	0.0482391357421875
18793.096541552	0.0475341796875
18794.0965415495	0.0468780517578125
18795.0965415469	0.046124267578125
18796.0965415444	0.045684814453125
18797.0965415419	0.04501953125
18798.0965415394	0.04478759765625
18799.0965415368	0.044293212890625
18800.0965415343	0.043646240234375
18801.0965415318	0.0430023193359375
18802.0965415293	0.0426788330078125
18803.0965415267	0.0422943115234375
18804.0965415242	0.0416412353515625
18805.0965415217	0.0407012939453125
18806.0965415192	0.04332275390625
18807.0965415166	0.044244384765625
18808.0965415141	0.0437408447265625
18809.0965415116	0.04288330078125
18810.0965415091	0.0421417236328125
18811.0965415065	0.0416168212890625
18812.096541504	0.0408447265625
18813.0965415015	0.0404266357421875
18814.096541499	0.0398681640625
18815.0965414964	0.0392242431640625
18816.0965414939	0.038555908203125
18817.0965414914	0.038018798828125
18818.0965414889	0.0375457763671875
18819.0965414863	0.037030029296875
18820.0965414838	0.036395263671875
18821.0965414813	0.0357696533203125
18822.0965414788	0.035076904296875
18823.0965414763	0.0345428466796875
18824.0965414737	0.034014892578125
18825.0965414712	0.033245849609375
18826.0965414687	0.032550048828125
18827.0965414662	0.0318084716796875
18828.0965414636	0.03077392578125
18829.0965414611	0.0302093505859375
18830.0965414586	0.0305023193359375
18831.0965414561	0.030059814453125
18832.0965414535	0.029351806640625
18833.096541451	0.0288116455078125
18834.0965414485	0.0280029296875
18835.096541446	0.027178955078125
18836.0965414434	0.026593017578125
18837.0965414409	0.025787353515625
18838.0965414384	0.0250213623046875
18839.0965414359	0.024041748046875
18840.0965414333	0.023126220703125
18841.0965414308	0.022198486328125
18842.0965414283	0.021746826171875
18843.0965414258	0.0210662841796875
18844.0965414232	0.0203765869140625
18845.0965414207	0.019842529296875
18846.0965414182	0.0192169189453125
18847.0965414157	0.018328857421875
18848.0965414131	0.0175689697265625
18849.0965414106	0.0168731689453125
18850.0965414081	0.01591796875
18851.0965414056	0.015008544921875
18852.096541403	0.0140838623046875
18853.0965414005	0.0133636474609375
18854.096541398	0.0124755859375
18855.0965413955	0.0115997314453125
18856.0965413929	0.0108428955078125
18857.0965413904	0.01014404296875
18858.0965413879	0.00943908691406251
18859.0965413854	0.0084991455078125
18860.0965413828	0.00760498046874999
18861.0965413803	0.00690612792968751
18862.0965413778	0.00584716796875
18863.0965413753	0.00489196777343751
18864.0965413727	0.0042144775390625
18865.0965413702	0.00350036621093749
18866.0965413677	0.00255432128906249
18867.0965413652	0.00159301757812499
18868.0965413626	0.000402832031249994
18869.0965413601	-0.000894165039062506
18870.0965413576	-0.00234375000000001
18871.0965413551	-0.0035736083984375
18872.0965413525	-0.0048553466796875
