Time (s)	WE(1).Potential (V)
144.590742634943	2.68646240234375
144.600742634918	2.68646240234375
144.610742634893	2.686767578125
144.620742634868	2.686767578125
144.630742634842	2.6873779296875
144.640742634817	2.68707275390625
144.650742634792	2.68707275390625
144.660742634767	2.68707275390625
144.670742634741	2.68707275390625
144.680742634716	2.68707275390625
144.690742634691	2.68707275390625
144.700742634666	2.686767578125
144.71074263464	2.686767578125
144.720742634615	2.686767578125
144.73074263459	2.686767578125
144.740742634565	2.686767578125
144.75074263454	2.686767578125
144.760742634514	2.686767578125
144.770742634489	2.686767578125
144.780742634464	2.68646240234375
144.790742634439	2.68646240234375
144.800742634413	2.686767578125
144.810742634388	2.686767578125
144.820742634363	2.686767578125
144.830742634338	2.68707275390625
144.840742634312	2.68707275390625
144.850742634287	2.68646240234375
144.860742634262	2.686767578125
144.870742634237	2.68646240234375
144.880742634211	2.686767578125
144.890742634186	2.68707275390625
144.900742634161	2.68707275390625
144.910742634136	2.68707275390625
144.92074263411	2.68707275390625
144.930742634085	2.68707275390625
144.94074263406	2.68707275390625
144.950742634035	2.68707275390625
144.960742634009	2.686767578125
144.970742633984	2.68707275390625
144.980742633959	2.68707275390625
144.990742633934	2.68707275390625
145.000742633908	2.6873779296875
145.010742633883	2.68707275390625
145.020742633858	2.6873779296875
145.030742633833	2.68707275390625
145.040742633807	2.68707275390625
145.050742633782	2.68707275390625
145.060742633757	2.68707275390625
145.070742633732	2.68707275390625
145.080742633706	2.68707275390625
145.090742633681	2.6873779296875
145.100742633656	2.686767578125
145.110742633631	2.686767578125
145.120742633605	2.68707275390625
145.13074263358	2.68707275390625
145.140742633555	2.6873779296875
145.15074263353	2.68707275390625
145.160742633504	2.68707275390625
145.170742633479	2.68707275390625
145.180742633454	2.68707275390625
145.190742633429	2.68707275390625
145.200742633403	2.686767578125
145.210742633378	2.68707275390625
145.220742633353	2.68707275390625
145.230742633328	2.68707275390625
145.240742633302	2.68707275390625
145.250742633277	2.686767578125
145.260742633252	2.68646240234375
145.270742633227	2.685546875
145.280742633201	2.68585205078125
145.290742633176	2.68585205078125
145.300742633151	2.685546875
145.310742633126	2.685546875
145.3207426331	2.685546875
145.330742633075	2.68585205078125
145.34074263305	2.685546875
145.350742633025	2.685546875
145.360742632999	2.68585205078125
145.370742632974	2.68585205078125
145.380742632949	2.6861572265625
145.390742632924	2.6861572265625
145.400742632898	2.68585205078125
145.410742632873	2.68585205078125
145.420742632848	2.68585205078125
145.430742632823	2.685546875
145.440742632797	2.685546875
145.450742632772	2.685546875
145.460742632747	2.68524169921875
145.470742632722	2.685546875
145.480742632696	2.68524169921875
145.490742632671	2.68524169921875
145.500742632646	2.685546875
145.510742632621	2.68524169921875
145.520742632595	2.68524169921875
145.53074263257	2.68524169921875
145.540742632545	2.68524169921875
145.55074263252	2.68524169921875
145.560742632494	2.68524169921875
145.570742632469	2.6849365234375
145.580742632444	2.68524169921875
145.590742632419	2.685546875
145.600742632393	2.68585205078125
145.610742632368	2.685546875
145.620742632343	2.685546875
145.630742632318	2.685546875
145.640742632292	2.685546875
145.650742632267	2.685546875
145.660742632242	2.685546875
145.670742632217	2.685546875
145.680742632191	2.68524169921875
145.690742632166	2.685546875
145.700742632141	2.68524169921875
145.710742632116	2.685546875
145.72074263209	2.68585205078125
145.730742632065	2.68585205078125
145.74074263204	2.6861572265625
145.750742632015	2.6861572265625
145.76074263199	2.68585205078125
145.770742631964	2.685546875
145.780742631939	2.6861572265625
145.790742631914	2.6861572265625
145.800742631889	2.685546875
145.810742631863	2.685546875
145.820742631838	2.685546875
145.830742631813	2.685546875
145.840742631788	2.685546875
145.850742631762	2.68585205078125
145.860742631737	2.68585205078125
145.870742631712	2.68585205078125
145.880742631687	2.685546875
145.890742631661	2.685546875
145.900742631636	2.685546875
145.910742631611	2.685546875
145.920742631586	2.6861572265625
145.93074263156	2.6861572265625
145.940742631535	2.68585205078125
145.95074263151	2.68646240234375
145.960742631485	2.6861572265625
145.970742631459	2.6861572265625
145.980742631434	2.68646240234375
145.990742631409	2.686767578125
146.000742631384	2.68707275390625
146.010742631358	2.686767578125
146.020742631333	2.68707275390625
146.030742631308	2.686767578125
146.040742631283	2.686767578125
146.050742631257	2.686767578125
146.060742631232	2.686767578125
146.070742631207	2.686767578125
146.080742631182	2.68646240234375
146.090742631156	2.68646240234375
146.100742631131	2.686767578125
146.110742631106	2.686767578125
146.120742631081	2.686767578125
146.130742631055	2.68646240234375
146.14074263103	2.6861572265625
146.150742631005	2.6861572265625
146.16074263098	2.68646240234375
146.170742630954	2.68646240234375
146.180742630929	2.68646240234375
146.190742630904	2.68646240234375
146.200742630879	2.68646240234375
146.210742630853	2.68646240234375
146.220742630828	2.6861572265625
146.230742630803	2.6861572265625
146.240742630778	2.6861572265625
146.250742630752	2.6861572265625
146.260742630727	2.6861572265625
146.270742630702	2.68646240234375
146.280742630677	2.686767578125
146.290742630651	2.686767578125
146.300742630626	2.686767578125
146.310742630601	2.68707275390625
146.320742630576	2.68707275390625
146.33074263055	2.6873779296875
146.340742630525	2.68707275390625
146.3507426305	2.6873779296875
146.360742630475	2.68707275390625
146.370742630449	2.68707275390625
146.380742630424	2.68707275390625
146.390742630399	2.68707275390625
146.400742630374	2.68707275390625
146.410742630348	2.68707275390625
146.420742630323	2.68707275390625
146.430742630298	2.6873779296875
146.440742630273	2.6873779296875
146.450742630247	2.686767578125
146.460742630222	2.686767578125
146.470742630197	2.6873779296875
146.480742630172	2.6873779296875
146.490742630146	2.68707275390625
146.500742630121	2.686767578125
146.510742630096	2.68646240234375
146.520742630071	2.6861572265625
146.530742630045	2.6861572265625
146.54074263002	2.68646240234375
146.550742629995	2.686767578125
146.56074262997	2.6861572265625
146.570742629944	2.68646240234375
146.580742629919	2.68646240234375
146.590742629894	2.68585205078125
146.600742629869	2.6861572265625
146.610742629843	2.68646240234375
146.620742629818	2.686767578125
146.630742629793	2.686767578125
146.640742629768	2.68707275390625
146.650742629742	2.68707275390625
146.660742629717	2.68707275390625
146.670742629692	2.68707275390625
146.680742629667	2.68707275390625
146.690742629641	2.68707275390625
146.700742629616	2.68707275390625
146.710742629591	2.68707275390625
146.720742629566	2.68707275390625
146.73074262954	2.686767578125
146.740742629515	2.68707275390625
146.75074262949	2.68707275390625
146.760742629465	2.68707275390625
146.770742629439	2.686767578125
146.780742629414	2.68646240234375
146.790742629389	2.68646240234375
146.800742629364	2.68646240234375
146.810742629339	2.68646240234375
146.820742629313	2.68646240234375
146.830742629288	2.6861572265625
146.840742629263	2.6861572265625
146.850742629238	2.68646240234375
146.860742629212	2.6861572265625
146.870742629187	2.68646240234375
146.880742629162	2.68646240234375
146.890742629137	2.68646240234375
146.900742629111	2.686767578125
146.910742629086	2.686767578125
146.920742629061	2.68707275390625
146.930742629036	2.68707275390625
146.94074262901	2.6873779296875
146.950742628985	2.68707275390625
146.96074262896	2.68707275390625
146.970742628935	2.68707275390625
146.980742628909	2.68707275390625
146.990742628884	2.686767578125
147.000742628859	2.68707275390625
147.010742628834	2.68707275390625
147.020742628808	2.686767578125
147.030742628783	2.68707275390625
147.040742628758	2.686767578125
147.050742628733	2.686767578125
147.060742628707	2.6861572265625
147.070742628682	2.68585205078125
147.080742628657	2.68646240234375
147.090742628632	2.6861572265625
147.100742628606	2.6861572265625
147.110742628581	2.68585205078125
147.120742628556	2.68585205078125
147.130742628531	2.68585205078125
147.140742628505	2.68585205078125
147.15074262848	2.68646240234375
147.160742628455	2.686767578125
147.17074262843	2.68646240234375
147.180742628404	2.68646240234375
147.190742628379	2.68646240234375
147.200742628354	2.68646240234375
147.210742628329	2.6861572265625
147.220742628303	2.68585205078125
147.230742628278	2.685546875
147.240742628253	2.685546875
147.250742628228	2.685546875
147.260742628202	2.685546875
147.270742628177	2.68463134765625
147.280742628152	2.68463134765625
147.290742628127	2.684326171875
147.300742628101	2.684326171875
147.310742628076	2.684326171875
147.320742628051	2.68402099609375
147.330742628026	2.68402099609375
147.340742628	2.68402099609375
147.350742627975	2.68463134765625
147.36074262795	2.68524169921875
147.370742627925	2.68524169921875
147.380742627899	2.685546875
147.390742627874	2.68524169921875
147.400742627849	2.685546875
147.410742627824	2.685546875
147.420742627798	2.685546875
147.430742627773	2.68524169921875
147.440742627748	2.6849365234375
147.450742627723	2.6849365234375
147.460742627697	2.68524169921875
147.470742627672	2.685546875
147.480742627647	2.68524169921875
147.490742627622	2.68524169921875
147.500742627596	2.6849365234375
147.510742627571	2.68524169921875
147.520742627546	2.685546875
147.530742627521	2.68463134765625
147.540742627495	2.6837158203125
147.55074262747	2.6837158203125
147.560742627445	2.68402099609375
147.57074262742	2.684326171875
147.580742627394	2.6849365234375
147.590742627369	2.68524169921875
147.600742627344	2.685546875
147.610742627319	2.68524169921875
147.620742627293	2.685546875
147.630742627268	2.68585205078125
147.640742627243	2.6861572265625
147.650742627218	2.68646240234375
147.660742627192	2.68646240234375
147.670742627167	2.686767578125
147.680742627142	2.68646240234375
147.690742627117	2.68646240234375
147.700742627091	2.68646240234375
147.710742627066	2.686767578125
147.720742627041	2.686767578125
147.730742627016	2.68646240234375
147.74074262699	2.686767578125
147.750742626965	2.686767578125
147.76074262694	2.686767578125
147.770742626915	2.686767578125
147.780742626889	2.686767578125
147.790742626864	2.68646240234375
147.800742626839	2.68646240234375
147.810742626814	2.68646240234375
147.820742626789	2.6861572265625
147.830742626763	2.6861572265625
147.840742626738	2.686767578125
147.850742626713	2.686767578125
147.860742626688	2.68707275390625
147.870742626662	2.686767578125
147.880742626637	2.68707275390625
147.890742626612	2.686767578125
147.900742626587	2.68707275390625
147.910742626561	2.6873779296875
147.920742626536	2.68768310546875
147.930742626511	2.6873779296875
147.940742626486	2.68707275390625
147.95074262646	2.6873779296875
147.960742626435	2.68768310546875
147.97074262641	2.68768310546875
147.980742626385	2.68768310546875
147.990742626359	2.6873779296875
148.000742626334	2.68707275390625
148.010742626309	2.6873779296875
148.020742626284	2.6873779296875
148.030742626258	2.68707275390625
148.040742626233	2.68707275390625
148.050742626208	2.686767578125
148.060742626183	2.68707275390625
148.070742626157	2.686767578125
148.080742626132	2.686767578125
148.090742626107	2.686767578125
148.100742626082	2.68707275390625
148.110742626056	2.686767578125
148.120742626031	2.686767578125
148.130742626006	2.68646240234375
148.140742625981	2.68646240234375
148.150742625955	2.686767578125
148.16074262593	2.68646240234375
148.170742625905	2.68646240234375
148.18074262588	2.68585205078125
148.190742625854	2.68585205078125
148.200742625829	2.68585205078125
148.210742625804	2.685546875
148.220742625779	2.68585205078125
148.230742625753	2.68585205078125
148.240742625728	2.6861572265625
148.250742625703	2.68585205078125
148.260742625678	2.6861572265625
148.270742625652	2.6861572265625
148.280742625627	2.6861572265625
148.290742625602	2.6861572265625
148.300742625577	2.68646240234375
148.310742625551	2.68646240234375
148.320742625526	2.6861572265625
148.330742625501	2.68585205078125
148.340742625476	2.68585205078125
148.35074262545	2.685546875
148.360742625425	2.685546875
148.3707426254	2.685546875
148.380742625375	2.685546875
148.390742625349	2.68585205078125
148.400742625324	2.68585205078125
148.410742625299	2.685546875
148.420742625274	2.6849365234375
148.430742625248	2.68463134765625
148.440742625223	2.68463134765625
148.450742625198	2.685546875
148.460742625173	2.68585205078125
148.470742625147	2.68585205078125
148.480742625122	2.68646240234375
148.490742625097	2.6861572265625
148.500742625072	2.68646240234375
148.510742625046	2.68646240234375
148.520742625021	2.68646240234375
148.530742624996	2.68646240234375
148.540742624971	2.686767578125
148.550742624945	2.68707275390625
148.56074262492	2.68707275390625
148.570742624895	2.6873779296875
148.58074262487	2.6873779296875
148.590742624844	2.68707275390625
148.600742624819	2.68707275390625
148.610742624794	2.68707275390625
148.620742624769	2.6873779296875
148.630742624743	2.68707275390625
148.640742624718	2.686767578125
148.650742624693	2.6873779296875
148.660742624668	2.6873779296875
148.670742624642	2.68768310546875
148.680742624617	2.68768310546875
148.690742624592	2.68798828125
148.700742624567	2.68798828125
148.710742624541	2.68768310546875
148.720742624516	2.68768310546875
148.730742624491	2.6873779296875
148.740742624466	2.6861572265625
148.75074262444	2.686767578125
148.760742624415	2.68798828125
148.77074262439	2.68798828125
148.780742624365	2.68768310546875
148.790742624339	2.68768310546875
148.800742624314	2.6873779296875
148.810742624289	2.6873779296875
148.820742624264	2.6873779296875
148.830742624238	2.6873779296875
148.840742624213	2.68768310546875
148.850742624188	2.6873779296875
148.860742624163	2.68707275390625
148.870742624138	2.68768310546875
148.880742624112	2.6873779296875
148.890742624087	2.68707275390625
148.900742624062	2.6873779296875
148.910742624037	2.68707275390625
148.920742624011	2.68707275390625
148.930742623986	2.68707275390625
148.940742623961	2.686767578125
148.950742623936	2.686767578125
148.96074262391	2.686767578125
148.970742623885	2.686767578125
148.98074262386	2.686767578125
148.990742623835	2.68646240234375
149.000742623809	2.68646240234375
149.010742623784	2.68646240234375
149.020742623759	2.68646240234375
149.030742623734	2.68646240234375
149.040742623708	2.68585205078125
149.050742623683	2.6861572265625
149.060742623658	2.6861572265625
149.070742623633	2.68585205078125
149.080742623607	2.6861572265625
149.090742623582	2.68646240234375
149.100742623557	2.6861572265625
149.110742623532	2.68585205078125
149.120742623506	2.6849365234375
149.130742623481	2.68524169921875
149.140742623456	2.6861572265625
149.150742623431	2.68646240234375
149.160742623405	2.686767578125
149.17074262338	2.68707275390625
149.180742623355	2.6861572265625
149.19074262333	2.6849365234375
149.200742623304	2.6849365234375
149.210742623279	2.684326171875
149.220742623254	2.68463134765625
149.230742623229	2.68402099609375
149.240742623203	2.68402099609375
149.250742623178	2.684326171875
149.260742623153	2.68463134765625
149.270742623128	2.684326171875
149.280742623102	2.68463134765625
149.290742623077	2.68463134765625
149.300742623052	2.68463134765625
149.310742623027	2.684326171875
149.320742623001	2.68463134765625
149.330742622976	2.684326171875
149.340742622951	2.684326171875
149.350742622926	2.6849365234375
149.3607426229	2.6849365234375
149.370742622875	2.68463134765625
149.38074262285	2.68463134765625
149.390742622825	2.6849365234375
149.400742622799	2.68524169921875
149.410742622774	2.6849365234375
149.420742622749	2.6849365234375
149.430742622724	2.68402099609375
149.440742622698	2.684326171875
149.450742622673	2.6849365234375
149.460742622648	2.6849365234375
149.470742622623	2.68463134765625
149.480742622597	2.6849365234375
149.490742622572	2.6849365234375
149.500742622547	2.6849365234375
149.510742622522	2.6849365234375
149.520742622496	2.6849365234375
149.530742622471	2.684326171875
149.540742622446	2.68402099609375
149.550742622421	2.68341064453125
149.560742622395	2.68280029296875
149.57074262237	2.68310546875
149.580742622345	2.68310546875
