Time (s)	WE(1).Potential (V)
11764.9459672964	0.7855224609375
11765.9459672938	0.77117919921875
11766.9459672913	0.7635498046875
11767.9459672888	0.758056640625
11768.9459672863	0.7537841796875
11769.9459672837	0.7501220703125
11770.9459672812	0.74676513671875
11771.9459672787	0.74371337890625
11772.9459672762	0.740966796875
11773.9459672736	0.738525390625
11774.9459672711	0.73638916015625
11775.9459672686	0.7342529296875
11776.9459672661	0.73211669921875
11777.9459672635	0.72998046875
11778.945967261	0.7281494140625
11779.9459672585	0.72662353515625
11780.945967256	0.72479248046875
11781.9459672534	0.72296142578125
11782.9459672509	0.721435546875
11783.9459672484	0.71990966796875
11784.9459672459	0.7183837890625
11785.9459672433	0.71685791015625
11786.9459672408	0.71563720703125
11787.9459672383	0.714111328125
11788.9459672358	0.712890625
11789.9459672332	0.71136474609375
11790.9459672307	0.71014404296875
11791.9459672282	0.70892333984375
11792.9459672257	0.70770263671875
11793.9459672231	0.70648193359375
11794.9459672206	0.70526123046875
11795.9459672181	0.70404052734375
11796.9459672156	0.703125
11797.9459672131	0.70220947265625
11798.9459672105	0.70098876953125
11799.945967208	0.69976806640625
11800.9459672055	0.6988525390625
11801.945967203	0.6976318359375
11802.9459672004	0.69671630859375
11803.9459671979	0.69549560546875
11804.9459671954	0.694580078125
11805.9459671929	0.69366455078125
11806.9459671903	0.69244384765625
11807.9459671878	0.6915283203125
11808.9459671853	0.69061279296875
11809.9459671828	0.689697265625
11810.9459671802	0.68878173828125
11811.9459671777	0.6878662109375
11812.9459671752	0.68695068359375
11813.9459671727	0.68603515625
11814.9459671701	0.68511962890625
11815.9459671676	0.6842041015625
11816.9459671651	0.68328857421875
11817.9459671626	0.682373046875
11818.94596716	0.68145751953125
11819.9459671575	0.68084716796875
11820.945967155	0.679931640625
11821.9459671525	0.67901611328125
11822.9459671499	0.67840576171875
11823.9459671474	0.677490234375
11824.9459671449	0.67657470703125
11825.9459671424	0.6756591796875
11826.9459671398	0.675048828125
11827.9459671373	0.67413330078125
11828.9459671348	0.6732177734375
11829.9459671323	0.672607421875
11830.9459671297	0.67169189453125
11831.9459671272	0.6707763671875
11832.9459671247	0.670166015625
11833.9459671222	0.66925048828125
11834.9459671196	0.66864013671875
11835.9459671171	0.667724609375
11836.9459671146	0.6671142578125
11837.9459671121	0.66619873046875
11838.9459671095	0.66558837890625
11839.945967107	0.6646728515625
11840.9459671045	0.66375732421875
11841.945967102	0.66314697265625
11842.9459670994	0.6622314453125
11843.9459670969	0.66162109375
11844.9459670944	0.6610107421875
11845.9459670919	0.660400390625
11846.9459670893	0.65948486328125
11847.9459670868	0.65887451171875
11848.9459670843	0.657958984375
11849.9459670818	0.6573486328125
11850.9459670792	0.65673828125
11851.9459670767	0.6561279296875
11852.9459670742	0.65521240234375
11853.9459670717	0.65460205078125
11854.9459670691	0.65399169921875
11855.9459670666	0.65338134765625
11856.9459670641	0.6524658203125
11857.9459670616	0.65185546875
11858.945967059	0.6512451171875
11859.9459670565	0.65032958984375
11860.945967054	0.64971923828125
11861.9459670515	0.64910888671875
11862.9459670489	0.648193359375
11863.9459670464	0.6475830078125
11864.9459670439	0.64697265625
11865.9459670414	0.6463623046875
11866.9459670388	0.64544677734375
11867.9459670363	0.64483642578125
11868.9459670338	0.64422607421875
11869.9459670313	0.64361572265625
11870.9459670287	0.6427001953125
11871.9459670262	0.64208984375
11872.9459670237	0.6414794921875
11873.9459670212	0.640869140625
11874.9459670186	0.6402587890625
11875.9459670161	0.6396484375
11876.9459670136	0.6390380859375
11877.9459670111	0.638427734375
11878.9459670085	0.63751220703125
11879.945967006	0.63690185546875
11880.9459670035	0.63629150390625
11881.945967001	0.63568115234375
11882.9459669984	0.63507080078125
11883.9459669959	0.63446044921875
11884.9459669934	0.63385009765625
11885.9459669909	0.63323974609375
11886.9459669883	0.63262939453125
11887.9459669858	0.63201904296875
11888.9459669833	0.63140869140625
11889.9459669808	0.63079833984375
11890.9459669782	0.63018798828125
11891.9459669757	0.62957763671875
11892.9459669732	0.62896728515625
11893.9459669707	0.62835693359375
11894.9459669681	0.62774658203125
11895.9459669656	0.62713623046875
11896.9459669631	0.6268310546875
11897.9459669606	0.626220703125
11898.9459669581	0.6256103515625
11899.9459669555	0.625
11900.945966953	0.6243896484375
11901.9459669505	0.62408447265625
11902.945966948	0.62347412109375
11903.9459669454	0.62286376953125
11904.9459669429	0.62225341796875
11905.9459669404	0.6219482421875
11906.9459669379	0.621337890625
11907.9459669353	0.6207275390625
11908.9459669328	0.62042236328125
11909.9459669303	0.61981201171875
11910.9459669278	0.61920166015625
11911.9459669252	0.61859130859375
11912.9459669227	0.6182861328125
11913.9459669202	0.61737060546875
11914.9459669177	0.6170654296875
11915.9459669151	0.616455078125
11916.9459669126	0.6158447265625
11917.9459669101	0.615234375
11918.9459669076	0.6146240234375
11919.945966905	0.61431884765625
11920.9459669025	0.61370849609375
11921.9459669	0.61309814453125
11922.9459668975	0.61248779296875
11923.9459668949	0.61187744140625
11924.9459668924	0.61126708984375
11925.9459668899	0.61065673828125
11926.9459668874	0.61004638671875
11927.9459668848	0.6097412109375
11928.9459668823	0.609130859375
11929.9459668798	0.6085205078125
11930.9459668773	0.60791015625
11931.9459668747	0.6072998046875
11932.9459668722	0.60699462890625
11933.9459668697	0.60638427734375
11934.9459668672	0.60577392578125
11935.9459668646	0.60516357421875
11936.9459668621	0.60455322265625
11937.9459668596	0.604248046875
11938.9459668571	0.6036376953125
11939.9459668545	0.60302734375
11940.945966852	0.6024169921875
11941.9459668495	0.60211181640625
11942.945966847	0.60150146484375
11943.9459668444	0.6011962890625
11944.9459668419	0.6005859375
11945.9459668394	0.5999755859375
11946.9459668369	0.59967041015625
11947.9459668343	0.59906005859375
11948.9459668318	0.59844970703125
11949.9459668293	0.59783935546875
11950.9459668268	0.59722900390625
11951.9459668242	0.596923828125
11952.9459668217	0.5963134765625
11953.9459668192	0.59600830078125
11954.9459668167	0.59539794921875
11955.9459668141	0.5950927734375
11956.9459668116	0.594482421875
11957.9459668091	0.5938720703125
11958.9459668066	0.59356689453125
11959.945966804	0.59295654296875
11960.9459668015	0.5926513671875
11961.945966799	0.592041015625
11962.9459667965	0.59173583984375
11963.9459667939	0.59112548828125
11964.9459667914	0.5908203125
11965.9459667889	0.5902099609375
11966.9459667864	0.589599609375
11967.9459667838	0.5889892578125
11968.9459667813	0.58868408203125
11969.9459667788	0.58807373046875
11970.9459667763	0.5877685546875
11971.9459667737	0.587158203125
11972.9459667712	0.58685302734375
11973.9459667687	0.58624267578125
11974.9459667662	0.5859375
11975.9459667636	0.5853271484375
11976.9459667611	0.584716796875
11977.9459667586	0.58441162109375
11978.9459667561	0.58380126953125
11979.9459667535	0.58319091796875
11980.945966751	0.5828857421875
11981.9459667485	0.582275390625
11982.945966746	0.58197021484375
11983.9459667434	0.58135986328125
11984.9459667409	0.5810546875
11985.9459667384	0.5804443359375
11986.9459667359	0.579833984375
11987.9459667333	0.57952880859375
11988.9459667308	0.57891845703125
11989.9459667283	0.57861328125
11990.9459667258	0.57830810546875
11991.9459667232	0.57769775390625
11992.9459667207	0.577392578125
11993.9459667182	0.5767822265625
11994.9459667157	0.57647705078125
11995.9459667131	0.57586669921875
11996.9459667106	0.5755615234375
11997.9459667081	0.574951171875
11998.9459667056	0.5743408203125
11999.945966703	0.57403564453125
12000.9459667005	0.57342529296875
12001.945966698	0.5731201171875
12002.9459666955	0.57281494140625
12003.945966693	0.57220458984375
12004.9459666904	0.57159423828125
12005.9459666879	0.5712890625
12006.9459666854	0.5706787109375
12007.9459666829	0.57037353515625
12008.9459666803	0.56976318359375
12009.9459666778	0.5694580078125
12010.9459666753	0.56884765625
12011.9459666728	0.56854248046875
12012.9459666702	0.5682373046875
12013.9459666677	0.567626953125
12014.9459666652	0.56732177734375
12015.9459666627	0.56671142578125
12016.9459666601	0.56640625
12017.9459666576	0.5657958984375
12018.9459666551	0.56549072265625
12019.9459666526	0.56488037109375
12020.94596665	0.5645751953125
12021.9459666475	0.56396484375
12022.945966645	0.5633544921875
12023.9459666425	0.56304931640625
12024.9459666399	0.562744140625
12025.9459666374	0.5621337890625
12026.9459666349	0.56182861328125
12027.9459666324	0.56121826171875
12028.9459666298	0.5609130859375
12029.9459666273	0.560302734375
12030.9459666248	0.55999755859375
12031.9459666223	0.55938720703125
12032.9459666197	0.55908203125
12033.9459666172	0.5584716796875
12034.9459666147	0.55816650390625
12035.9459666122	0.557861328125
12036.9459666096	0.5572509765625
12037.9459666071	0.55694580078125
12038.9459666046	0.556640625
12039.9459666021	0.5560302734375
12040.9459665995	0.55572509765625
12041.945966597	0.55511474609375
12042.9459665945	0.5548095703125
12043.945966592	0.55419921875
12044.9459665894	0.55389404296875
12045.9459665869	0.55328369140625
12046.9459665844	0.552978515625
12047.9459665819	0.55267333984375
12048.9459665793	0.55206298828125
12049.9459665768	0.5517578125
12050.9459665743	0.5511474609375
12051.9459665718	0.55084228515625
12052.9459665692	0.550537109375
12053.9459665667	0.5499267578125
12054.9459665642	0.54962158203125
12055.9459665617	0.54901123046875
12056.9459665591	0.5487060546875
12057.9459665566	0.54840087890625
12058.9459665541	0.54779052734375
12059.9459665516	0.5474853515625
12060.945966549	0.546875
12061.9459665465	0.54656982421875
12062.945966544	0.5462646484375
12063.9459665415	0.54595947265625
12064.9459665389	0.54534912109375
12065.9459665364	0.5450439453125
12066.9459665339	0.54443359375
12067.9459665314	0.54412841796875
12068.9459665288	0.5438232421875
12069.9459665263	0.54351806640625
12070.9459665238	0.54290771484375
12071.9459665213	0.5426025390625
12072.9459665187	0.5419921875
12073.9459665162	0.54168701171875
12074.9459665137	0.5413818359375
12075.9459665112	0.540771484375
12076.9459665086	0.54046630859375
12077.9459665061	0.5401611328125
12078.9459665036	0.53955078125
12079.9459665011	0.53924560546875
12080.9459664985	0.53863525390625
12081.945966496	0.538330078125
12082.9459664935	0.53802490234375
12083.945966491	0.53741455078125
12084.9459664884	0.537109375
12085.9459664859	0.53680419921875
12086.9459664834	0.53619384765625
12087.9459664809	0.535888671875
12088.9459664783	0.53558349609375
12089.9459664758	0.5352783203125
12090.9459664733	0.53466796875
12091.9459664708	0.53436279296875
12092.9459664682	0.5340576171875
12093.9459664657	0.533447265625
12094.9459664632	0.53314208984375
12095.9459664607	0.5328369140625
12096.9459664581	0.53253173828125
12097.9459664556	0.53192138671875
12098.9459664531	0.5316162109375
12099.9459664506	0.531005859375
12100.945966448	0.53070068359375
12101.9459664455	0.5303955078125
12102.945966443	0.52978515625
12103.9459664405	0.52947998046875
12104.945966438	0.5291748046875
12105.9459664354	0.528564453125
12106.9459664329	0.52825927734375
12107.9459664304	0.5279541015625
12108.9459664279	0.52734375
12109.9459664253	0.52703857421875
12110.9459664228	0.5267333984375
12111.9459664203	0.526123046875
12112.9459664178	0.52581787109375
12113.9459664152	0.52520751953125
12114.9459664127	0.52490234375
12115.9459664102	0.52459716796875
12116.9459664077	0.52398681640625
12117.9459664051	0.523681640625
12118.9459664026	0.52337646484375
12119.9459664001	0.5230712890625
12120.9459663976	0.5224609375
12121.945966395	0.5218505859375
12122.9459663925	0.52154541015625
12123.94596639	0.521240234375
12124.9459663875	0.52093505859375
12125.9459663849	0.5206298828125
12126.9459663824	0.52001953125
12127.9459663799	0.51971435546875
12128.9459663774	0.5194091796875
12129.9459663748	0.518798828125
12130.9459663723	0.51849365234375
12131.9459663698	0.51788330078125
12132.9459663673	0.517578125
12133.9459663647	0.51727294921875
12134.9459663622	0.5169677734375
12135.9459663597	0.516357421875
12136.9459663572	0.51605224609375
12137.9459663546	0.5157470703125
12138.9459663521	0.51544189453125
12139.9459663496	0.51483154296875
12140.9459663471	0.5145263671875
12141.9459663445	0.51422119140625
12142.945966342	0.513916015625
12143.9459663395	0.5133056640625
12144.945966337	0.51300048828125
12145.9459663344	0.5126953125
12146.9459663319	0.5120849609375
12147.9459663294	0.51177978515625
12148.9459663269	0.511474609375
12149.9459663243	0.51116943359375
12150.9459663218	0.51055908203125
12151.9459663193	0.51025390625
12152.9459663168	0.50994873046875
12153.9459663142	0.50933837890625
12154.9459663117	0.509033203125
12155.9459663092	0.50872802734375
12156.9459663067	0.50811767578125
12157.9459663041	0.5078125
12158.9459663016	0.50750732421875
12159.9459662991	0.5072021484375
12160.9459662966	0.506591796875
12161.945966294	0.50628662109375
12162.9459662915	0.50567626953125
12163.945966289	0.50537109375
12164.9459662865	0.50506591796875
12165.9459662839	0.5047607421875
12166.9459662814	0.50445556640625
12167.9459662789	0.50384521484375
12168.9459662764	0.5035400390625
12169.9459662738	0.50323486328125
12170.9459662713	0.50262451171875
12171.9459662688	0.5023193359375
12172.9459662663	0.50201416015625
12173.9459662637	0.50140380859375
12174.9459662612	0.5010986328125
12175.9459662587	0.50079345703125
12176.9459662562	0.50048828125
12177.9459662536	0.50018310546875
12178.9459662511	0.499755859375
12179.9459662486	0.499420166015625
12180.9459662461	0.49896240234375
12181.9459662435	0.498626708984375
12182.945966241	0.498260498046875
12183.9459662385	0.49786376953125
12184.945966236	0.49749755859375
12185.9459662334	0.497100830078125
12186.9459662309	0.4967041015625
12187.9459662284	0.496337890625
12188.9459662259	0.49591064453125
12189.9459662233	0.495513916015625
12190.9459662208	0.495086669921875
12191.9459662183	0.494659423828125
12192.9459662158	0.494293212890625
12193.9459662132	0.493927001953125
12194.9459662107	0.493560791015625
12195.9459662082	0.493255615234375
12196.9459662057	0.492828369140625
12197.9459662031	0.492523193359375
12198.9459662006	0.492156982421875
12199.9459661981	0.491729736328125
12200.9459661956	0.491302490234375
12201.945966193	0.49090576171875
12202.9459661905	0.49053955078125
12203.945966188	0.490203857421875
12204.9459661855	0.489837646484375
12205.9459661829	0.489410400390625
12206.9459661804	0.489013671875
12207.9459661779	0.488677978515625
12208.9459661754	0.48822021484375
12209.9459661729	0.4879150390625
12210.9459661703	0.487518310546875
12211.9459661678	0.487091064453125
12212.9459661653	0.486785888671875
12213.9459661628	0.4864501953125
12214.9459661602	0.486053466796875
12215.9459661577	0.485687255859375
12216.9459661552	0.4853515625
12217.9459661527	0.48492431640625
12218.9459661501	0.484588623046875
12219.9459661476	0.484283447265625
12220.9459661451	0.483917236328125
12221.9459661426	0.483489990234375
12222.94596614	0.483123779296875
12223.9459661375	0.48272705078125
12224.945966135	0.482391357421875
12225.9459661325	0.48199462890625
12226.9459661299	0.48162841796875
12227.9459661274	0.481292724609375
12228.9459661249	0.48095703125
12229.9459661224	0.480560302734375
12230.9459661198	0.480255126953125
12231.9459661173	0.4798583984375
12232.9459661148	0.479522705078125
12233.9459661123	0.479095458984375
12234.9459661097	0.47869873046875
12235.9459661072	0.478363037109375
12236.9459661047	0.477935791015625
12237.9459661022	0.4775390625
12238.9459660996	0.47723388671875
12239.9459660971	0.476806640625
12240.9459660946	0.47650146484375
12241.9459660921	0.47613525390625
12242.9459660895	0.475738525390625
12243.945966087	0.47540283203125
12244.9459660845	0.4749755859375
12245.945966082	0.47467041015625
12246.9459660794	0.474395751953125
12247.9459660769	0.47393798828125
12248.9459660744	0.4736328125
12249.9459660719	0.4732666015625
12250.9459660693	0.472869873046875
12251.9459660668	0.4725341796875
12252.9459660643	0.472198486328125
12253.9459660618	0.4718017578125
12254.9459660592	0.47149658203125
12255.9459660567	0.47113037109375
12256.9459660542	0.470733642578125
12257.9459660517	0.47039794921875
12258.9459660491	0.47003173828125
12259.9459660466	0.469635009765625
12260.9459660441	0.4693603515625
12261.9459660416	0.468963623046875
12262.945966039	0.468658447265625
12263.9459660365	0.46832275390625
12264.945966034	0.4678955078125
12265.9459660315	0.467559814453125
12266.9459660289	0.467193603515625
12267.9459660264	0.46685791015625
12268.9459660239	0.466461181640625
12269.9459660214	0.46600341796875
12270.9459660188	0.465789794921875
12271.9459660163	0.465423583984375
12272.9459660138	0.465057373046875
12273.9459660113	0.4647216796875
12274.9459660087	0.46429443359375
12275.9459660062	0.463958740234375
12276.9459660037	0.463653564453125
12277.9459660012	0.463287353515625
12278.9459659986	0.46295166015625
12279.9459659961	0.46258544921875
12280.9459659936	0.462249755859375
12281.9459659911	0.461944580078125
12282.9459659885	0.461578369140625
12283.945965986	0.461212158203125
12284.9459659835	0.460845947265625
12285.945965981	0.460479736328125
12286.9459659784	0.460052490234375
12287.9459659759	0.45965576171875
12288.9459659734	0.4593505859375
12289.9459659709	0.459075927734375
12290.9459659683	0.45880126953125
12291.9459659658	0.45843505859375
12292.9459659633	0.4581298828125
12293.9459659608	0.457794189453125
12294.9459659582	0.457427978515625
12295.9459659557	0.45703125
12296.9459659532	0.45672607421875
12297.9459659507	0.456390380859375
12298.9459659481	0.456024169921875
12299.9459659456	0.4556884765625
12300.9459659431	0.455322265625
12301.9459659406	0.454986572265625
12302.945965938	0.454620361328125
12303.9459659355	0.45428466796875
12304.945965933	0.45391845703125
12305.9459659305	0.453582763671875
12306.9459659279	0.45318603515625
12307.9459659254	0.452911376953125
12308.9459659229	0.4525146484375
12309.9459659204	0.452178955078125
12310.9459659179	0.4517822265625
12311.9459659153	0.451446533203125
12312.9459659128	0.451141357421875
12313.9459659103	0.450775146484375
12314.9459659078	0.450408935546875
12315.9459659052	0.45001220703125
12316.9459659027	0.44970703125
12317.9459659002	0.449371337890625
12318.9459658977	0.4490966796875
12319.9459658951	0.44866943359375
12320.9459658926	0.44830322265625
12321.9459658901	0.447967529296875
12322.9459658876	0.4476318359375
12323.945965885	0.44732666015625
12324.9459658825	0.446990966796875
12325.94596588	0.446624755859375
12326.9459658775	0.446319580078125
12327.9459658749	0.445953369140625
12328.9459658724	0.445587158203125
12329.9459658699	0.4453125
12330.9459658674	0.44500732421875
12331.9459658648	0.4447021484375
12332.9459658623	0.444366455078125
12333.9459658598	0.444000244140625
12334.9459658573	0.443695068359375
12335.9459658547	0.443359375
12336.9459658522	0.44305419921875
12337.9459658497	0.44268798828125
12338.9459658472	0.44232177734375
12339.9459658446	0.442047119140625
12340.9459658421	0.44171142578125
12341.9459658396	0.44134521484375
12342.9459658371	0.44091796875
12343.9459658345	0.44061279296875
12344.945965832	0.440338134765625
12345.9459658295	0.439971923828125
12346.945965827	0.439605712890625
12347.9459658244	0.439300537109375
12348.9459658219	0.438934326171875
12349.9459658194	0.438568115234375
12350.9459658169	0.438201904296875
12351.9459658143	0.437896728515625
12352.9459658118	0.437530517578125
12353.9459658093	0.43719482421875
12354.9459658068	0.43682861328125
12355.9459658042	0.4365234375
12356.9459658017	0.4361572265625
12357.9459657992	0.435821533203125
12358.9459657967	0.43548583984375
12359.9459657941	0.435150146484375
12360.9459657916	0.434722900390625
12361.9459657891	0.43438720703125
12362.9459657866	0.434112548828125
12363.945965784	0.433746337890625
12364.9459657815	0.43341064453125
12365.945965779	0.43304443359375
12366.9459657765	0.4327392578125
12367.9459657739	0.43231201171875
12368.9459657714	0.43206787109375
12369.9459657689	0.431732177734375
12370.9459657664	0.431304931640625
12371.9459657638	0.431060791015625
12372.9459657613	0.4307861328125
12373.9459657588	0.430450439453125
12374.9459657563	0.430145263671875
12375.9459657537	0.429840087890625
12376.9459657512	0.42950439453125
12377.9459657487	0.429168701171875
12378.9459657462	0.428802490234375
12379.9459657436	0.428436279296875
12380.9459657411	0.428131103515625
12381.9459657386	0.427703857421875
12382.9459657361	0.427398681640625
12383.9459657335	0.42706298828125
12384.945965731	0.4267578125
12385.9459657285	0.426422119140625
12386.945965726	0.426055908203125
12387.9459657234	0.425750732421875
12388.9459657209	0.42535400390625
12389.9459657184	0.425048828125
12390.9459657159	0.4246826171875
12391.9459657133	0.424346923828125
12392.9459657108	0.42401123046875
12393.9459657083	0.42364501953125
12394.9459657058	0.42327880859375
12395.9459657032	0.4229736328125
12396.9459657007	0.42266845703125
12397.9459656982	0.422332763671875
12398.9459656957	0.422027587890625
12399.9459656931	0.4217529296875
12400.9459656906	0.42144775390625
12401.9459656881	0.421142578125
12402.9459656856	0.420806884765625
12403.945965683	0.42059326171875
12404.9459656805	0.42022705078125
12405.945965678	0.419952392578125
12406.9459656755	0.419647216796875
12407.9459656729	0.419342041015625
12408.9459656704	0.419036865234375
12409.9459656679	0.41864013671875
12410.9459656654	0.4183349609375
12411.9459656628	0.41802978515625
12412.9459656603	0.41766357421875
12413.9459656578	0.417327880859375
12414.9459656553	0.416961669921875
12415.9459656528	0.416717529296875
12416.9459656502	0.4163818359375
12417.9459656477	0.416046142578125
12418.9459656452	0.415679931640625
12419.9459656427	0.4154052734375
12420.9459656401	0.41497802734375
12421.9459656376	0.414703369140625
12422.9459656351	0.414398193359375
12423.9459656326	0.414093017578125
12424.94596563	0.413726806640625
12425.9459656275	0.413421630859375
12426.945965625	0.413116455078125
12427.9459656225	0.412811279296875
12428.9459656199	0.412506103515625
12429.9459656174	0.41217041015625
12430.9459656149	0.411865234375
12431.9459656124	0.41156005859375
12432.9459656098	0.411224365234375
12433.9459656073	0.41094970703125
12434.9459656048	0.410675048828125
12435.9459656023	0.4102783203125
12436.9459655997	0.410064697265625
12437.9459655972	0.40972900390625
12438.9459655947	0.40936279296875
12439.9459655922	0.40899658203125
12440.9459655896	0.408721923828125
12441.9459655871	0.408447265625
12442.9459655846	0.408111572265625
12443.9459655821	0.407745361328125
12444.9459655795	0.407470703125
12445.945965577	0.407196044921875
12446.9459655745	0.406829833984375
12447.945965572	0.40655517578125
12448.9459655694	0.406280517578125
12449.9459655669	0.40594482421875
12450.9459655644	0.40557861328125
12451.9459655619	0.40521240234375
12452.9459655593	0.4049072265625
12453.9459655568	0.40460205078125
12454.9459655543	0.40435791015625
12455.9459655518	0.404052734375
12456.9459655492	0.403717041015625
12457.9459655467	0.40338134765625
12458.9459655442	0.403076171875
12459.9459655417	0.402740478515625
12460.9459655391	0.40240478515625
12461.9459655366	0.402099609375
12462.9459655341	0.40179443359375
12463.9459655316	0.4014892578125
12464.945965529	0.401123046875
12465.9459655265	0.400848388671875
12466.945965524	0.400543212890625
12467.9459655215	0.40020751953125
12468.9459655189	0.39990234375
12469.9459655164	0.399566650390625
12470.9459655139	0.3992919921875
12471.9459655114	0.398956298828125
12472.9459655088	0.398651123046875
12473.9459655063	0.398345947265625
12474.9459655038	0.398040771484375
12475.9459655013	0.397705078125
12476.9459654987	0.39739990234375
12477.9459654962	0.3970947265625
12478.9459654937	0.396759033203125
12479.9459654912	0.396453857421875
12480.9459654886	0.3961181640625
12481.9459654861	0.39581298828125
12482.9459654836	0.39556884765625
12483.9459654811	0.39520263671875
12484.9459654785	0.394927978515625
12485.945965476	0.394561767578125
12486.9459654735	0.394256591796875
12487.945965471	0.393951416015625
12488.9459654684	0.3936767578125
12489.9459654659	0.393341064453125
12490.9459654634	0.39300537109375
12491.9459654609	0.392730712890625
12492.9459654583	0.392425537109375
12493.9459654558	0.392120361328125
12494.9459654533	0.3917236328125
12495.9459654508	0.391448974609375
12496.9459654482	0.391143798828125
12497.9459654457	0.39080810546875
12498.9459654432	0.390533447265625
12499.9459654407	0.390228271484375
12500.9459654381	0.389984130859375
12501.9459654356	0.38958740234375
12502.9459654331	0.38934326171875
12503.9459654306	0.3890380859375
12504.945965428	0.3887939453125
12505.9459654255	0.38848876953125
12506.945965423	0.38818359375
12507.9459654205	0.387847900390625
12508.9459654179	0.387542724609375
12509.9459654154	0.38720703125
12510.9459654129	0.386962890625
12511.9459654104	0.386627197265625
12512.9459654078	0.386260986328125
12513.9459654053	0.385986328125
12514.9459654028	0.3857421875
12515.9459654003	0.385406494140625
12516.9459653978	0.385162353515625
12517.9459653952	0.3848876953125
12518.9459653927	0.384521484375
12519.9459653902	0.38421630859375
12520.9459653877	0.383880615234375
12521.9459653851	0.383514404296875
12522.9459653826	0.383209228515625
12523.9459653801	0.3829345703125
12524.9459653776	0.382537841796875
12525.945965375	0.382232666015625
12526.9459653725	0.381927490234375
12527.94596537	0.381561279296875
12528.9459653675	0.381256103515625
12529.9459653649	0.3809814453125
12530.9459653624	0.380645751953125
12531.9459653599	0.380340576171875
12532.9459653574	0.380035400390625
12533.9459653548	0.3797607421875
12534.9459653523	0.37939453125
12535.9459653498	0.379119873046875
12536.9459653473	0.378814697265625
12537.9459653447	0.3785400390625
12538.9459653422	0.37823486328125
12539.9459653397	0.37799072265625
12540.9459653372	0.377655029296875
12541.9459653346	0.377288818359375
12542.9459653321	0.376983642578125
12543.9459653296	0.376708984375
12544.9459653271	0.376495361328125
12545.9459653245	0.3760986328125
12546.945965322	0.375732421875
12547.9459653195	0.375457763671875
12548.945965317	0.375152587890625
12549.9459653144	0.374908447265625
12550.9459653119	0.374542236328125
12551.9459653094	0.374298095703125
12552.9459653069	0.373931884765625
12553.9459653043	0.373626708984375
12554.9459653018	0.373291015625
12555.9459652993	0.373016357421875
12556.9459652968	0.3726806640625
12557.9459652942	0.372314453125
12558.9459652917	0.372039794921875
12559.9459652892	0.37176513671875
12560.9459652867	0.371490478515625
12561.9459652841	0.371124267578125
12562.9459652816	0.370849609375
12563.9459652791	0.370513916015625
12564.9459652766	0.37030029296875
12565.945965274	0.370025634765625
12566.9459652715	0.369659423828125
12567.945965269	0.369354248046875
12568.9459652665	0.368988037109375
12569.9459652639	0.368682861328125
12570.9459652614	0.36834716796875
12571.9459652589	0.3680419921875
12572.9459652564	0.367706298828125
12573.9459652538	0.367462158203125
12574.9459652513	0.36712646484375
12575.9459652488	0.366729736328125
12576.9459652463	0.36651611328125
12577.9459652437	0.366180419921875
12578.9459652412	0.36590576171875
12579.9459652387	0.365570068359375
12580.9459652362	0.365264892578125
12581.9459652336	0.36492919921875
12582.9459652311	0.36468505859375
12583.9459652286	0.36431884765625
12584.9459652261	0.36407470703125
12585.9459652235	0.36376953125
12586.945965221	0.363433837890625
12587.9459652185	0.363067626953125
12588.945965216	0.362762451171875
12589.9459652134	0.362457275390625
12590.9459652109	0.362152099609375
12591.9459652084	0.361907958984375
12592.9459652059	0.361572265625
12593.9459652033	0.361297607421875
12594.9459652008	0.36102294921875
12595.9459651983	0.360748291015625
12596.9459651958	0.36041259765625
12597.9459651932	0.360137939453125
12598.9459651907	0.359832763671875
12599.9459651882	0.3594970703125
12600.9459651857	0.359222412109375
12601.9459651831	0.358978271484375
12602.9459651806	0.35858154296875
12603.9459651781	0.3582763671875
12604.9459651756	0.358062744140625
12605.945965173	0.35772705078125
12606.9459651705	0.357452392578125
12607.945965168	0.357177734375
12608.9459651655	0.35687255859375
12609.9459651629	0.356536865234375
12610.9459651604	0.35626220703125
12611.9459651579	0.35589599609375
12612.9459651554	0.355560302734375
12613.9459651528	0.355255126953125
12614.9459651503	0.35491943359375
12615.9459651478	0.3546142578125
12616.9459651453	0.354400634765625
12617.9459651427	0.354095458984375
12618.9459651402	0.353729248046875
12619.9459651377	0.353485107421875
12620.9459651352	0.35321044921875
12621.9459651327	0.352874755859375
12622.9459651301	0.3525390625
12623.9459651276	0.352264404296875
12624.9459651251	0.35198974609375
12625.9459651226	0.351654052734375
12626.94596512	0.351409912109375
12627.9459651175	0.35107421875
12628.945965115	0.350799560546875
12629.9459651125	0.350494384765625
12630.9459651099	0.350189208984375
12631.9459651074	0.349884033203125
12632.9459651049	0.349517822265625
12633.9459651024	0.349273681640625
12634.9459650998	0.348907470703125
12635.9459650973	0.348541259765625
12636.9459650948	0.34820556640625
12637.9459650923	0.34796142578125
12638.9459650897	0.347625732421875
12639.9459650872	0.34735107421875
12640.9459650847	0.347015380859375
12641.9459650822	0.346710205078125
12642.9459650796	0.346405029296875
12643.9459650771	0.3460693359375
12644.9459650746	0.345672607421875
12645.9459650721	0.345367431640625
12646.9459650695	0.34515380859375
12647.945965067	0.344879150390625
12648.9459650645	0.3446044921875
12649.945965062	0.34429931640625
12650.9459650594	0.343963623046875
12651.9459650569	0.34368896484375
12652.9459650544	0.343414306640625
12653.9459650519	0.34307861328125
12654.9459650493	0.3427734375
12655.9459650468	0.34246826171875
12656.9459650443	0.342132568359375
12657.9459650418	0.341796875
12658.9459650392	0.34149169921875
12659.9459650367	0.341156005859375
12660.9459650342	0.3408203125
12661.9459650317	0.34051513671875
12662.9459650291	0.3402099609375
12663.9459650266	0.3399658203125
12664.9459650241	0.339630126953125
12665.9459650216	0.33935546875
12666.945965019	0.339019775390625
12667.9459650165	0.3387451171875
12668.945965014	0.338470458984375
12669.9459650115	0.338226318359375
12670.9459650089	0.33795166015625
12671.9459650064	0.33758544921875
12672.9459650039	0.337249755859375
12673.9459650014	0.3369140625
12674.9459649988	0.336517333984375
12675.9459649963	0.336181640625
12676.9459649938	0.3359375
12677.9459649913	0.335662841796875
12678.9459649887	0.33538818359375
12679.9459649862	0.33502197265625
12680.9459649837	0.33477783203125
12681.9459649812	0.33447265625
12682.9459649786	0.3341064453125
12683.9459649761	0.33380126953125
12684.9459649736	0.33343505859375
12685.9459649711	0.3331298828125
12686.9459649685	0.3328857421875
12687.945964966	0.332550048828125
12688.9459649635	0.332244873046875
12689.945964961	0.3319091796875
12690.9459649584	0.331634521484375
12691.9459649559	0.331329345703125
12692.9459649534	0.33111572265625
12693.9459649509	0.330841064453125
12694.9459649483	0.330535888671875
12695.9459649458	0.3302001953125
12696.9459649433	0.32989501953125
12697.9459649408	0.32958984375
12698.9459649382	0.3292236328125
12699.9459649357	0.328948974609375
12700.9459649332	0.328643798828125
12701.9459649307	0.328369140625
12702.9459649281	0.328094482421875
12703.9459649256	0.327880859375
12704.9459649231	0.327484130859375
12705.9459649206	0.327117919921875
12706.945964918	0.326904296875
12707.9459649155	0.326568603515625
12708.945964913	0.326263427734375
12709.9459649105	0.325927734375
12710.9459649079	0.325653076171875
12711.9459649054	0.32537841796875
12712.9459649029	0.3250732421875
12713.9459649004	0.32476806640625
12714.9459648978	0.324432373046875
12715.9459648953	0.324188232421875
12716.9459648928	0.3238525390625
12717.9459648903	0.323577880859375
12718.9459648877	0.323272705078125
12719.9459648852	0.323028564453125
12720.9459648827	0.322723388671875
12721.9459648802	0.322479248046875
12722.9459648777	0.32220458984375
12723.9459648751	0.3218994140625
12724.9459648726	0.321563720703125
12725.9459648701	0.32122802734375
12726.9459648676	0.320892333984375
12727.945964865	0.320587158203125
12728.9459648625	0.32037353515625
12729.94596486	0.320037841796875
12730.9459648575	0.319671630859375
12731.9459648549	0.31939697265625
12732.9459648524	0.319091796875
12733.9459648499	0.31878662109375
12734.9459648474	0.3184814453125
12735.9459648448	0.3182373046875
12736.9459648423	0.317901611328125
12737.9459648398	0.317596435546875
12738.9459648373	0.317291259765625
12739.9459648347	0.316986083984375
12740.9459648322	0.316680908203125
12741.9459648297	0.316375732421875
12742.9459648272	0.31610107421875
12743.9459648246	0.31573486328125
12744.9459648221	0.31549072265625
12745.9459648196	0.315185546875
12746.9459648171	0.314910888671875
12747.9459648145	0.314544677734375
12748.945964812	0.314300537109375
12749.9459648095	0.313995361328125
12750.945964807	0.313690185546875
12751.9459648044	0.313323974609375
12752.9459648019	0.31298828125
12753.9459647994	0.312774658203125
12754.9459647969	0.3125
12755.9459647943	0.312164306640625
12756.9459647918	0.3118896484375
12757.9459647893	0.311492919921875
12758.9459647868	0.31121826171875
12759.9459647842	0.310821533203125
12760.9459647817	0.31060791015625
12761.9459647792	0.31036376953125
12762.9459647767	0.310028076171875
12763.9459647741	0.309783935546875
12764.9459647716	0.30938720703125
12765.9459647691	0.30914306640625
12766.9459647666	0.308837890625
12767.945964764	0.30853271484375
12768.9459647615	0.308135986328125
12769.945964759	0.307891845703125
12770.9459647565	0.30767822265625
12771.9459647539	0.307342529296875
12772.9459647514	0.307037353515625
12773.9459647489	0.30670166015625
12774.9459647464	0.306396484375
12775.9459647438	0.30609130859375
12776.9459647413	0.3057861328125
12777.9459647388	0.30548095703125
12778.9459647363	0.305206298828125
12779.9459647337	0.30487060546875
12780.9459647312	0.304534912109375
12781.9459647287	0.304229736328125
12782.9459647262	0.30401611328125
12783.9459647236	0.3037109375
12784.9459647211	0.30340576171875
12785.9459647186	0.3031005859375
12786.9459647161	0.30279541015625
12787.9459647135	0.302520751953125
12788.945964711	0.30218505859375
12789.9459647085	0.3018798828125
12790.945964706	0.301483154296875
12791.9459647034	0.30133056640625
12792.9459647009	0.301025390625
12793.9459646984	0.300750732421875
12794.9459646959	0.3004150390625
12795.9459646933	0.30010986328125
12796.9459646908	0.2998046875
12797.9459646883	0.299530029296875
12798.9459646858	0.299224853515625
12799.9459646832	0.2989501953125
12800.9459646807	0.298614501953125
12801.9459646782	0.298370361328125
12802.9459646757	0.298065185546875
12803.9459646731	0.2977294921875
12804.9459646706	0.297454833984375
12805.9459646681	0.29718017578125
12806.9459646656	0.296905517578125
12807.945964663	0.29656982421875
12808.9459646605	0.296295166015625
12809.945964658	0.29595947265625
12810.9459646555	0.29571533203125
12811.9459646529	0.295440673828125
12812.9459646504	0.295135498046875
12813.9459646479	0.294769287109375
12814.9459646454	0.294525146484375
12815.9459646428	0.294219970703125
12816.9459646403	0.2939453125
12817.9459646378	0.29364013671875
12818.9459646353	0.29339599609375
12819.9459646327	0.2930908203125
12820.9459646302	0.2928466796875
12821.9459646277	0.292510986328125
12822.9459646252	0.292205810546875
12823.9459646226	0.291961669921875
12824.9459646201	0.2916259765625
12825.9459646176	0.291412353515625
12826.9459646151	0.291107177734375
12827.9459646126	0.290771484375
12828.94596461	0.290496826171875
12829.9459646075	0.290130615234375
12830.945964605	0.28985595703125
12831.9459646025	0.28961181640625
12832.9459645999	0.289215087890625
12833.9459645974	0.288970947265625
12834.9459645949	0.288665771484375
12835.9459645924	0.288360595703125
12836.9459645898	0.2879638671875
12837.9459645873	0.287750244140625
12838.9459645848	0.287384033203125
12839.9459645823	0.287078857421875
12840.9459645797	0.28680419921875
12841.9459645772	0.286529541015625
12842.9459645747	0.286224365234375
12843.9459645722	0.28594970703125
12844.9459645696	0.285675048828125
12845.9459645671	0.285369873046875
12846.9459645646	0.285064697265625
12847.9459645621	0.2847900390625
12848.9459645595	0.284454345703125
12849.945964557	0.28411865234375
12850.9459645545	0.283843994140625
12851.945964552	0.283477783203125
12852.9459645494	0.283233642578125
12853.9459645469	0.282928466796875
12854.9459645444	0.28265380859375
12855.9459645419	0.282318115234375
12856.9459645393	0.282012939453125
12857.9459645368	0.28173828125
12858.9459645343	0.281402587890625
12859.9459645318	0.281158447265625
12860.9459645292	0.28094482421875
12861.9459645267	0.280609130859375
12862.9459645242	0.28033447265625
12863.9459645217	0.279998779296875
12864.9459645191	0.27972412109375
12865.9459645166	0.2794189453125
12866.9459645141	0.279144287109375
12867.9459645116	0.27880859375
12868.945964509	0.27850341796875
12869.9459645065	0.278167724609375
12870.945964504	0.27789306640625
12871.9459645015	0.27764892578125
12872.9459644989	0.277313232421875
12873.9459644964	0.277099609375
12874.9459644939	0.27679443359375
12875.9459644914	0.2764892578125
12876.9459644888	0.276153564453125
12877.9459644863	0.27587890625
12878.9459644838	0.275604248046875
12879.9459644813	0.275299072265625
12880.9459644787	0.27496337890625
12881.9459644762	0.274749755859375
12882.9459644737	0.274444580078125
12883.9459644712	0.274200439453125
12884.9459644686	0.273895263671875
12885.9459644661	0.273590087890625
12886.9459644636	0.2733154296875
12887.9459644611	0.27301025390625
12888.9459644585	0.272705078125
12889.945964456	0.27239990234375
12890.9459644535	0.272125244140625
12891.945964451	0.271881103515625
12892.9459644484	0.27154541015625
12893.9459644459	0.271240234375
12894.9459644434	0.27093505859375
12895.9459644409	0.27069091796875
12896.9459644383	0.2703857421875
12897.9459644358	0.27008056640625
12898.9459644333	0.26983642578125
12899.9459644308	0.26953125
12900.9459644282	0.26922607421875
12901.9459644257	0.268951416015625
12902.9459644232	0.268646240234375
12903.9459644207	0.268341064453125
12904.9459644181	0.26800537109375
12905.9459644156	0.26776123046875
12906.9459644131	0.267486572265625
12907.9459644106	0.267181396484375
12908.945964408	0.266876220703125
12909.9459644055	0.2666015625
12910.945964403	0.26629638671875
12911.9459644005	0.2659912109375
12912.9459643979	0.265655517578125
12913.9459643954	0.26544189453125
12914.9459643929	0.265167236328125
12915.9459643904	0.264892578125
12916.9459643878	0.264495849609375
12917.9459643853	0.264312744140625
12918.9459643828	0.263946533203125
12919.9459643803	0.263641357421875
12920.9459643777	0.2633056640625
12921.9459643752	0.263092041015625
12922.9459643727	0.262725830078125
12923.9459643702	0.262451171875
12924.9459643676	0.26214599609375
12925.9459643651	0.261871337890625
12926.9459643626	0.261566162109375
12927.9459643601	0.261199951171875
12928.9459643576	0.26092529296875
12929.945964355	0.260589599609375
12930.9459643525	0.260345458984375
12931.94596435	0.260009765625
12932.9459643475	0.25970458984375
12933.9459643449	0.25946044921875
12934.9459643424	0.2591552734375
12935.9459643399	0.258880615234375
12936.9459643374	0.258544921875
12937.9459643348	0.25830078125
12938.9459643323	0.258026123046875
12939.9459643298	0.25775146484375
12940.9459643273	0.257354736328125
12941.9459643247	0.257080078125
12942.9459643222	0.256744384765625
12943.9459643197	0.256439208984375
12944.9459643172	0.25616455078125
12945.9459643146	0.255828857421875
12946.9459643121	0.255523681640625
12947.9459643096	0.255279541015625
12948.9459643071	0.2550048828125
12949.9459643045	0.25469970703125
12950.945964302	0.254425048828125
12951.9459642995	0.254180908203125
12952.945964297	0.253875732421875
12953.9459642944	0.25360107421875
12954.9459642919	0.2532958984375
12955.9459642894	0.253021240234375
12956.9459642869	0.252716064453125
12957.9459642843	0.25238037109375
12958.9459642818	0.2520751953125
12959.9459642793	0.25177001953125
12960.9459642768	0.251556396484375
12961.9459642742	0.251190185546875
12962.9459642717	0.250885009765625
12963.9459642692	0.25048828125
12964.9459642667	0.25030517578125
12965.9459642641	0.25
12966.9459642616	0.249664306640625
12967.9459642591	0.2493896484375
12968.9459642566	0.248748779296875
12969.945964254	0.248779296875
12970.9459642515	0.24853515625
12971.945964249	0.248199462890625
12972.9459642465	0.247833251953125
12973.9459642439	0.24755859375
12974.9459642414	0.247314453125
12975.9459642389	0.2469482421875
12976.9459642364	0.246673583984375
12977.9459642338	0.246368408203125
12978.9459642313	0.24609375
12979.9459642288	0.245758056640625
12980.9459642263	0.245452880859375
12981.9459642237	0.2451171875
12982.9459642212	0.244842529296875
12983.9459642187	0.24456787109375
12984.9459642162	0.244293212890625
12985.9459642136	0.2440185546875
12986.9459642111	0.243743896484375
12987.9459642086	0.24346923828125
12988.9459642061	0.2431640625
12989.9459642035	0.24285888671875
12990.945964201	0.24249267578125
12991.9459641985	0.2421875
12992.945964196	0.24188232421875
12993.9459641934	0.241546630859375
12994.9459641909	0.241302490234375
12995.9459641884	0.240997314453125
12996.9459641859	0.240692138671875
12997.9459641833	0.24029541015625
12998.9459641808	0.240020751953125
12999.9459641783	0.23974609375
13000.9459641758	0.239410400390625
13001.9459641732	0.239044189453125
13002.9459641707	0.23876953125
13003.9459641682	0.23846435546875
13004.9459641657	0.238067626953125
13005.9459641631	0.237884521484375
13006.9459641606	0.23760986328125
13007.9459641581	0.237274169921875
13008.9459641556	0.236968994140625
13009.945964153	0.23663330078125
13010.9459641505	0.236297607421875
13011.945964148	0.23602294921875
13012.9459641455	0.235748291015625
13013.9459641429	0.235443115234375
13014.9459641404	0.235137939453125
13015.9459641379	0.23480224609375
13016.9459641354	0.2344970703125
13017.9459641328	0.23431396484375
13018.9459641303	0.2340087890625
13019.9459641278	0.233673095703125
13020.9459641253	0.23333740234375
13021.9459641227	0.233001708984375
13022.9459641202	0.232757568359375
13023.9459641177	0.232421875
13024.9459641152	0.23211669921875
13025.9459641126	0.2318115234375
13026.9459641101	0.23175048828125
13027.9459641076	0.231475830078125
13028.9459641051	0.231170654296875
13029.9459641025	0.23089599609375
13030.9459641	0.230560302734375
13031.9459640975	0.230316162109375
13032.945964095	0.229949951171875
13033.9459640925	0.229644775390625
13034.9459640899	0.229339599609375
13035.9459640874	0.22906494140625
13036.9459640849	0.228759765625
13037.9459640824	0.228485107421875
13038.9459640798	0.2281494140625
13039.9459640773	0.227783203125
13040.9459640748	0.227508544921875
13041.9459640723	0.22723388671875
13042.9459640697	0.2269287109375
13043.9459640672	0.226593017578125
13044.9459640647	0.226287841796875
13045.9459640622	0.22607421875
13046.9459640596	0.2257080078125
13047.9459640571	0.225372314453125
13048.9459640546	0.225067138671875
13049.9459640521	0.224822998046875
13050.9459640495	0.2244873046875
13051.945964047	0.224212646484375
13052.9459640445	0.223907470703125
13053.945964042	0.223602294921875
13054.9459640394	0.223297119140625
13055.9459640369	0.2230224609375
13056.9459640344	0.222625732421875
13057.9459640319	0.222320556640625
13058.9459640293	0.221923828125
13059.9459640268	0.221649169921875
13060.9459640243	0.221343994140625
13061.9459640218	0.22100830078125
13062.9459640192	0.220733642578125
13063.9459640167	0.22039794921875
13064.9459640142	0.22015380859375
13065.9459640117	0.219757080078125
13066.9459640091	0.21942138671875
13067.9459640066	0.219146728515625
13068.9459640041	0.2188720703125
13069.9459640016	0.218536376953125
13070.945963999	0.218231201171875
13071.9459639965	0.2178955078125
13072.945963994	0.217559814453125
13073.9459639915	0.21728515625
13074.9459639889	0.217010498046875
13075.9459639864	0.216644287109375
13076.9459639839	0.216339111328125
13077.9459639814	0.216033935546875
13078.9459639788	0.21575927734375
13079.9459639763	0.2154541015625
13080.9459639738	0.21514892578125
13081.9459639713	0.214813232421875
13082.9459639687	0.214447021484375
13083.9459639662	0.214111328125
13084.9459639637	0.213775634765625
13085.9459639612	0.2135009765625
13086.9459639586	0.213165283203125
13087.9459639561	0.21282958984375
13088.9459639536	0.212615966796875
13089.9459639511	0.2122802734375
13090.9459639485	0.212005615234375
13091.945963946	0.21160888671875
13092.9459639435	0.21136474609375
13093.945963941	0.211090087890625
13094.9459639384	0.210784912109375
13095.9459639359	0.21044921875
13096.9459639334	0.210113525390625
13097.9459639309	0.209808349609375
13098.9459639283	0.209503173828125
13099.9459639258	0.209228515625
13100.9459639233	0.2088623046875
13101.9459639208	0.208526611328125
13102.9459639182	0.208251953125
13103.9459639157	0.207916259765625
13104.9459639132	0.20758056640625
13105.9459639107	0.20721435546875
13106.9459639081	0.20697021484375
13107.9459639056	0.20654296875
13108.9459639031	0.20623779296875
13109.9459639006	0.2059326171875
13110.945963898	0.20556640625
13111.9459638955	0.2052001953125
13112.945963893	0.204925537109375
13113.9459638905	0.204620361328125
13114.9459638879	0.20428466796875
13115.9459638854	0.203948974609375
13116.9459638829	0.20355224609375
13117.9459638804	0.2032470703125
13118.9459638778	0.20294189453125
13119.9459638753	0.20263671875
13120.9459638728	0.20233154296875
13121.9459638703	0.20196533203125
13122.9459638677	0.20166015625
13123.9459638652	0.2012939453125
13124.9459638627	0.200958251953125
13125.9459638602	0.200592041015625
13126.9459638576	0.20025634765625
13127.9459638551	0.199920654296875
13128.9459638526	0.199554443359375
13129.9459638501	0.19921875
13130.9459638475	0.1988525390625
13131.945963845	0.19854736328125
13132.9459638425	0.19830322265625
13133.94596384	0.197998046875
13134.9459638375	0.197723388671875
13135.9459638349	0.1973876953125
13136.9459638324	0.197052001953125
13137.9459638299	0.19677734375
13138.9459638274	0.196380615234375
13139.9459638248	0.196075439453125
13140.9459638223	0.19573974609375
13141.9459638198	0.19537353515625
13142.9459638173	0.195098876953125
13143.9459638147	0.19488525390625
13144.9459638122	0.194580078125
13145.9459638097	0.194305419921875
13146.9459638072	0.194000244140625
13147.9459638046	0.19366455078125
13148.9459638021	0.19329833984375
13149.9459637996	0.1929931640625
13150.9459637971	0.192626953125
13151.9459637945	0.19232177734375
13152.945963792	0.19195556640625
13153.9459637895	0.19158935546875
13154.945963787	0.19122314453125
13155.9459637844	0.19091796875
13156.9459637819	0.19061279296875
13157.9459637794	0.19024658203125
13158.9459637769	0.189910888671875
13159.9459637743	0.1895751953125
13160.9459637718	0.189208984375
13161.9459637693	0.188873291015625
13162.9459637668	0.188446044921875
13163.9459637642	0.188201904296875
13164.9459637617	0.18780517578125
13165.9459637592	0.1875
13166.9459637567	0.187103271484375
13167.9459637541	0.186859130859375
13168.9459637516	0.186553955078125
13169.9459637491	0.186248779296875
13170.9459637466	0.1859130859375
13171.945963744	0.18560791015625
13172.9459637415	0.1851806640625
13173.945963739	0.18487548828125
13174.9459637365	0.184539794921875
13175.9459637339	0.184173583984375
13176.9459637314	0.183868408203125
13177.9459637289	0.183502197265625
13178.9459637264	0.183197021484375
13179.9459637238	0.18280029296875
13180.9459637213	0.18243408203125
13181.9459637188	0.182098388671875
13182.9459637163	0.181793212890625
13183.9459637137	0.181488037109375
13184.9459637112	0.181121826171875
13185.9459637087	0.18072509765625
13186.9459637062	0.18035888671875
13187.9459637036	0.180084228515625
13188.9459637011	0.1796875
13189.9459636986	0.179351806640625
13190.9459636961	0.17901611328125
13191.9459636935	0.178680419921875
13192.945963691	0.178436279296875
13193.9459636885	0.1781005859375
13194.945963686	0.177703857421875
13195.9459636834	0.177398681640625
13196.9459636809	0.176971435546875
13197.9459636784	0.176727294921875
13198.9459636759	0.17633056640625
13199.9459636733	0.175994873046875
13200.9459636708	0.175567626953125
13201.9459636683	0.17523193359375
13202.9459636658	0.17510986328125
13203.9459636632	0.17474365234375
13204.9459636607	0.1744384765625
13205.9459636582	0.17401123046875
13206.9459636557	0.1737060546875
13207.9459636531	0.173370361328125
13208.9459636506	0.17303466796875
13209.9459636481	0.172698974609375
13210.9459636456	0.17236328125
13211.945963643	0.17193603515625
13212.9459636405	0.17169189453125
13213.945963638	0.17138671875
13214.9459636355	0.1710205078125
13215.9459636329	0.170654296875
13216.9459636304	0.170257568359375
13217.9459636279	0.16986083984375
13218.9459636254	0.1695556640625
13219.9459636228	0.16925048828125
13220.9459636203	0.16888427734375
13221.9459636178	0.16851806640625
13222.9459636153	0.1680908203125
13223.9459636127	0.167816162109375
13224.9459636102	0.1673583984375
13225.9459636077	0.167022705078125
13226.9459636052	0.166717529296875
13227.9459636026	0.16632080078125
13228.9459636001	0.16595458984375
13229.9459635976	0.16552734375
13230.9459635951	0.165191650390625
13231.9459635925	0.16485595703125
13232.94596359	0.164581298828125
13233.9459635875	0.164215087890625
13234.945963585	0.16387939453125
13235.9459635824	0.1634521484375
13236.9459635799	0.16314697265625
13237.9459635774	0.1627197265625
13238.9459635749	0.16241455078125
13239.9459635724	0.161956787109375
13240.9459635698	0.161712646484375
13241.9459635673	0.161346435546875
13242.9459635648	0.160888671875
13243.9459635623	0.160675048828125
13244.9459635597	0.160797119140625
13245.9459635572	0.160369873046875
13246.9459635547	0.1600341796875
13247.9459635522	0.159637451171875
13248.9459635496	0.1593017578125
13249.9459635471	0.158905029296875
13250.9459635446	0.15850830078125
13251.9459635421	0.1580810546875
13252.9459635395	0.157806396484375
13253.945963537	0.157470703125
13254.9459635345	0.157073974609375
13255.945963532	0.156768798828125
13256.9459635294	0.156402587890625
13257.9459635269	0.155975341796875
13258.9459635244	0.1556396484375
13259.9459635219	0.15521240234375
13260.9459635193	0.1549072265625
13261.9459635168	0.15447998046875
13262.9459635143	0.154144287109375
13263.9459635118	0.153717041015625
13264.9459635092	0.153411865234375
13265.9459635067	0.153167724609375
13266.9459635042	0.15277099609375
13267.9459635017	0.15234375
13268.9459634991	0.15216064453125
13269.9459634966	0.151824951171875
13270.9459634941	0.15155029296875
13271.9459634916	0.15118408203125
13272.945963489	0.150787353515625
13273.9459634865	0.150390625
13274.945963484	0.15008544921875
13275.9459634815	0.14971923828125
13276.9459634789	0.149322509765625
13277.9459634764	0.14898681640625
13278.9459634739	0.148590087890625
13279.9459634714	0.148284912109375
13280.9459634688	0.148162841796875
13281.9459634663	0.14776611328125
13282.9459634638	0.1480712890625
13283.9459634613	0.14801025390625
13284.9459634587	0.14776611328125
13285.9459634562	0.1475830078125
13286.9459634537	0.147308349609375
13287.9459634512	0.14697265625
13288.9459634486	0.146636962890625
13289.9459634461	0.146270751953125
13290.9459634436	0.145965576171875
13291.9459634411	0.14569091796875
13292.9459634385	0.145416259765625
13293.945963436	0.1451416015625
13294.9459634335	0.144866943359375
13295.945963431	0.144561767578125
13296.9459634284	0.144134521484375
13297.9459634259	0.143798828125
13298.9459634234	0.1435546875
13299.9459634209	0.143157958984375
13300.9459634183	0.1429443359375
13301.9459634158	0.142547607421875
13302.9459634133	0.14227294921875
13303.9459634108	0.141876220703125
13304.9459634082	0.141510009765625
13305.9459634057	0.141571044921875
13306.9459634032	0.141326904296875
13307.9459634007	0.14093017578125
13308.9459633981	0.140625
13309.9459633956	0.140380859375
13310.9459633931	0.139984130859375
13311.9459633906	0.1397705078125
13312.945963388	0.1395263671875
13313.9459633855	0.139251708984375
13314.945963383	0.138946533203125
13315.9459633805	0.13861083984375
13316.9459633779	0.138275146484375
13317.9459633754	0.137908935546875
13318.9459633729	0.1375732421875
13319.9459633704	0.137237548828125
13320.9459633678	0.13690185546875
13321.9459633653	0.13653564453125
13322.9459633628	0.136260986328125
13323.9459633603	0.13592529296875
13324.9459633577	0.135589599609375
13325.9459633552	0.13519287109375
13326.9459633527	0.134735107421875
13327.9459633502	0.134368896484375
13328.9459633476	0.134063720703125
13329.9459633451	0.133697509765625
13330.9459633426	0.133392333984375
13331.9459633401	0.133056640625
13332.9459633375	0.132781982421875
13333.945963335	0.1324462890625
13334.9459633325	0.132110595703125
13335.94596333	0.131866455078125
13336.9459633274	0.131500244140625
13337.9459633249	0.131103515625
13338.9459633224	0.13067626953125
13339.9459633199	0.13031005859375
13340.9459633174	0.129913330078125
13341.9459633148	0.1295166015625
13342.9459633123	0.129180908203125
13343.9459633098	0.128814697265625
13344.9459633073	0.128448486328125
13345.9459633047	0.1280517578125
13346.9459633022	0.127593994140625
13347.9459632997	0.127197265625
13348.9459632972	0.126800537109375
13349.9459632946	0.126556396484375
13350.9459632921	0.126129150390625
13351.9459632896	0.12579345703125
13352.9459632871	0.125457763671875
13353.9459632845	0.125152587890625
13354.945963282	0.12481689453125
13355.9459632795	0.1243896484375
13356.945963277	0.124053955078125
13357.9459632744	0.12371826171875
13358.9459632719	0.123504638671875
13359.9459632694	0.12310791015625
13360.9459632669	0.12274169921875
13361.9459632643	0.122344970703125
13362.9459632618	0.1219482421875
13363.9459632593	0.12152099609375
13364.9459632568	0.121185302734375
13365.9459632542	0.12078857421875
13366.9459632517	0.12042236328125
13367.9459632492	0.119964599609375
13368.9459632467	0.119598388671875
13369.9459632441	0.119171142578125
13370.9459632416	0.118988037109375
13371.9459632391	0.118743896484375
13372.9459632366	0.118438720703125
13373.945963234	0.1181640625
13374.9459632315	0.1177978515625
13375.945963229	0.117279052734375
13376.9459632265	0.11688232421875
13377.9459632239	0.116455078125
13378.9459632214	0.11602783203125
13379.9459632189	0.11572265625
13380.9459632164	0.115447998046875
13381.9459632138	0.115081787109375
13382.9459632113	0.114715576171875
13383.9459632088	0.1143798828125
13384.9459632063	0.11444091796875
13385.9459632037	0.1141357421875
13386.9459632012	0.113739013671875
13387.9459631987	0.11346435546875
13388.9459631962	0.113494873046875
13389.9459631936	0.113067626953125
13390.9459631911	0.11273193359375
13391.9459631886	0.112701416015625
13392.9459631861	0.112396240234375
13393.9459631835	0.112030029296875
13394.945963181	0.111541748046875
13395.9459631785	0.111083984375
13396.945963176	0.1107177734375
13397.9459631734	0.110443115234375
13398.9459631709	0.110015869140625
13399.9459631684	0.109649658203125
13400.9459631659	0.109344482421875
13401.9459631633	0.10906982421875
13402.9459631608	0.1087646484375
13403.9459631583	0.1085205078125
13404.9459631558	0.1082763671875
13405.9459631532	0.107940673828125
13406.9459631507	0.107452392578125
13407.9459631482	0.107269287109375
13408.9459631457	0.1068115234375
13409.9459631431	0.106414794921875
13410.9459631406	0.10601806640625
13411.9459631381	0.10589599609375
13412.9459631356	0.105377197265625
13413.945963133	0.10498046875
13414.9459631305	0.104644775390625
13415.945963128	0.104217529296875
13416.9459631255	0.10394287109375
13417.9459631229	0.10345458984375
13418.9459631204	0.10308837890625
13419.9459631179	0.10284423828125
13420.9459631154	0.1024169921875
13421.9459631128	0.10205078125
13422.9459631103	0.101806640625
13423.9459631078	0.101318359375
13424.9459631053	0.100982666015625
13425.9459631027	0.100555419921875
13426.9459631002	0.100128173828125
13427.9459630977	0.09967041015625
13428.9459630952	0.099395751953125
13429.9459630926	0.099029541015625
13430.9459630901	0.09881591796875
13431.9459630876	0.09881591796875
13432.9459630851	0.098480224609375
13433.9459630825	0.09857177734375
13434.94596308	0.098297119140625
13435.9459630775	0.098114013671875
13436.945963075	0.097564697265625
13437.9459630724	0.097259521484375
13438.9459630699	0.09686279296875
13439.9459630674	0.096466064453125
13440.9459630649	0.096099853515625
13441.9459630623	0.09576416015625
13442.9459630598	0.09539794921875
13443.9459630573	0.095062255859375
13444.9459630548	0.094696044921875
13445.9459630523	0.094451904296875
13446.9459630497	0.094085693359375
13447.9459630472	0.093719482421875
13448.9459630447	0.09344482421875
13449.9459630422	0.093048095703125
13450.9459630396	0.093048095703125
13451.9459630371	0.0927734375
13452.9459630346	0.092498779296875
13453.9459630321	0.092071533203125
13454.9459630295	0.091705322265625
13455.945963027	0.091339111328125
13456.9459630245	0.09100341796875
13457.945963022	0.09051513671875
13458.9459630194	0.090179443359375
13459.9459630169	0.089874267578125
13460.9459630144	0.0894775390625
13461.9459630119	0.08929443359375
13462.9459630093	0.089111328125
13463.9459630068	0.088775634765625
13464.9459630043	0.0885009765625
13465.9459630018	0.088134765625
13466.9459629992	0.087738037109375
13467.9459629967	0.087371826171875
13468.9459629942	0.08685302734375
13469.9459629917	0.08642578125
13470.9459629891	0.08599853515625
13471.9459629866	0.086029052734375
13472.9459629841	0.085845947265625
13473.9459629816	0.085601806640625
13474.945962979	0.085357666015625
13475.9459629765	0.08502197265625
13476.945962974	0.084716796875
13477.9459629715	0.08428955078125
13478.9459629689	0.08416748046875
13479.9459629664	0.08392333984375
13480.9459629639	0.0833740234375
13481.9459629614	0.08294677734375
13482.9459629588	0.08251953125
13483.9459629563	0.082244873046875
13484.9459629538	0.081817626953125
13485.9459629513	0.08148193359375
13486.9459629487	0.081085205078125
13487.9459629462	0.080657958984375
13488.9459629437	0.080169677734375
13489.9459629412	0.0797119140625
13490.9459629386	0.079498291015625
13491.9459629361	0.079193115234375
13492.9459629336	0.078887939453125
13493.9459629311	0.078582763671875
13494.9459629285	0.0782470703125
13495.945962926	0.077850341796875
13496.9459629235	0.07745361328125
13497.945962921	0.077178955078125
13498.9459629184	0.0767822265625
13499.9459629159	0.076385498046875
13500.9459629134	0.076019287109375
13501.9459629109	0.075653076171875
13502.9459629083	0.0751953125
13503.9459629058	0.0748291015625
13504.9459629033	0.07452392578125
13505.9459629008	0.074554443359375
13506.9459628982	0.074188232421875
13507.9459628957	0.073822021484375
13508.9459628932	0.07342529296875
13509.9459628907	0.07305908203125
13510.9459628881	0.0726318359375
13511.9459628856	0.071533203125
13512.9459628831	0.070831298828125
13513.9459628806	0.07037353515625
13514.945962878	0.069915771484375
13515.9459628755	0.06939697265625
13516.945962873	0.069366455078125
13517.9459628705	0.069305419921875
13518.9459628679	0.06903076171875
13519.9459628654	0.0687255859375
13520.9459628629	0.068359375
13521.9459628604	0.06787109375
13522.9459628578	0.067596435546875
13523.9459628553	0.067230224609375
13524.9459628528	0.0667724609375
13525.9459628503	0.066314697265625
13526.9459628477	0.06585693359375
13527.9459628452	0.065338134765625
13528.9459628427	0.06488037109375
13529.9459628402	0.0645751953125
13530.9459628376	0.064727783203125
13531.9459628351	0.064453125
13532.9459628326	0.064117431640625
13533.9459628301	0.06402587890625
13534.9459628275	0.063690185546875
13535.945962825	0.06329345703125
13536.9459628225	0.06292724609375
13537.94596282	0.06256103515625
13538.9459628174	0.062164306640625
13539.9459628149	0.061676025390625
13540.9459628124	0.06134033203125
13541.9459628099	0.0609130859375
13542.9459628073	0.060455322265625
13543.9459628048	0.060150146484375
13544.9459628023	0.059906005859375
13545.9459627998	0.059600830078125
13546.9459627973	0.05926513671875
13547.9459627947	0.058807373046875
13548.9459627922	0.058349609375
13549.9459627897	0.057891845703125
13550.9459627872	0.05743408203125
13551.9459627846	0.057098388671875
13552.9459627821	0.056671142578125
13553.9459627796	0.056304931640625
13554.9459627771	0.055908203125
13555.9459627745	0.05548095703125
13556.945962772	0.055023193359375
13557.9459627695	0.0545654296875
13558.945962767	0.054229736328125
13559.9459627644	0.0538330078125
13560.9459627619	0.053497314453125
13561.9459627594	0.053131103515625
13562.9459627569	0.052764892578125
13563.9459627543	0.0523681640625
13564.9459627518	0.051910400390625
13565.9459627493	0.05145263671875
13566.9459627468	0.05120849609375
13567.9459627442	0.050750732421875
13568.9459627417	0.05035400390625
13569.9459627392	0.050079345703125
13570.9459627367	0.0496124267578125
13571.9459627341	0.049261474609375
13572.9459627316	0.0489013671875
13573.9459627291	0.0484466552734375
13574.9459627266	0.0480255126953125
13575.945962724	0.0476776123046875
13576.9459627215	0.0472930908203125
13577.945962719	0.0469390869140625
13578.9459627165	0.0466278076171875
13579.9459627139	0.046435546875
13580.9459627114	0.0460418701171875
13581.9459627089	0.04560546875
13582.9459627064	0.0454345703125
13583.9459627038	0.0450469970703125
13584.9459627013	0.044659423828125
13585.9459626988	0.04417724609375
13586.9459626963	0.0438201904296875
13587.9459626937	0.0433258056640625
13588.9459626912	0.0429534912109375
13589.9459626887	0.0425323486328125
13590.9459626862	0.042138671875
13591.9459626836	0.04169921875
13592.9459626811	0.0413055419921875
13593.9459626786	0.04100341796875
13594.9459626761	0.0405609130859375
13595.9459626735	0.04000244140625
13596.945962671	0.0395538330078125
13597.9459626685	0.03914794921875
13598.945962666	0.0387786865234375
13599.9459626634	0.03829345703125
13600.9459626609	0.03782958984375
13601.9459626584	0.0373321533203125
13602.9459626559	0.037005615234375
13603.9459626533	0.036614990234375
13604.9459626508	0.0363555908203125
13605.9459626483	0.036065673828125
13606.9459626458	0.0356903076171875
13607.9459626432	0.03544921875
13608.9459626407	0.0350616455078125
13609.9459626382	0.0345672607421875
13610.9459626357	0.0342071533203125
13611.9459626331	0.0337249755859375
13612.9459626306	0.0333160400390625
13613.9459626281	0.0330291748046875
13614.9459626256	0.032672119140625
13615.945962623	0.0321868896484375
13616.9459626205	0.0317169189453125
13617.945962618	0.0312469482421875
13618.9459626155	0.0309295654296875
13619.9459626129	0.0304656982421875
13620.9459626104	0.03028564453125
13621.9459626079	0.029931640625
13622.9459626054	0.0296173095703125
13623.9459626028	0.0292755126953125
13624.9459626003	0.0289215087890625
13625.9459625978	0.028448486328125
13626.9459625953	0.027972412109375
13627.9459625927	0.0280731201171875
13628.9459625902	0.0276458740234375
13629.9459625877	0.0272308349609375
13630.9459625852	0.0268157958984375
13631.9459625826	0.026409912109375
13632.9459625801	0.026043701171875
13633.9459625776	0.0256317138671875
13634.9459625751	0.0252166748046875
13635.9459625725	0.024853515625
13636.94596257	0.0243865966796875
13637.9459625675	0.023828125
13638.945962565	0.023309326171875
13639.9459625624	0.02286376953125
13640.9459625599	0.0222808837890625
13641.9459625574	0.0217987060546875
13642.9459625549	0.02139892578125
13643.9459625523	0.0209716796875
13644.9459625498	0.0205169677734375
13645.9459625473	0.0201934814453125
13646.9459625448	0.019879150390625
13647.9459625422	0.0194366455078125
13648.9459625397	0.019024658203125
13649.9459625372	0.01861572265625
13650.9459625347	0.0181915283203125
13651.9459625322	0.0176239013671875
13652.9459625296	0.0171112060546875
13653.9459625271	0.016571044921875
13654.9459625246	0.0159820556640625
13655.9459625221	0.0156585693359375
13656.9459625195	0.0152313232421875
13657.945962517	0.0146820068359375
13658.9459625145	0.0143157958984375
13659.945962512	0.013916015625
13660.9459625094	0.0135101318359375
13661.9459625069	0.0131134033203125
13662.9459625044	0.012664794921875
13663.9459625019	0.0121795654296875
13664.9459624993	0.0120758056640625
13665.9459624968	0.01153564453125
13666.9459624943	0.0116241455078125
13667.9459624918	0.0113067626953125
13668.9459624892	0.01092529296875
13669.9459624867	0.0104736328125
13670.9459624842	0.010113525390625
13671.9459624817	0.0095550537109375
13672.9459624791	0.00916137695312499
13673.9459624766	0.0086822509765625
13674.9459624741	0.0082122802734375
13675.9459624716	0.007733154296875
13676.945962469	0.0074920654296875
13677.9459624665	0.0069732666015625
13678.945962464	0.0064727783203125
13679.9459624615	0.00628051757812501
13680.9459624589	0.00589599609374999
13681.9459624564	0.00548095703125
13682.9459624539	0.00516662597656251
13683.9459624514	0.0048187255859375
13684.9459624488	0.0043975830078125
13685.9459624463	0.00405273437500001
13686.9459624438	0.0035247802734375
13687.9459624413	0.00313415527343749
13688.9459624387	0.00287475585937499
13689.9459624362	0.00251159667968751
13690.9459624337	0.00217590332031251
13691.9459624312	0.00183715820312499
13692.9459624286	0.00145263671875
13693.9459624261	0.00106201171875001
13694.9459624236	0.000750732421874997
13695.9459624211	0.000247192382812497
13696.9459624185	-0.0002288818359375
13697.945962416	-0.000582885742187497
13698.9459624135	-0.00110778808593751
13699.945962411	-0.000479125976562494
