Time (s)	WE(1).Potential (V)
18874.9861503452	0.342864990234375
18875.9861503427	0.368438720703125
18876.9861503402	0.3822021484375
18877.9861503377	0.39154052734375
18878.9861503351	0.40234375
18879.9861503326	0.4127197265625
18880.9861503301	0.4222412109375
18881.9861503276	0.42974853515625
18882.986150325	0.43682861328125
18883.9861503225	0.44195556640625
18884.98615032	0.446380615234375
18885.9861503175	0.450531005859375
18886.9861503149	0.454376220703125
18887.9861503124	0.45843505859375
18888.9861503099	0.46185302734375
18889.9861503074	0.477203369140625
18890.9861503048	0.483245849609375
18891.9861503023	0.48748779296875
18892.9861502998	0.49114990234375
18893.9861502973	0.4952392578125
18894.9861502947	0.4998779296875
18895.9861502922	0.50323486328125
18896.9861502897	0.5059814453125
18897.9861502872	0.50872802734375
18898.9861502846	0.5108642578125
18899.9861502821	0.51300048828125
18900.9861502796	0.51605224609375
18901.9861502771	0.5181884765625
18902.9861502745	0.5206298828125
18903.986150272	0.5224609375
18904.9861502695	0.52459716796875
18905.986150267	0.52703857421875
18906.9861502644	0.5291748046875
18907.9861502619	0.5316162109375
18908.9861502594	0.533447265625
18909.9861502569	0.5352783203125
18910.9861502543	0.537109375
18911.9861502518	0.53863525390625
18912.9861502493	0.54046630859375
18913.9861502468	0.54229736328125
18914.9861502443	0.5438232421875
18915.9861502417	0.545654296875
18916.9861502392	0.54718017578125
18917.9861502367	0.5487060546875
18918.9861502342	0.55023193359375
18919.9861502316	0.5517578125
18920.9861502291	0.55328369140625
18921.9861502266	0.55450439453125
18922.9861502241	0.5560302734375
18923.9861502215	0.5572509765625
18924.986150219	0.55908203125
18925.9861502165	0.56060791015625
18926.986150214	0.56243896484375
18927.9861502114	0.56365966796875
18928.9861502089	0.56488037109375
18929.9861502064	0.56640625
18930.9861502039	0.56793212890625
18931.9861502013	0.56915283203125
18932.9861501988	0.57037353515625
18933.9861501963	0.5718994140625
18934.9861501938	0.5731201171875
18935.9861501912	0.57464599609375
18936.9861501887	0.57586669921875
18937.9861501862	0.57708740234375
18938.9861501837	0.57830810546875
18939.9861501811	0.579833984375
18940.9861501786	0.5810546875
18941.9861501761	0.58197021484375
18942.9861501736	0.58319091796875
18943.986150171	0.58441162109375
18944.9861501685	0.58563232421875
18945.986150166	0.58685302734375
18946.9861501635	0.5877685546875
18947.9861501609	0.5889892578125
18948.9861501584	0.5902099609375
18949.9861501559	0.5914306640625
18950.9861501534	0.5926513671875
18951.9861501508	0.5938720703125
18952.9861501483	0.59539794921875
18953.9861501458	0.59661865234375
18954.9861501433	0.5975341796875
18955.9861501407	0.5987548828125
18956.9861501382	0.59967041015625
18957.9861501357	0.6005859375
18958.9861501332	0.601806640625
18959.9861501306	0.60302734375
18960.9861501281	0.604248046875
18961.9861501256	0.6060791015625
18962.9861501231	0.6072998046875
18963.9861501205	0.60821533203125
18964.986150118	0.60943603515625
18965.9861501155	0.61065673828125
18966.986150113	0.611572265625
18967.9861501104	0.61248779296875
18968.9861501079	0.61370849609375
18969.9861501054	0.615234375
18970.9861501029	0.61614990234375
18971.9861501003	0.61737060546875
18972.9861500978	0.6182861328125
18973.9861500953	0.61920166015625
18974.9861500928	0.62042236328125
18975.9861500902	0.62164306640625
18976.9861500877	0.62286376953125
18977.9861500852	0.623779296875
18978.9861500827	0.62469482421875
18979.9861500801	0.6256103515625
18980.9861500776	0.62652587890625
18981.9861500751	0.62774658203125
18982.9861500726	0.628662109375
18983.98615007	0.6298828125
18984.9861500675	0.63079833984375
18985.986150065	0.6317138671875
18986.9861500625	0.63262939453125
18987.9861500599	0.63385009765625
18988.9861500574	0.634765625
18989.9861500549	0.635986328125
18990.9861500524	0.63690185546875
18991.9861500498	0.63812255859375
18992.9861500473	0.63934326171875
18993.9861500448	0.64056396484375
18994.9861500423	0.6414794921875
18995.9861500397	0.64239501953125
18996.9861500372	0.64361572265625
18997.9861500347	0.6451416015625
18998.9861500322	0.6463623046875
18999.9861500296	0.6475830078125
19000.9861500271	0.64849853515625
19001.9861500246	0.6494140625
19002.9861500221	0.650634765625
19003.9861500195	0.65155029296875
19004.986150017	0.65277099609375
19005.9861500145	0.6536865234375
19006.986150012	0.65460205078125
19007.9861500094	0.65582275390625
19008.9861500069	0.65673828125
19009.9861500044	0.657958984375
19010.9861500019	0.65887451171875
19011.9861499993	0.6597900390625
19012.9861499968	0.6610107421875
19013.9861499943	0.66192626953125
19014.9861499918	0.662841796875
19015.9861499893	0.6640625
19016.9861499867	0.66497802734375
19017.9861499842	0.66619873046875
19018.9861499817	0.6671142578125
19019.9861499792	0.6683349609375
19020.9861499766	0.6695556640625
19021.9861499741	0.6707763671875
19022.9861499716	0.67169189453125
19023.9861499691	0.672607421875
19024.9861499665	0.67352294921875
19025.986149964	0.67474365234375
19026.9861499615	0.67596435546875
19027.986149959	0.6768798828125
19028.9861499564	0.6781005859375
19029.9861499539	0.6793212890625
19030.9861499514	0.68023681640625
19031.9861499489	0.68115234375
19032.9861499463	0.682373046875
19033.9861499438	0.68328857421875
19034.9861499413	0.68450927734375
19035.9861499388	0.6854248046875
19036.9861499362	0.68634033203125
19037.9861499337	0.68756103515625
19038.9861499312	0.6884765625
19039.9861499287	0.68939208984375
19040.9861499261	0.6903076171875
19041.9861499236	0.69122314453125
19042.9861499211	0.69183349609375
19043.9861499186	0.6927490234375
19044.986149916	0.69366455078125
19045.9861499135	0.69427490234375
19046.986149911	0.6951904296875
19047.9861499085	0.69610595703125
19048.9861499059	0.69671630859375
19049.9861499034	0.6976318359375
19050.9861499009	0.69854736328125
19051.9861498984	0.699462890625
19052.9861498958	0.70037841796875
19053.9861498933	0.7012939453125
19054.9861498908	0.70220947265625
19055.9861498883	0.703125
19056.9861498857	0.7037353515625
19057.9861498832	0.70465087890625
19058.9861498807	0.70556640625
19059.9861498782	0.70648193359375
19060.9861498756	0.7073974609375
19061.9861498731	0.7080078125
19062.9861498706	0.70892333984375
19063.9861498681	0.70953369140625
19064.9861498655	0.71044921875
19065.986149863	0.71136474609375
19066.9861498605	0.71197509765625
19067.986149858	0.712890625
19068.9861498554	0.71441650390625
19069.9861498529	0.7147216796875
19070.9861498504	0.7159423828125
19071.9861498479	0.716552734375
19072.9861498453	0.71746826171875
19073.9861498428	0.71807861328125
19074.9861498403	0.718994140625
19075.9861498378	0.71990966796875
19076.9861498352	0.72052001953125
19077.9861498327	0.721435546875
19078.9861498302	0.7220458984375
19079.9861498277	0.72296142578125
19080.9861498251	0.72357177734375
19081.9861498226	0.723876953125
19082.9861498201	0.72509765625
19083.9861498176	0.726318359375
19084.986149815	0.7269287109375
19085.9861498125	0.72784423828125
19086.98614981	0.728759765625
19087.9861498075	0.72967529296875
19088.9861498049	0.73028564453125
19089.9861498024	0.731201171875
19090.9861497999	0.73211669921875
19091.9861497974	0.73272705078125
19092.9861497948	0.733642578125
19093.9861497923	0.73455810546875
19094.9861497898	0.7354736328125
19095.9861497873	0.73638916015625
19096.9861497847	0.73699951171875
19097.9861497822	0.7379150390625
19098.9861497797	0.738525390625
19099.9861497772	0.7391357421875
19100.9861497746	0.74005126953125
19101.9861497721	0.74066162109375
19102.9861497696	0.7415771484375
19103.9861497671	0.7421875
19104.9861497645	0.74310302734375
19105.986149762	0.7440185546875
19106.9861497595	0.74462890625
19107.986149757	0.74554443359375
19108.9861497544	0.74615478515625
19109.9861497519	0.7470703125
19110.9861497494	0.74798583984375
19111.9861497469	0.7489013671875
19112.9861497443	0.74951171875
19113.9861497418	0.75042724609375
19114.9861497393	0.7513427734375
19115.9861497368	0.75225830078125
19116.9861497342	0.753173828125
19117.9861497317	0.7537841796875
19118.9861497292	0.75439453125
19119.9861497267	0.75531005859375
19120.9861497242	0.75592041015625
19121.9861497216	0.7568359375
19122.9861497191	0.75775146484375
19123.9861497166	0.7586669921875
19124.9861497141	0.75897216796875
19125.9861497115	0.75958251953125
19126.986149709	0.76019287109375
19127.9861497065	0.7611083984375
19128.986149704	0.76171875
19129.9861497014	0.76263427734375
19130.9861496989	0.7635498046875
19131.9861496964	0.76446533203125
19132.9861496939	0.76507568359375
19133.9861496913	0.76568603515625
19134.9861496888	0.7666015625
19135.9861496863	0.76751708984375
19136.9861496838	0.76812744140625
19137.9861496812	0.76904296875
19138.9861496787	0.7696533203125
19139.9861496762	0.77056884765625
19140.9861496737	0.771484375
19141.9861496711	0.77239990234375
19142.9861496686	0.77301025390625
19143.9861496661	0.77392578125
19144.9861496636	0.7745361328125
19145.986149661	0.77545166015625
19146.9861496585	0.7763671875
19147.986149656	0.7769775390625
19148.9861496535	0.777587890625
19149.9861496509	0.77850341796875
19150.9861496484	0.77911376953125
19151.9861496459	0.780029296875
19152.9861496434	0.7806396484375
19153.9861496408	0.78125
19154.9861496383	0.7818603515625
19155.9861496358	0.782470703125
19156.9861496333	0.7830810546875
19157.9861496307	0.78399658203125
19158.9861496282	0.78460693359375
19159.9861496257	0.7855224609375
19160.9861496232	0.7861328125
19161.9861496206	0.78704833984375
19162.9861496181	0.78765869140625
19163.9861496156	0.7879638671875
19164.9861496131	0.78887939453125
19165.9861496105	0.78948974609375
19166.986149608	0.79010009765625
19167.9861496055	0.791015625
19168.986149603	0.79193115234375
19169.9861496004	0.7928466796875
19170.9861495979	0.79345703125
19171.9861495954	0.79376220703125
19172.9861495929	0.794677734375
19173.9861495903	0.7952880859375
19174.9861495878	0.79620361328125
19175.9861495853	0.79681396484375
19176.9861495828	0.79742431640625
19177.9861495802	0.7977294921875
19178.9861495777	0.79833984375
19179.9861495752	0.79925537109375
19180.9861495727	0.8001708984375
19181.9861495701	0.80078125
19182.9861495676	0.80169677734375
19183.9861495651	0.80230712890625
19184.9861495626	0.80322265625
19185.98614956	0.80413818359375
19186.9861495575	0.80474853515625
19187.986149555	0.80535888671875
19188.9861495525	0.80596923828125
19189.9861495499	0.806884765625
19190.9861495474	0.8074951171875
19191.9861495449	0.80841064453125
19192.9861495424	0.80902099609375
19193.9861495398	0.80963134765625
19194.9861495373	0.810546875
19195.9861495348	0.81085205078125
19196.9861495323	0.811767578125
19197.9861495297	0.8123779296875
19198.9861495272	0.81298828125
19199.9861495247	0.81390380859375
19200.9861495222	0.81451416015625
19201.9861495196	0.81512451171875
19202.9861495171	0.81573486328125
19203.9861495146	0.816650390625
19204.9861495121	0.81695556640625
19205.9861495095	0.81787109375
19206.986149507	0.8184814453125
19207.9861495045	0.819091796875
19208.986149502	0.8197021484375
19209.9861494994	0.8203125
19210.9861494969	0.82122802734375
19211.9861494944	0.8221435546875
19212.9861494919	0.82275390625
19213.9861494893	0.8233642578125
19214.9861494868	0.823974609375
19215.9861494843	0.8245849609375
19216.9861494818	0.82550048828125
19217.9861494792	0.82611083984375
19218.9861494767	0.8270263671875
19219.9861494742	0.82763671875
19220.9861494717	0.8282470703125
19221.9861494692	0.828857421875
19222.9861494666	0.8294677734375
19223.9861494641	0.830078125
19224.9861494616	0.83099365234375
19225.9861494591	0.83160400390625
19226.9861494565	0.8319091796875
19227.986149454	0.83282470703125
19228.9861494515	0.83343505859375
19229.986149449	0.8343505859375
19230.9861494464	0.8349609375
19231.9861494439	0.8355712890625
19232.9861494414	0.836181640625
19233.9861494389	0.83709716796875
19234.9861494363	0.83770751953125
19235.9861494338	0.838623046875
19236.9861494313	0.8392333984375
19237.9861494288	0.83984375
19238.9861494262	0.84075927734375
19239.9861494237	0.841064453125
19240.9861494212	0.8416748046875
19241.9861494187	0.84259033203125
19242.9861494161	0.8428955078125
19243.9861494136	0.84381103515625
19244.9861494111	0.84442138671875
19245.9861494086	0.84503173828125
19246.986149406	0.8453369140625
19247.9861494035	0.84625244140625
19248.986149401	0.84686279296875
19249.9861493985	0.8477783203125
19250.9861493959	0.848388671875
19251.9861493934	0.8489990234375
19252.9861493909	0.849609375
19253.9861493884	0.85052490234375
19254.9861493858	0.850830078125
19255.9861493833	0.8514404296875
19256.9861493808	0.85235595703125
19257.9861493783	0.8526611328125
19258.9861493757	0.85357666015625
19259.9861493732	0.85418701171875
19260.9861493707	0.8551025390625
19261.9861493682	0.855712890625
19262.9861493656	0.8563232421875
19263.9861493631	0.85693359375
19264.9861493606	0.8575439453125
19265.9861493581	0.858154296875
19266.9861493555	0.8587646484375
19267.986149353	0.859375
19268.9861493505	0.8599853515625
19269.986149348	0.860595703125
19270.9861493454	0.86090087890625
19271.9861493429	0.86181640625
19272.9861493404	0.8624267578125
19273.9861493379	0.86334228515625
19274.9861493353	0.86395263671875
19275.9861493328	0.86456298828125
19276.9861493303	0.865478515625
19277.9861493278	0.8660888671875
19278.9861493252	0.86669921875
19279.9861493227	0.86761474609375
19280.9861493202	0.86822509765625
19281.9861493177	0.869140625
19282.9861493151	0.8697509765625
19283.9861493126	0.870361328125
19284.9861493101	0.8709716796875
19285.9861493076	0.87158203125
19286.986149305	0.8721923828125
19287.9861493025	0.87310791015625
19288.9861493	0.87371826171875
19289.9861492975	0.8740234375
19290.9861492949	0.8746337890625
19291.9861492924	0.87554931640625
19292.9861492899	0.87615966796875
19293.9861492874	0.87677001953125
19294.9861492848	0.87738037109375
19295.9861492823	0.87799072265625
19296.9861492798	0.8782958984375
19297.9861492773	0.8795166015625
19298.9861492747	0.880126953125
19299.9861492722	0.8807373046875
19300.9861492697	0.88134765625
19301.9861492672	0.88165283203125
19302.9861492646	0.882568359375
19303.9861492621	0.8831787109375
19304.9861492596	0.8837890625
19305.9861492571	0.88470458984375
19306.9861492545	0.88531494140625
19307.986149252	0.88592529296875
19308.9861492495	0.88653564453125
19309.986149247	0.88714599609375
19310.9861492444	0.8880615234375
19311.9861492419	0.88836669921875
19312.9861492394	0.88897705078125
19313.9861492369	0.88958740234375
19314.9861492343	0.89019775390625
19315.9861492318	0.89080810546875
19316.9861492293	0.89141845703125
19317.9861492268	0.892333984375
19318.9861492242	0.8929443359375
19319.9861492217	0.89324951171875
19320.9861492192	0.8941650390625
19321.9861492167	0.894775390625
19322.9861492141	0.8953857421875
19323.9861492116	0.89599609375
19324.9861492091	0.8966064453125
19325.9861492066	0.897216796875
19326.9861492041	0.8978271484375
19327.9861492015	0.8984375
19328.986149199	0.8990478515625
19329.9861491965	0.899658203125
19330.986149194	0.9002685546875
19331.9861491914	0.90087890625
19332.9861491889	0.9014892578125
19333.9861491864	0.902099609375
19334.9861491839	0.9027099609375
19335.9861491813	0.90301513671875
19336.9861491788	0.9039306640625
19337.9861491763	0.90423583984375
19338.9861491738	0.90484619140625
19339.9861491712	0.90545654296875
19340.9861491687	0.90606689453125
19341.9861491662	0.90667724609375
19342.9861491637	0.90728759765625
19343.9861491611	0.90789794921875
19344.9861491586	0.908203125
19345.9861491561	0.9088134765625
19346.9861491536	0.90972900390625
19347.986149151	0.91033935546875
19348.9861491485	0.91064453125
19349.986149146	0.91156005859375
19350.9861491435	0.91217041015625
19351.9861491409	0.91278076171875
19352.9861491384	0.91339111328125
19353.9861491359	0.9136962890625
19354.9861491334	0.914306640625
19355.9861491308	0.9149169921875
19356.9861491283	0.91583251953125
19357.9861491258	0.9161376953125
19358.9861491233	0.916748046875
19359.9861491207	0.9173583984375
19360.9861491182	0.91796875
19361.9861491157	0.91888427734375
19362.9861491132	0.919189453125
19363.9861491106	0.91949462890625
19364.9861491081	0.92010498046875
19365.9861491056	0.92071533203125
19366.9861491031	0.92132568359375
19367.9861491005	0.92193603515625
19368.986149098	0.92254638671875
19369.9861490955	0.92315673828125
19370.986149093	0.92376708984375
19371.9861490904	0.92437744140625
19372.9861490879	0.92498779296875
19373.9861490854	0.92529296875
19374.9861490829	0.92620849609375
19375.9861490803	0.926513671875
19376.9861490778	0.9271240234375
19377.9861490753	0.92742919921875
19378.9861490728	0.92803955078125
19379.9861490702	0.92864990234375
19380.9861490677	0.928955078125
19381.9861490652	0.92987060546875
19382.9861490627	0.93017578125
19383.9861490601	0.9307861328125
19384.9861490576	0.931396484375
19385.9861490551	0.93170166015625
19386.9861490526	0.93231201171875
19387.98614905	0.93292236328125
19388.9861490475	0.9332275390625
19389.986149045	0.933837890625
19390.9861490425	0.9344482421875
19391.9861490399	0.93536376953125
19392.9861490374	0.93505859375
19393.9861490349	0.936279296875
19394.9861490324	0.93658447265625
19395.9861490298	0.93719482421875
19396.9861490273	0.93780517578125
19397.9861490248	0.9381103515625
19398.9861490223	0.938720703125
19399.9861490197	0.93902587890625
19400.9861490172	0.93963623046875
19401.9861490147	0.94024658203125
19402.9861490122	0.94085693359375
19403.9861490096	0.94146728515625
19404.9861490071	0.9417724609375
19405.9861490046	0.94268798828125
19406.9861490021	0.9429931640625
19407.9861489995	0.943603515625
19408.986148997	0.9442138671875
19409.9861489945	0.94451904296875
19410.986148992	0.94512939453125
19411.9861489894	0.94573974609375
19412.9861489869	0.94635009765625
19413.9861489844	0.94696044921875
19414.9861489819	0.94757080078125
19415.9861489793	0.9478759765625
19416.9861489768	0.948486328125
19417.9861489743	0.9490966796875
19418.9861489718	0.94940185546875
19419.9861489692	0.95001220703125
19420.9861489667	0.95062255859375
19421.9861489642	0.95123291015625
19422.9861489617	0.95184326171875
19423.9861489591	0.95245361328125
19424.9861489566	0.95306396484375
19425.9861489541	0.95367431640625
19426.9861489516	0.9539794921875
19427.9861489491	0.95458984375
19428.9861489465	0.9552001953125
19429.986148944	0.955810546875
19430.9861489415	0.9564208984375
19431.986148939	0.95703125
19432.9861489364	0.95733642578125
19433.9861489339	0.9576416015625
19434.9861489314	0.95855712890625
19435.9861489289	0.95916748046875
19436.9861489263	0.95947265625
19437.9861489238	0.9600830078125
19438.9861489213	0.960693359375
19439.9861489188	0.96099853515625
19440.9861489162	0.96160888671875
19441.9861489137	0.96221923828125
19442.9861489112	0.9625244140625
19443.9861489087	0.96282958984375
19444.9861489061	0.9637451171875
19445.9861489036	0.96405029296875
19446.9861489011	0.96466064453125
19447.9861488986	0.9649658203125
19448.986148896	0.965576171875
19449.9861488935	0.9661865234375
19450.986148891	0.96649169921875
19451.9861488885	0.96710205078125
19452.9861488859	0.96771240234375
19453.9861488834	0.96832275390625
19454.9861488809	0.9686279296875
19455.9861488784	0.96893310546875
19456.9861488758	0.96954345703125
19457.9861488733	0.9698486328125
19458.9861488708	0.97076416015625
19459.9861488683	0.9710693359375
19460.9861488657	0.9716796875
19461.9861488632	0.9722900390625
19462.9861488607	0.97259521484375
