Time (s)	WE(1).Potential (V)
128.669074675142	2.685546875
128.679074675117	2.6861572265625
128.689074675091	2.68585205078125
128.699074675066	2.6861572265625
128.709074675041	2.6861572265625
128.719074675016	2.68646240234375
128.72907467499	2.68646240234375
128.739074674965	2.6861572265625
128.74907467494	2.6861572265625
128.759074674915	2.6861572265625
128.769074674889	2.6861572265625
128.779074674864	2.6861572265625
128.789074674839	2.68585205078125
128.799074674814	2.68585205078125
128.809074674788	2.685546875
128.819074674763	2.68585205078125
128.829074674738	2.68585205078125
128.839074674713	2.6861572265625
128.849074674687	2.685546875
128.859074674662	2.68585205078125
128.869074674637	2.685546875
128.879074674612	2.685546875
128.889074674586	2.685546875
128.899074674561	2.68585205078125
128.909074674536	2.68585205078125
128.919074674511	2.6861572265625
128.929074674485	2.68646240234375
128.93907467446	2.68524169921875
128.949074674435	2.68463134765625
128.95907467441	2.685546875
128.969074674384	2.685546875
128.979074674359	2.68585205078125
128.989074674334	2.68646240234375
128.999074674309	2.686767578125
129.009074674283	2.68707275390625
129.019074674258	2.6873779296875
129.029074674233	2.6873779296875
129.039074674208	2.6873779296875
129.049074674182	2.68768310546875
129.059074674157	2.68768310546875
129.069074674132	2.6873779296875
129.079074674107	2.68768310546875
129.089074674081	2.68768310546875
129.099074674056	2.6873779296875
129.109074674031	2.68798828125
129.119074674006	2.68798828125
129.12907467398	2.68798828125
129.139074673955	2.68707275390625
129.14907467393	2.6873779296875
129.159074673905	2.6873779296875
129.169074673879	2.6873779296875
129.179074673854	2.6873779296875
129.189074673829	2.68707275390625
129.199074673804	2.68707275390625
129.209074673778	2.6873779296875
129.219074673753	2.68707275390625
129.229074673728	2.68707275390625
129.239074673703	2.686767578125
129.249074673677	2.68646240234375
129.259074673652	2.6861572265625
129.269074673627	2.68646240234375
129.279074673602	2.686767578125
129.289074673576	2.6873779296875
129.299074673551	2.68707275390625
129.309074673526	2.686767578125
129.319074673501	2.686767578125
129.329074673475	2.68646240234375
129.33907467345	2.686767578125
129.349074673425	2.68646240234375
129.3590746734	2.68646240234375
129.369074673374	2.686767578125
129.379074673349	2.68707275390625
129.389074673324	2.68646240234375
129.399074673299	2.68646240234375
129.409074673273	2.686767578125
129.419074673248	2.68707275390625
129.429074673223	2.686767578125
129.439074673198	2.68646240234375
129.449074673173	2.68646240234375
129.459074673147	2.68585205078125
129.469074673122	2.685546875
129.479074673097	2.685546875
129.489074673072	2.6849365234375
129.499074673046	2.6849365234375
129.509074673021	2.68524169921875
129.519074672996	2.685546875
129.529074672971	2.68524169921875
129.539074672945	2.685546875
129.54907467292	2.685546875
129.559074672895	2.68524169921875
129.56907467287	2.685546875
129.579074672844	2.68524169921875
129.589074672819	2.6849365234375
129.599074672794	2.68463134765625
129.609074672769	2.6849365234375
129.619074672743	2.6849365234375
129.629074672718	2.68524169921875
129.639074672693	2.68524169921875
129.649074672668	2.6849365234375
129.659074672642	2.68524169921875
129.669074672617	2.68707275390625
129.679074672592	2.686767578125
129.689074672567	2.6861572265625
129.699074672541	2.68646240234375
129.709074672516	2.68646240234375
129.719074672491	2.68646240234375
129.729074672466	2.68646240234375
129.73907467244	2.68646240234375
129.749074672415	2.68646240234375
129.75907467239	2.685546875
129.769074672365	2.6861572265625
129.779074672339	2.68585205078125
129.789074672314	2.68707275390625
129.799074672289	2.68707275390625
129.809074672264	2.68707275390625
129.819074672238	2.68707275390625
129.829074672213	2.68707275390625
129.839074672188	2.68707275390625
129.849074672163	2.686767578125
129.859074672137	2.68646240234375
129.869074672112	2.6861572265625
129.879074672087	2.6861572265625
129.889074672062	2.68585205078125
129.899074672036	2.68646240234375
129.909074672011	2.686767578125
129.919074671986	2.68707275390625
129.929074671961	2.68707275390625
129.939074671935	2.6873779296875
129.94907467191	2.6873779296875
129.959074671885	2.6873779296875
129.96907467186	2.68768310546875
129.979074671834	2.68798828125
129.989074671809	2.68798828125
129.999074671784	2.68829345703125
130.009074671759	2.6873779296875
130.019074671733	2.6873779296875
130.029074671708	2.68707275390625
130.039074671683	2.6873779296875
130.049074671658	2.6873779296875
130.059074671632	2.6873779296875
130.069074671607	2.686767578125
130.079074671582	2.6861572265625
130.089074671557	2.686767578125
130.099074671531	2.6873779296875
130.109074671506	2.68768310546875
130.119074671481	2.68798828125
130.129074671456	2.68829345703125
130.13907467143	2.68768310546875
130.149074671405	2.68768310546875
130.15907467138	2.68768310546875
130.169074671355	2.6885986328125
130.179074671329	2.68798828125
130.189074671304	2.6885986328125
130.199074671279	2.6885986328125
130.209074671254	2.68798828125
130.219074671228	2.68768310546875
130.229074671203	2.68798828125
130.239074671178	2.6885986328125
130.249074671153	2.689208984375
130.259074671127	2.689208984375
130.269074671102	2.68890380859375
130.279074671077	2.68890380859375
130.289074671052	2.69012451171875
130.299074671026	2.69012451171875
130.309074671001	2.69012451171875
130.319074670976	2.68951416015625
130.329074670951	2.68890380859375
130.339074670925	2.68890380859375
130.3490746709	2.689208984375
130.359074670875	2.68890380859375
130.36907467085	2.68890380859375
130.379074670824	2.68890380859375
130.389074670799	2.68890380859375
130.399074670774	2.689208984375
130.409074670749	2.689208984375
130.419074670723	2.68890380859375
130.429074670698	2.689208984375
130.439074670673	2.68890380859375
130.449074670648	2.6885986328125
130.459074670622	2.68890380859375
130.469074670597	2.6873779296875
130.479074670572	2.6873779296875
130.489074670547	2.6873779296875
130.499074670522	2.68768310546875
130.509074670496	2.6873779296875
130.519074670471	2.68768310546875
130.529074670446	2.6873779296875
130.539074670421	2.6873779296875
130.549074670395	2.686767578125
130.55907467037	2.68646240234375
130.569074670345	2.686767578125
130.57907467032	2.686767578125
130.589074670294	2.686767578125
130.599074670269	2.68646240234375
130.609074670244	2.68646240234375
130.619074670219	2.68646240234375
130.629074670193	2.68707275390625
130.639074670168	2.68707275390625
130.649074670143	2.68707275390625
130.659074670118	2.68768310546875
130.669074670092	2.6873779296875
130.679074670067	2.68768310546875
130.689074670042	2.68829345703125
130.699074670017	2.68798828125
130.709074669991	2.68890380859375
130.719074669966	2.68768310546875
130.729074669941	2.6873779296875
130.739074669916	2.68768310546875
130.74907466989	2.6873779296875
130.759074669865	2.6873779296875
130.76907466984	2.6873779296875
130.779074669815	2.68707275390625
130.789074669789	2.686767578125
130.799074669764	2.6861572265625
130.809074669739	2.68707275390625
130.819074669714	2.68798828125
130.829074669688	2.6885986328125
130.839074669663	2.68798828125
130.849074669638	2.68798828125
130.859074669613	2.6885986328125
130.869074669587	2.6885986328125
130.879074669562	2.68890380859375
130.889074669537	2.68829345703125
130.899074669512	2.68798828125
130.909074669486	2.68768310546875
130.919074669461	2.68768310546875
130.929074669436	2.68768310546875
130.939074669411	2.68798828125
130.949074669385	2.68798828125
130.95907466936	2.68829345703125
130.969074669335	2.68798828125
130.97907466931	2.68829345703125
130.989074669284	2.68798828125
130.999074669259	2.68768310546875
131.009074669234	2.68798828125
131.019074669209	2.68798828125
131.029074669183	2.68798828125
131.039074669158	2.68829345703125
131.049074669133	2.68798828125
131.059074669108	2.68768310546875
131.069074669082	2.6873779296875
131.079074669057	2.6873779296875
131.089074669032	2.68707275390625
131.099074669007	2.68707275390625
131.109074668981	2.68707275390625
131.119074668956	2.68707275390625
131.129074668931	2.68707275390625
131.139074668906	2.686767578125
131.14907466888	2.686767578125
131.159074668855	2.68707275390625
131.16907466883	2.686767578125
131.179074668805	2.68707275390625
131.189074668779	2.686767578125
131.199074668754	2.68646240234375
131.209074668729	2.68646240234375
131.219074668704	2.68707275390625
131.229074668678	2.68707275390625
131.239074668653	2.68646240234375
131.249074668628	2.68646240234375
131.259074668603	2.68646240234375
131.269074668577	2.68646240234375
131.279074668552	2.68646240234375
131.289074668527	2.686767578125
131.299074668502	2.686767578125
131.309074668476	2.685546875
131.319074668451	2.6861572265625
131.329074668426	2.686767578125
131.339074668401	2.686767578125
131.349074668375	2.686767578125
131.35907466835	2.68707275390625
131.369074668325	2.68707275390625
131.3790746683	2.686767578125
131.389074668274	2.686767578125
131.399074668249	2.686767578125
131.409074668224	2.686767578125
131.419074668199	2.68646240234375
131.429074668173	2.68646240234375
131.439074668148	2.68646240234375
131.449074668123	2.6861572265625
131.459074668098	2.6861572265625
131.469074668072	2.6861572265625
131.479074668047	2.6861572265625
131.489074668022	2.6861572265625
131.499074667997	2.68646240234375
131.509074667972	2.68646240234375
131.519074667946	2.68646240234375
131.529074667921	2.686767578125
131.539074667896	2.686767578125
131.549074667871	2.686767578125
131.559074667845	2.686767578125
131.56907466782	2.6873779296875
131.579074667795	2.68707275390625
131.58907466777	2.6873779296875
131.599074667744	2.68707275390625
131.609074667719	2.68798828125
131.619074667694	2.68798828125
131.629074667669	2.68798828125
131.639074667643	2.68768310546875
131.649074667618	2.68768310546875
131.659074667593	2.68798828125
131.669074667568	2.68798828125
131.679074667542	2.68829345703125
131.689074667517	2.68798828125
131.699074667492	2.68829345703125
131.709074667467	2.68798828125
131.719074667441	2.68798828125
131.729074667416	2.68798828125
131.739074667391	2.68829345703125
131.749074667366	2.68829345703125
131.75907466734	2.68829345703125
131.769074667315	2.6885986328125
131.77907466729	2.6885986328125
131.789074667265	2.6885986328125
131.799074667239	2.68798828125
131.809074667214	2.68798828125
131.819074667189	2.68829345703125
131.829074667164	2.68829345703125
131.839074667138	2.68798828125
131.849074667113	2.68798828125
131.859074667088	2.68798828125
131.869074667063	2.68798828125
131.879074667037	2.68798828125
131.889074667012	2.68829345703125
131.899074666987	2.6885986328125
131.909074666962	2.68829345703125
131.919074666936	2.6873779296875
131.929074666911	2.68585205078125
131.939074666886	2.6873779296875
131.949074666861	2.68798828125
131.959074666835	2.6885986328125
131.96907466681	2.6885986328125
131.979074666785	2.6885986328125
131.98907466676	2.689208984375
131.999074666734	2.6885986328125
132.009074666709	2.6885986328125
132.019074666684	2.68890380859375
132.029074666659	2.689208984375
132.039074666633	2.68890380859375
132.049074666608	2.689208984375
132.059074666583	2.689208984375
132.069074666558	2.68890380859375
132.079074666532	2.6885986328125
132.089074666507	2.68829345703125
132.099074666482	2.68798828125
132.109074666457	2.6885986328125
132.119074666431	2.68829345703125
132.129074666406	2.68798828125
132.139074666381	2.6885986328125
132.149074666356	2.68890380859375
132.15907466633	2.6885986328125
132.169074666305	2.6885986328125
132.17907466628	2.68890380859375
132.189074666255	2.6885986328125
132.199074666229	2.6885986328125
132.209074666204	2.68798828125
132.219074666179	2.68798828125
132.229074666154	2.68768310546875
132.239074666128	2.68768310546875
132.249074666103	2.68768310546875
132.259074666078	2.68829345703125
132.269074666053	2.6885986328125
132.279074666027	2.68829345703125
132.289074666002	2.68890380859375
132.299074665977	2.68890380859375
132.309074665952	2.68890380859375
132.319074665926	2.6885986328125
132.329074665901	2.68890380859375
132.339074665876	2.689208984375
132.349074665851	2.68890380859375
132.359074665825	2.68890380859375
132.3690746658	2.68798828125
132.379074665775	2.6885986328125
132.38907466575	2.6898193359375
132.399074665724	2.689208984375
132.409074665699	2.6898193359375
132.419074665674	2.68890380859375
132.429074665649	2.68890380859375
132.439074665623	2.689208984375
132.449074665598	2.68890380859375
132.459074665573	2.6885986328125
132.469074665548	2.6885986328125
132.479074665522	2.68890380859375
132.489074665497	2.6885986328125
132.499074665472	2.68890380859375
132.509074665447	2.689208984375
132.519074665421	2.6898193359375
132.529074665396	2.69012451171875
132.539074665371	2.6898193359375
132.549074665346	2.69012451171875
132.559074665321	2.69134521484375
132.569074665295	2.69134521484375
132.57907466527	2.69134521484375
132.589074665245	2.69134521484375
132.59907466522	2.691650390625
132.609074665194	2.69134521484375
132.619074665169	2.691650390625
132.629074665144	2.69134521484375
132.639074665119	2.69134521484375
132.649074665093	2.69134521484375
132.659074665068	2.69073486328125
132.669074665043	2.6904296875
132.679074665018	2.69073486328125
132.689074664992	2.69073486328125
132.699074664967	2.69073486328125
132.709074664942	2.6904296875
132.719074664917	2.69073486328125
132.729074664891	2.6904296875
132.739074664866	2.69012451171875
132.749074664841	2.6898193359375
132.759074664816	2.6898193359375
132.76907466479	2.69073486328125
132.779074664765	2.69073486328125
132.78907466474	2.69073486328125
132.799074664715	2.6910400390625
132.809074664689	2.6904296875
132.819074664664	2.6904296875
132.829074664639	2.6904296875
132.839074664614	2.6904296875
132.849074664588	2.69073486328125
132.859074664563	2.6904296875
132.869074664538	2.6904296875
132.879074664513	2.6904296875
132.889074664487	2.69012451171875
132.899074664462	2.69012451171875
132.909074664437	2.69012451171875
132.919074664412	2.6898193359375
132.929074664386	2.69073486328125
132.939074664361	2.69012451171875
132.949074664336	2.68829345703125
132.959074664311	2.6885986328125
132.969074664285	2.6885986328125
132.97907466426	2.68829345703125
132.989074664235	2.68829345703125
132.99907466421	2.68890380859375
133.009074664184	2.6885986328125
133.019074664159	2.68890380859375
133.029074664134	2.6885986328125
133.039074664109	2.68768310546875
133.049074664083	2.68798828125
133.059074664058	2.68798828125
133.069074664033	2.6849365234375
133.079074664008	2.68402099609375
133.089074663982	2.684326171875
133.099074663957	2.68402099609375
133.109074663932	2.684326171875
133.119074663907	2.684326171875
133.129074663881	2.684326171875
133.139074663856	2.684326171875
133.149074663831	2.684326171875
133.159074663806	2.68463134765625
133.16907466378	2.68463134765625
133.179074663755	2.684326171875
133.18907466373	2.68463134765625
133.199074663705	2.6849365234375
133.209074663679	2.68524169921875
133.219074663654	2.68524169921875
133.229074663629	2.685546875
133.239074663604	2.685546875
133.249074663578	2.68524169921875
133.259074663553	2.68524169921875
133.269074663528	2.6849365234375
133.279074663503	2.68463134765625
133.289074663477	2.6849365234375
133.299074663452	2.68463134765625
133.309074663427	2.6849365234375
133.319074663402	2.6849365234375
133.329074663376	2.6849365234375
133.339074663351	2.68463134765625
133.349074663326	2.6849365234375
133.359074663301	2.6849365234375
133.369074663275	2.6849365234375
133.37907466325	2.6849365234375
133.389074663225	2.68524169921875
133.3990746632	2.685546875
133.409074663174	2.68585205078125
133.419074663149	2.68585205078125
133.429074663124	2.685546875
133.439074663099	2.685546875
133.449074663073	2.685546875
133.459074663048	2.685546875
133.469074663023	2.68585205078125
133.479074662998	2.6861572265625
133.489074662972	2.68585205078125
133.499074662947	2.6861572265625
133.509074662922	2.68646240234375
133.519074662897	2.68646240234375
133.529074662871	2.68646240234375
133.539074662846	2.68646240234375
133.549074662821	2.68646240234375
133.559074662796	2.68707275390625
133.569074662771	2.68707275390625
133.579074662745	2.68646240234375
133.58907466272	2.68646240234375
133.599074662695	2.6861572265625
133.60907466267	2.6861572265625
133.619074662644	2.68646240234375
133.629074662619	2.6861572265625
133.639074662594	2.68646240234375
133.649074662569	2.6861572265625
133.659074662543	2.6861572265625
