Time (s)	WE(1).Potential (V)
5004.77604936416	0.71014404296875
5005.77604936163	0.70343017578125
5006.77604935911	0.6988525390625
5007.77604935658	0.694580078125
5008.77604935406	0.69122314453125
5009.77604935153	0.68817138671875
5010.77604934901	0.68511962890625
5011.77604934648	0.68267822265625
5012.77604934396	0.68023681640625
5013.77604934143	0.67779541015625
5014.77604933891	0.6756591796875
5015.77604933638	0.67352294921875
5016.77604933386	0.67169189453125
5017.77604933133	0.66986083984375
5018.77604932881	0.66802978515625
5019.77604932628	0.66650390625
5020.77604932376	0.66497802734375
5021.77604932123	0.6634521484375
5022.77604931871	0.66162109375
5023.77604931618	0.660400390625
5024.77604931366	0.65887451171875
5025.77604931114	0.65765380859375
5026.77604930861	0.6561279296875
5027.77604930609	0.6549072265625
5028.77604930356	0.6536865234375
5029.77604930104	0.6524658203125
5030.77604929851	0.65155029296875
5031.77604929599	0.65032958984375
5032.77604929346	0.64910888671875
5033.77604929094	0.648193359375
5034.77604928841	0.64697265625
5035.77604928589	0.64605712890625
5036.77604928336	0.64483642578125
5037.77604928084	0.6439208984375
5038.77604927831	0.64300537109375
5039.77604927579	0.64208984375
5040.77604927326	0.64117431640625
5041.77604927074	0.6402587890625
5042.77604926821	0.63934326171875
5043.77604926569	0.638427734375
5044.77604926317	0.63751220703125
5045.77604926064	0.6365966796875
5046.77604925812	0.635986328125
5047.77604925559	0.63507080078125
5048.77604925307	0.6341552734375
5049.77604925054	0.63323974609375
5050.77604924802	0.63262939453125
5051.77604924549	0.6317138671875
5052.77604924297	0.631103515625
5053.77604924044	0.63018798828125
5054.77604923792	0.62957763671875
5055.77604923539	0.628662109375
5056.77604923287	0.6280517578125
5057.77604923034	0.62713623046875
5058.77604922782	0.62652587890625
5059.77604922529	0.6256103515625
5060.77604922277	0.625
5061.77604922024	0.6243896484375
5062.77604921772	0.623779296875
5063.77604921519	0.6231689453125
5064.77604921267	0.62225341796875
5065.77604921015	0.62164306640625
5066.77604920762	0.62103271484375
5067.7760492051	0.6201171875
5068.77604920257	0.6195068359375
5069.77604920005	0.618896484375
5070.77604919752	0.6182861328125
5071.776049195	0.61767578125
5072.77604919247	0.6170654296875
5073.77604918995	0.616455078125
5074.77604918742	0.61553955078125
5075.7760491849	0.61492919921875
5076.77604918237	0.61431884765625
5077.77604917985	0.61370849609375
5078.77604917732	0.61309814453125
5079.7760491748	0.61279296875
5080.77604917227	0.6121826171875
5081.77604916975	0.61126708984375
5082.77604916722	0.61065673828125
5083.7760491647	0.6103515625
5084.77604916217	0.6097412109375
5085.77604915965	0.609130859375
5086.77604915713	0.6085205078125
5087.7760491546	0.60791015625
5088.77604915208	0.6072998046875
5089.77604914955	0.606689453125
5090.77604914703	0.60638427734375
5091.7760491445	0.60577392578125
5092.77604914198	0.60516357421875
5093.77604913945	0.60455322265625
5094.77604913693	0.60394287109375
5095.7760491344	0.6036376953125
5096.77604913188	0.60302734375
5097.77604912935	0.6024169921875
5098.77604912683	0.60211181640625
5099.7760491243	0.60150146484375
5100.77604912178	0.60089111328125
5101.77604911925	0.60028076171875
5102.77604911673	0.59967041015625
5103.7760491142	0.599365234375
5104.77604911168	0.5987548828125
5105.77604910915	0.59814453125
5106.77604910663	0.59783935546875
5107.77604910411	0.59722900390625
5108.77604910158	0.59661865234375
5109.77604909906	0.59600830078125
5110.77604909653	0.595703125
5111.77604909401	0.5950927734375
5112.77604909148	0.59478759765625
5113.77604908896	0.59417724609375
5114.77604908643	0.59356689453125
5115.77604908391	0.59326171875
5116.77604908138	0.5926513671875
5117.77604907886	0.592041015625
5118.77604907633	0.59173583984375
5119.77604907381	0.59112548828125
5120.77604907128	0.59051513671875
5121.77604906876	0.5902099609375
5122.77604906623	0.589599609375
5123.77604906371	0.58929443359375
5124.77604906118	0.58868408203125
5125.77604905866	0.58807373046875
5126.77604905613	0.5877685546875
5127.77604905361	0.587158203125
5128.77604905109	0.5865478515625
5129.77604904856	0.58624267578125
5130.77604904604	0.58563232421875
5131.77604904351	0.5853271484375
5132.77604904099	0.584716796875
5133.77604903846	0.58441162109375
5134.77604903594	0.58380126953125
5135.77604903341	0.58349609375
5136.77604903089	0.5828857421875
5137.77604902836	0.582275390625
5138.77604902584	0.58197021484375
5139.77604902331	0.58135986328125
5140.77604902079	0.5810546875
5141.77604901826	0.5804443359375
5142.77604901574	0.58013916015625
5143.77604901321	0.579833984375
5144.77604901069	0.5792236328125
5145.77604900816	0.57891845703125
5146.77604900564	0.57861328125
5147.77604900312	0.5780029296875
5148.77604900059	0.57769775390625
5149.77604899807	0.57708740234375
5150.77604899554	0.5767822265625
5151.77604899302	0.576171875
5152.77604899049	0.5755615234375
5153.77604898797	0.57525634765625
5154.77604898544	0.574951171875
5155.77604898292	0.5743408203125
5156.77604898039	0.57403564453125
5157.77604897787	0.57342529296875
5158.77604897534	0.5731201171875
5159.77604897282	0.57281494140625
5160.77604897029	0.57220458984375
5161.77604896777	0.5718994140625
5162.77604896524	0.5712890625
5163.77604896272	0.57098388671875
5164.77604896019	0.5706787109375
5165.77604895767	0.570068359375
5166.77604895514	0.56976318359375
5167.77604895262	0.56915283203125
5168.7760489501	0.56884765625
5169.77604894757	0.5682373046875
5170.77604894505	0.56793212890625
5171.77604894252	0.567626953125
5172.77604894	0.5670166015625
5173.77604893747	0.56671142578125
5174.77604893495	0.56610107421875
5175.77604893242	0.5657958984375
5176.7760489299	0.56549072265625
5177.77604892737	0.56488037109375
5178.77604892485	0.5645751953125
5179.77604892232	0.56396484375
5180.7760489198	0.56365966796875
5181.77604891727	0.5633544921875
5182.77604891475	0.562744140625
5183.77604891222	0.56243896484375
5184.7760489097	0.56182861328125
5185.77604890717	0.5615234375
5186.77604890465	0.56121826171875
5187.77604890212	0.56060791015625
5188.7760488996	0.560302734375
5189.77604889708	0.55999755859375
5190.77604889455	0.55938720703125
5191.77604889203	0.55908203125
5192.7760488895	0.5584716796875
5193.77604888698	0.55816650390625
5194.77604888445	0.557861328125
5195.77604888193	0.55755615234375
5196.7760488794	0.55694580078125
5197.77604887688	0.556640625
5198.77604887435	0.5560302734375
5199.77604887183	0.55572509765625
5200.7760488693	0.555419921875
5201.77604886678	0.5548095703125
5202.77604886425	0.55450439453125
5203.77604886173	0.55419921875
5204.7760488592	0.55389404296875
5205.77604885668	0.55328369140625
5206.77604885415	0.552978515625
5207.77604885163	0.55267333984375
5208.7760488491	0.55206298828125
5209.77604884658	0.5517578125
5210.77604884406	0.55145263671875
5211.77604884153	0.55084228515625
5212.77604883901	0.550537109375
5213.77604883648	0.55023193359375
5214.77604883396	0.54962158203125
5215.77604883143	0.54931640625
5216.77604882891	0.54901123046875
5217.77604882638	0.54840087890625
5218.77604882386	0.548095703125
5219.77604882133	0.54779052734375
5220.77604881881	0.54718017578125
5221.77604881628	0.546875
5222.77604881376	0.54656982421875
5223.77604881123	0.5462646484375
5224.77604880871	0.54595947265625
5225.77604880618	0.545654296875
5226.77604880366	0.54534912109375
5227.77604880113	0.54473876953125
5228.77604879861	0.54443359375
5229.77604879608	0.54412841796875
5230.77604879356	0.5438232421875
5231.77604879104	0.543212890625
5232.77604878851	0.54290771484375
5233.77604878599	0.5426025390625
5234.77604878346	0.5419921875
5235.77604878094	0.54168701171875
5236.77604877841	0.5413818359375
5237.77604877589	0.54107666015625
5238.77604877336	0.54046630859375
5239.77604877084	0.5401611328125
5240.77604876831	0.53985595703125
5241.77604876579	0.53955078125
5242.77604876326	0.5389404296875
5243.77604876074	0.53863525390625
5244.77604875821	0.538330078125
5245.77604875569	0.5377197265625
5246.77604875316	0.53741455078125
5247.77604875064	0.537109375
5248.77604874811	0.53680419921875
5249.77604874559	0.53619384765625
5250.77604874307	0.535888671875
5251.77604874054	0.53558349609375
5252.77604873802	0.5352783203125
5253.77604873549	0.53466796875
5254.77604873297	0.53436279296875
5255.77604873044	0.5340576171875
5256.77604872792	0.53375244140625
5257.77604872539	0.533447265625
5258.77604872287	0.53314208984375
5259.77604872034	0.53253173828125
5260.77604871782	0.5322265625
5261.77604871529	0.53192138671875
5262.77604871277	0.5316162109375
5263.77604871024	0.53131103515625
5264.77604870772	0.53070068359375
5265.77604870519	0.5303955078125
5266.77604870267	0.53009033203125
5267.77604870014	0.52947998046875
5268.77604869762	0.5291748046875
5269.77604869509	0.52886962890625
5270.77604869257	0.528564453125
5271.77604869005	0.52825927734375
5272.77604868752	0.52764892578125
5273.776048685	0.52734375
5274.77604868247	0.52703857421875
5275.77604867995	0.5267333984375
5276.77604867742	0.52642822265625
5277.7760486749	0.52581787109375
5278.77604867237	0.5255126953125
5279.77604866985	0.52520751953125
5280.77604866732	0.52490234375
5281.7760486648	0.52459716796875
5282.77604866227	0.5242919921875
5283.77604865975	0.523681640625
5284.77604865722	0.52337646484375
5285.7760486547	0.5230712890625
5286.77604865217	0.52276611328125
5287.77604864965	0.52215576171875
5288.77604864712	0.5218505859375
5289.7760486446	0.52154541015625
5290.77604864207	0.521240234375
5291.77604863955	0.52093505859375
5292.77604863703	0.52032470703125
5293.7760486345	0.52001953125
5294.77604863198	0.51971435546875
5295.77604862945	0.5194091796875
5296.77604862693	0.518798828125
5297.7760486244	0.51849365234375
5298.77604862188	0.5181884765625
5299.77604861935	0.51788330078125
5300.77604861683	0.517578125
5301.7760486143	0.5169677734375
5302.77604861178	0.51666259765625
5303.77604860925	0.516357421875
5304.77604860673	0.51605224609375
5305.7760486042	0.5157470703125
5306.77604860168	0.51513671875
5307.77604859915	0.51483154296875
5308.77604859663	0.5145263671875
5309.7760485941	0.51422119140625
5310.77604859158	0.513916015625
5311.77604858905	0.5133056640625
5312.77604858653	0.51300048828125
5313.77604858401	0.5126953125
5314.77604858148	0.51239013671875
5315.77604857896	0.5120849609375
5316.77604857643	0.51177978515625
5317.77604857391	0.51116943359375
5318.77604857138	0.5108642578125
5319.77604856886	0.51055908203125
5320.77604856633	0.51025390625
5321.77604856381	0.50994873046875
5322.77604856128	0.5096435546875
5323.77604855876	0.509033203125
5324.77604855623	0.50872802734375
5325.77604855371	0.5084228515625
5326.77604855118	0.50811767578125
5327.77604854866	0.5078125
5328.77604854613	0.5072021484375
5329.77604854361	0.50689697265625
5330.77604854108	0.506591796875
5331.77604853856	0.50628662109375
5332.77604853603	0.5059814453125
5333.77604853351	0.50567626953125
5334.77604853099	0.50506591796875
5335.77604852846	0.50506591796875
5336.77604852594	0.50445556640625
5337.77604852341	0.504150390625
5338.77604852089	0.50384521484375
5339.77604851836	0.5035400390625
5340.77604851584	0.5029296875
5341.77604851331	0.50262451171875
5342.77604851079	0.5023193359375
5343.77604850826	0.50201416015625
5344.77604850574	0.501708984375
5345.77604850321	0.50140380859375
5346.77604850069	0.50079345703125
5347.77604849816	0.50048828125
5348.77604849564	0.50018310546875
5349.77604849311	0.4998779296875
5350.77604849059	0.49957275390625
5351.77604848806	0.499267578125
5352.77604848554	0.498870849609375
5353.77604848302	0.49847412109375
5354.77604848049	0.49822998046875
5355.77604847797	0.497894287109375
5356.77604847544	0.497528076171875
5357.77604847292	0.497161865234375
5358.77604847039	0.496795654296875
5359.77604846787	0.496429443359375
5360.77604846534	0.49603271484375
5361.77604846282	0.495697021484375
5362.77604846029	0.495330810546875
5363.77604845777	0.4949951171875
5364.77604845524	0.494659423828125
5365.77604845272	0.494293212890625
5366.77604845019	0.493927001953125
5367.77604844767	0.49365234375
5368.77604844514	0.4932861328125
5369.77604844262	0.49298095703125
5370.77604844009	0.492706298828125
5371.77604843757	0.4923095703125
5372.77604843504	0.49188232421875
5373.77604843252	0.49151611328125
5374.77604843	0.49127197265625
5375.77604842747	0.490936279296875
5376.77604842495	0.490509033203125
5377.77604842242	0.490142822265625
5378.7760484199	0.4898681640625
5379.77604841737	0.489532470703125
5380.77604841485	0.489227294921875
5381.77604841232	0.4888916015625
5382.7760484098	0.48846435546875
5383.77604840727	0.48809814453125
5384.77604840475	0.487762451171875
5385.77604840222	0.48736572265625
5386.7760483997	0.487030029296875
5387.77604839717	0.486663818359375
5388.77604839465	0.486328125
5389.77604839212	0.4859619140625
5390.7760483896	0.485626220703125
5391.77604838707	0.485260009765625
5392.77604838455	0.484893798828125
5393.77604838202	0.484527587890625
5394.7760483795	0.484283447265625
5395.77604837698	0.483856201171875
5396.77604837445	0.483428955078125
5397.77604837193	0.4581298828125
5398.7760483694	0.457366943359375
5399.77604836688	0.456756591796875
5400.77604836435	0.45623779296875
5401.77604836183	0.455780029296875
5402.7760483593	0.455169677734375
5403.77604835678	0.45477294921875
5404.77604835425	0.45440673828125
5405.77604835173	0.454010009765625
5406.7760483492	0.45361328125
5407.77604834668	0.453155517578125
5408.77604834415	0.452789306640625
5409.77604834163	0.45233154296875
5410.7760483391	0.451934814453125
5411.77604833658	0.45166015625
5412.77604833405	0.4512939453125
5413.77604833153	0.45098876953125
5414.776048329	0.45050048828125
5415.77604832648	0.4501953125
5416.77604832396	0.4498291015625
5417.77604832143	0.449371337890625
5418.77604831891	0.449066162109375
5419.77604831638	0.44866943359375
5420.77604831386	0.448272705078125
5421.77604831133	0.447845458984375
5422.77604830881	0.447540283203125
5423.77604830628	0.447235107421875
5424.77604830376	0.446929931640625
5425.77604830123	0.44659423828125
5426.77604829871	0.446258544921875
5427.77604829618	0.445953369140625
5428.77604829366	0.445587158203125
5429.77604829113	0.445220947265625
5430.77604828861	0.44488525390625
5431.77604828608	0.444427490234375
5432.77604828356	0.4442138671875
5433.77604828103	0.44378662109375
5434.77604827851	0.443511962890625
5435.77604827598	0.445526123046875
5436.77604827346	0.44671630859375
5437.77604827094	0.446441650390625
5438.77604826841	0.4459228515625
5439.77604826589	0.445709228515625
5440.77604826336	0.44525146484375
5441.77604826084	0.44488525390625
5442.77604825831	0.44464111328125
5443.77604825579	0.44427490234375
5444.77604825326	0.443878173828125
5445.77604825074	0.4434814453125
5446.77604824821	0.44317626953125
5447.77604824569	0.44281005859375
5448.77604824316	0.442352294921875
5449.77604824064	0.44219970703125
5450.77604823811	0.441802978515625
5451.77604823559	0.441436767578125
5452.77604823306	0.441131591796875
5453.77604823054	0.440704345703125
5454.77604822801	0.44036865234375
5455.77604822549	0.43994140625
5456.77604822297	0.4395751953125
5457.77604822044	0.4393310546875
5458.77604821792	0.4388427734375
5459.77604821539	0.43853759765625
5460.77604821287	0.438232421875
5461.77604821034	0.438201904296875
5462.77604820782	0.43804931640625
5463.77604820529	0.43780517578125
5464.77604820277	0.437469482421875
5465.77604820024	0.43743896484375
5466.77604819772	0.437225341796875
5467.77604819519	0.436767578125
5468.77604819267	0.436492919921875
5469.77604819014	0.436309814453125
5470.77604818762	0.43621826171875
5471.77604818509	0.43609619140625
5472.77604818257	0.43597412109375
5473.77604818004	0.435943603515625
5474.77604817752	0.435791015625
5475.77604817499	0.435882568359375
5476.77604817247	0.435577392578125
5477.77604816995	0.435394287109375
5478.77604816742	0.4351806640625
5479.7760481649	0.430511474609375
5480.77604816237	0.4310302734375
5481.77604815985	0.43365478515625
5482.77604815732	0.43402099609375
5483.7760481548	0.43658447265625
5484.77604815227	0.449005126953125
5485.77604814975	0.449676513671875
5486.77604814722	0.449920654296875
5487.7760481447	0.44970703125
5488.77604814217	0.4501953125
5489.77604813965	0.449554443359375
5490.77604813712	0.449615478515625
5491.7760481346	0.449493408203125
5492.77604813207	0.449737548828125
5493.77604812955	0.449371337890625
5494.77604812702	0.449249267578125
5495.7760481245	0.44891357421875
5496.77604812197	0.44866943359375
5497.77604811945	0.448577880859375
5498.77604811693	0.424652099609375
5499.7760481144	0.425048828125
5500.77604811188	0.425018310546875
5501.77604810935	0.426605224609375
5502.77604810683	0.42578125
5503.7760481043	0.42681884765625
5504.77604810178	0.439849853515625
5505.77604809925	0.441497802734375
5506.77604809673	0.441680908203125
5507.7760480942	0.442474365234375
5508.77604809168	0.442230224609375
5509.77604808915	0.44256591796875
5510.77604808663	0.442352294921875
5511.7760480841	0.44232177734375
5512.77604808158	0.442169189453125
5513.77604807905	0.442108154296875
5514.77604807653	0.4420166015625
5515.776048074	0.442138671875
5516.77604807148	0.44158935546875
5517.77604806895	0.44171142578125
5518.77604806643	0.441009521484375
5519.77604806391	0.440948486328125
5520.77604806138	0.440887451171875
5521.77604805886	0.440460205078125
5522.77604805633	0.440277099609375
5523.77604805381	0.416778564453125
5524.77604805128	0.416900634765625
5525.77604804876	0.417449951171875
5526.77604804623	0.41973876953125
5527.77604804371	0.420257568359375
5528.77604804118	0.421661376953125
5529.77604803866	0.423065185546875
5530.77604803613	0.423095703125
5531.77604803361	0.4228515625
5532.77604803108	0.4224853515625
5533.77604802856	0.4219970703125
5534.77604802603	0.421905517578125
5535.77604802351	0.42132568359375
5536.77604802098	0.4202880859375
5537.77604801846	0.4173583984375
5538.77604801593	0.418487548828125
5539.77604801341	0.418975830078125
5540.77604801089	0.418701171875
5541.77604800836	0.4188232421875
5542.77604800584	0.418731689453125
5543.77604800331	0.4193115234375
5544.77604800079	0.41876220703125
5545.77604799826	0.41937255859375
5546.77604799574	0.41387939453125
5547.77604799321	0.4141845703125
5548.77604799069	0.413330078125
5549.77604798816	0.41748046875
5550.77604798564	0.4178466796875
5551.77604798311	0.418243408203125
5552.77604798059	0.4178466796875
5553.77604797806	0.417724609375
5554.77604797554	0.41790771484375
5555.77604797301	0.418365478515625
5556.77604797049	0.4178466796875
5557.77604796796	0.426116943359375
5558.77604796544	0.4263916015625
5559.77604796292	0.427276611328125
5560.77604796039	0.4273681640625
5561.77604795787	0.427276611328125
5562.77604795534	0.427154541015625
5563.77604795282	0.427032470703125
5564.77604795029	0.42681884765625
5565.77604794777	0.426544189453125
5566.77604794524	0.426239013671875
5567.77604794272	0.42596435546875
5568.77604794019	0.4256591796875
5569.77604793767	0.425323486328125
5570.77604793514	0.425018310546875
5571.77604793262	0.424713134765625
5572.77604793009	0.42437744140625
5573.77604792757	0.42413330078125
5574.77604792504	0.423858642578125
5575.77604792252	0.423553466796875
5576.77604791999	0.42340087890625
5577.77604791747	0.422882080078125
5578.77604791494	0.4227294921875
5579.77604791242	0.42242431640625
5580.7760479099	0.42193603515625
5581.77604790737	0.4217529296875
5582.77604790485	0.421356201171875
5583.77604790232	0.420989990234375
5584.7760478998	0.420654296875
5585.77604789727	0.420501708984375
5586.77604789475	0.420074462890625
5587.77604789222	0.41973876953125
5588.7760478897	0.419464111328125
5589.77604788717	0.4190673828125
5590.77604788465	0.4188232421875
5591.77604788212	0.41845703125
5592.7760478796	0.41815185546875
5593.77604787707	0.417877197265625
5594.77604787455	0.417633056640625
5595.77604787202	0.417236328125
5596.7760478695	0.416839599609375
5597.77604786697	0.4166259765625
5598.77604786445	0.41619873046875
5599.77604786192	0.415985107421875
5600.7760478594	0.415557861328125
5601.77604785688	0.41558837890625
5602.77604785435	0.41497802734375
5603.77604785183	0.414703369140625
5604.7760478493	0.414459228515625
5605.77604784678	0.41400146484375
5606.77604784425	0.41363525390625
5607.77604784173	0.413299560546875
5608.7760478392	0.4129638671875
5609.77604783668	0.41259765625
5610.77604783415	0.412322998046875
5611.77604783163	0.41229248046875
5612.7760478291	0.411865234375
5613.77604782658	0.411590576171875
5614.77604782405	0.41119384765625
5615.77604782153	0.410736083984375
5616.776047819	0.4105224609375
5617.77604781648	0.410308837890625
5618.77604781395	0.409759521484375
5619.77604781143	0.409515380859375
5620.7760478089	0.40911865234375
5621.77604780638	0.408966064453125
5622.77604780386	0.408477783203125
5623.77604780133	0.40838623046875
5624.77604779881	0.407806396484375
5625.77604779628	0.407562255859375
5626.77604779376	0.407135009765625
5627.77604779123	0.406829833984375
5628.77604778871	0.406585693359375
5629.77604778618	0.40618896484375
5630.77604778366	0.405975341796875
5631.77604778113	0.40557861328125
5632.77604777861	0.4052734375
5633.77604777608	0.405029296875
5634.77604777356	0.404693603515625
5635.77604777103	0.40435791015625
5636.77604776851	0.404083251953125
5637.77604776598	0.40374755859375
5638.77604776346	0.4034423828125
5639.77604776093	0.403106689453125
5640.77604775841	0.40277099609375
5641.77604775588	0.402435302734375
5642.77604775336	0.402130126953125
5643.77604775084	0.40179443359375
5644.77604774831	0.401458740234375
5645.77604774579	0.401214599609375
5646.77604774326	0.40087890625
5647.77604774074	0.4005126953125
5648.77604773821	0.40020751953125
5649.77604773569	0.399871826171875
5650.77604773316	0.399566650390625
5651.77604773064	0.399200439453125
5652.77604772811	0.39892578125
5653.77604772559	0.398590087890625
5654.77604772306	0.398345947265625
5655.77604772054	0.39794921875
5656.77604771801	0.39764404296875
5657.77604771549	0.3973388671875
5658.77604771296	0.397003173828125
5659.77604771044	0.396636962890625
5660.77604770791	0.396331787109375
5661.77604770539	0.396026611328125
5662.77604770287	0.39569091796875
5663.77604770034	0.3953857421875
5664.77604769782	0.39508056640625
5665.77604769529	0.394744873046875
5666.77604769277	0.394439697265625
5667.77604769024	0.39410400390625
5668.77604768772	0.393798828125
5669.77604768519	0.39349365234375
5670.77604768267	0.393218994140625
5671.77604768014	0.392974853515625
5672.77604767762	0.392578125
5673.77604767509	0.39306640625
5674.77604767257	0.392730712890625
5675.77604767004	0.3924560546875
5676.77604766752	0.39215087890625
5677.77604766499	0.391815185546875
5678.77604766247	0.39154052734375
5679.77604765994	0.39117431640625
5680.77604765742	0.390899658203125
5681.77604765489	0.390594482421875
5682.77604765237	0.39031982421875
5683.77604764985	0.3900146484375
5684.77604764732	0.38970947265625
5685.7760476448	0.389404296875
5686.77604764227	0.38909912109375
5687.77604763975	0.388763427734375
5688.77604763722	0.388458251953125
5689.7760476347	0.388092041015625
5690.77604763217	0.386993408203125
5691.77604762965	0.386688232421875
5692.77604762712	0.38641357421875
5693.7760476246	0.386138916015625
5694.77604762207	0.385711669921875
5695.77604761955	0.38543701171875
5696.77604761702	0.385040283203125
5697.7760476145	0.384765625
5698.77604761197	0.384490966796875
5699.77604760945	0.384185791015625
5700.77604760692	0.383819580078125
5701.7760476044	0.383575439453125
5702.77604760187	0.3831787109375
5703.77604759935	0.38287353515625
5704.77604759683	0.382568359375
5705.7760475943	0.38232421875
5706.77604759178	0.381927490234375
5707.77604758925	0.381591796875
5708.77604758673	0.381256103515625
5709.7760475842	0.38092041015625
5710.77604758168	0.380645751953125
5711.77604757915	0.380340576171875
5712.77604757663	0.379974365234375
5713.7760475741	0.379791259765625
5714.77604757158	0.3795166015625
5715.77604756905	0.379119873046875
5716.77604756653	0.37884521484375
5717.776047564	0.37860107421875
5718.77604756148	0.378265380859375
5719.77604755895	0.377960205078125
5720.77604755643	0.377532958984375
5721.7760475539	0.37725830078125
5722.77604755138	0.376953125
5723.77604754885	0.376617431640625
5724.77604754633	0.3763427734375
5725.77604754381	0.37603759765625
5726.77604754128	0.375732421875
5727.77604753876	0.375335693359375
5728.77604753623	0.375030517578125
5729.77604753371	0.374725341796875
5730.77604753118	0.37445068359375
5731.77604752866	0.3741455078125
5732.77604752613	0.37384033203125
5733.77604752361	0.373565673828125
5734.77604752108	0.37310791015625
5735.77604751856	0.37286376953125
5736.77604751603	0.372528076171875
5737.77604751351	0.3721923828125
5738.77604751098	0.371917724609375
5739.77604750846	0.371673583984375
5740.77604750593	0.371307373046875
5741.77604750341	0.3709716796875
5742.77604750088	0.3707275390625
5743.77604749836	0.37042236328125
5744.77604749583	0.370086669921875
5745.77604749331	0.36981201171875
5746.77604749079	0.369415283203125
5747.77604748826	0.369140625
5748.77604748574	0.368804931640625
5749.77604748321	0.368560791015625
5750.77604748069	0.368255615234375
5751.77604747816	0.367889404296875
5752.77604747564	0.367584228515625
5753.77604747311	0.36724853515625
5754.77604747059	0.366912841796875
5755.77604746806	0.3665771484375
5756.77604746554	0.36627197265625
5757.77604746301	0.36602783203125
5758.77604746049	0.3656005859375
5759.77604745796	0.36529541015625
5760.77604745544	0.36492919921875
5761.77604745291	0.364654541015625
5762.77604745039	0.3643798828125
5763.77604744786	0.364013671875
5764.77604744534	0.36370849609375
5765.77604744282	0.363494873046875
5766.77604744029	0.36309814453125
5767.77604743777	0.36279296875
5768.77604743524	0.362396240234375
5769.77604743272	0.36224365234375
5770.77604743019	0.36181640625
5771.77604742767	0.36151123046875
5772.77604742514	0.361236572265625
5773.77604742262	0.36090087890625
5774.77604742009	0.360504150390625
5775.77604741757	0.3602294921875
5776.77604741504	0.359893798828125
5777.77604741252	0.359527587890625
5778.77604740999	0.35919189453125
5779.77604740747	0.358917236328125
5780.77604740494	0.358642578125
5781.77604740242	0.358245849609375
5782.77604739989	0.357940673828125
5783.77604739737	0.35772705078125
5784.77604739484	0.3572998046875
5785.77604739232	0.3570556640625
5786.7760473898	0.35662841796875
5787.77604738727	0.3564453125
5788.77604738475	0.3560791015625
5789.77604738222	0.355743408203125
5790.7760473797	0.35546875
5791.77604737717	0.355194091796875
5792.77604737465	0.35491943359375
5793.77604737212	0.35455322265625
5794.7760473696	0.35430908203125
5795.77604736707	0.3538818359375
5796.77604736455	0.353515625
5797.77604736202	0.353302001953125
5798.7760473595	0.35296630859375
5799.77604735697	0.352630615234375
5800.77604735445	0.35223388671875
5801.77604735192	0.352081298828125
5802.7760473494	0.351654052734375
5803.77604734687	0.35137939453125
5804.77604734435	0.35113525390625
5805.77604734182	0.350860595703125
5806.7760473393	0.3504638671875
5807.77604733678	0.35028076171875
5808.77604733425	0.3499755859375
5809.77604733173	0.34954833984375
5810.7760473292	0.34918212890625
5811.77604732668	0.348846435546875
5812.77604732415	0.348480224609375
5813.77604732163	0.348236083984375
5814.7760473191	0.347869873046875
5815.77604731658	0.347564697265625
5816.77604731405	0.34722900390625
5817.77604731153	0.34698486328125
5818.776047309	0.34661865234375
5819.77604730648	0.346405029296875
5820.77604730395	0.34619140625
5821.77604730143	0.346038818359375
5822.7760472989	0.345550537109375
5823.77604729638	0.34515380859375
5824.77604729385	0.34478759765625
5825.77604729133	0.34454345703125
5826.7760472888	0.344207763671875
5827.77604728628	0.343994140625
5828.77604728376	0.343658447265625
5829.77604728123	0.343292236328125
5830.77604727871	0.34295654296875
5831.77604727618	0.342620849609375
5832.77604727366	0.34246826171875
5833.77604727113	0.342010498046875
5834.77604726861	0.341796875
5835.77604726608	0.34149169921875
5836.77604726356	0.34124755859375
5837.77604726103	0.34088134765625
5838.77604725851	0.34063720703125
5839.77604725598	0.34051513671875
5840.77604725346	0.3399658203125
5841.77604725093	0.339752197265625
5842.77604724841	0.339569091796875
5843.77604724588	0.339263916015625
5844.77604724336	0.338836669921875
5845.77604724083	0.338775634765625
5846.77604723831	0.338226318359375
5847.77604723578	0.337921142578125
5848.77604723326	0.337310791015625
5849.77604723074	0.337249755859375
5850.77604722821	0.33685302734375
5851.77604722569	0.33660888671875
5852.77604722316	0.336151123046875
5853.77604722064	0.335784912109375
5854.77604721811	0.335479736328125
5855.77604721559	0.335205078125
5856.77604721306	0.334869384765625
5857.77604721054	0.3345947265625
5858.77604720801	0.3343505859375
5859.77604720549	0.334259033203125
5860.77604720296	0.333648681640625
5861.77604720044	0.333343505859375
5862.77604719791	0.33306884765625
5863.77604719539	0.33270263671875
5864.77604719286	0.33245849609375
5865.77604719034	0.332244873046875
5866.77604718781	0.33184814453125
5867.77604718529	0.33154296875
5868.77604718277	0.331298828125
5869.77604718024	0.330780029296875
5870.77604717772	0.330596923828125
5871.77604717519	0.33026123046875
5872.77604717267	0.330047607421875
5873.77604717014	0.329559326171875
5874.77604716762	0.329376220703125
5875.77604716509	0.329010009765625
5876.77604716257	0.3287353515625
5877.77604716004	0.328338623046875
5878.77604715752	0.328094482421875
5879.77604715499	0.327789306640625
5880.77604715247	0.327362060546875
5881.77604714994	0.326995849609375
5882.77604714742	0.32684326171875
5883.77604714489	0.326416015625
5884.77604714237	0.32611083984375
5885.77604713984	0.3258056640625
5886.77604713732	0.325592041015625
5887.77604713479	0.325286865234375
5888.77604713227	0.32476806640625
5889.77604712975	0.32440185546875
5890.77604712722	0.324188232421875
5891.7760471247	0.32391357421875
5892.77604712217	0.32354736328125
5893.77604711965	0.323394775390625
5894.77604711712	0.32293701171875
5895.7760471146	0.322662353515625
5896.77604711207	0.3221435546875
5897.77604710955	0.321868896484375
5898.77604710702	0.321563720703125
5899.7760471045	0.321136474609375
5900.77604710197	0.32086181640625
5901.77604709945	0.320526123046875
5902.77604709692	0.320281982421875
5903.7760470944	0.3199462890625
5904.77604709187	0.31964111328125
5905.77604708935	0.3193359375
5906.77604708682	0.3189697265625
5907.7760470843	0.318603515625
5908.77604708177	0.318359375
5909.77604707925	0.31805419921875
5910.77604707673	0.31768798828125
5911.7760470742	0.317352294921875
5912.77604707168	0.317108154296875
5913.77604706915	0.31683349609375
5914.77604706663	0.316436767578125
5915.7760470641	0.316192626953125
5916.77604706158	0.31585693359375
5917.77604705905	0.315643310546875
5918.77604705653	0.31536865234375
5919.776047054	0.31500244140625
5920.77604705148	0.314788818359375
5921.77604704895	0.31439208984375
5922.77604704643	0.3140869140625
5923.7760470439	0.313629150390625
5924.77604704138	0.313385009765625
5925.77604703885	0.312957763671875
5926.77604703633	0.31268310546875
5927.7760470338	0.31243896484375
5928.77604703128	0.31201171875
5929.77604702875	0.311798095703125
5930.77604702623	0.311492919921875
5931.77604702371	0.3111572265625
5932.77604702118	0.31085205078125
5933.77604701866	0.310546875
5934.77604701613	0.31024169921875
5935.77604701361	0.30987548828125
5936.77604701108	0.309661865234375
5937.77604700856	0.3094482421875
5938.77604700603	0.309112548828125
5939.77604700351	0.308837890625
5940.77604700098	0.30859375
5941.77604699846	0.30828857421875
5942.77604699593	0.3079833984375
5943.77604699341	0.307647705078125
5944.77604699088	0.307342529296875
5945.77604698836	0.307037353515625
5946.77604698583	0.30670166015625
5947.77604698331	0.306396484375
5948.77604698078	0.3060302734375
5949.77604697826	0.3057861328125
5950.77604697573	0.305511474609375
5951.77604697321	0.305206298828125
5952.77604697069	0.304901123046875
5953.77604696816	0.304534912109375
5954.77604696564	0.30419921875
5955.77604696311	0.303863525390625
5956.77604696059	0.3037109375
5957.77604695806	0.303314208984375
5958.77604695554	0.302978515625
5959.77604695301	0.302520751953125
5960.77604695049	0.3021240234375
5961.77604694796	0.3018798828125
5962.77604694544	0.301544189453125
5963.77604694291	0.30126953125
5964.77604694039	0.3009033203125
5965.77604693786	0.300628662109375
5966.77604693534	0.300323486328125
5967.77604693281	0.299957275390625
5968.77604693029	0.2996826171875
5969.77604692776	0.29925537109375
5970.77604692524	0.2989501953125
5971.77604692272	0.298675537109375
5972.77604692019	0.29833984375
5973.77604691767	0.2979736328125
5974.77604691514	0.297637939453125
5975.77604691262	0.29736328125
5976.77604691009	0.297088623046875
5977.77604690757	0.2967529296875
5978.77604690504	0.29644775390625
5979.77604690252	0.296173095703125
5980.77604689999	0.29583740234375
5981.77604689747	0.2955322265625
5982.77604689494	0.295166015625
5983.77604689242	0.294921875
5984.77604688989	0.294586181640625
5985.77604688737	0.29437255859375
5986.77604688484	0.2940673828125
5987.77604688232	0.293701171875
5988.77604687979	0.2933349609375
5989.77604687727	0.29302978515625
5990.77604687474	0.292724609375
5991.77604687222	0.292449951171875
5992.7760468697	0.292144775390625
5993.77604686717	0.291748046875
5994.77604686465	0.291473388671875
5995.77604686212	0.29119873046875
5996.7760468596	0.290863037109375
5997.77604685707	0.29052734375
5998.77604685455	0.290283203125
5999.77604685202	0.2899169921875
6000.7760468495	0.289581298828125
6001.77604684697	0.289276123046875
6002.77604684445	0.2889404296875
6003.77604684192	0.28863525390625
6004.7760468394	0.288360595703125
6005.77604683687	0.2879638671875
6006.77604683435	0.287567138671875
6007.77604683182	0.287322998046875
6008.7760468293	0.2869873046875
6009.77604682677	0.28668212890625
6010.77604682425	0.28643798828125
6011.77604682172	0.28619384765625
6012.7760468192	0.285736083984375
6013.77604681668	0.28546142578125
6014.77604681415	0.285186767578125
6015.77604681163	0.284942626953125
6016.7760468091	0.2845458984375
6017.77604680658	0.284210205078125
6018.77604680405	0.28387451171875
6019.77604680153	0.283538818359375
6020.776046799	0.283203125
6021.77604679648	0.2828369140625
6022.77604679395	0.28253173828125
6023.77604679143	0.2822265625
6024.7760467889	0.281890869140625
6025.77604678638	0.281585693359375
6026.77604678385	0.281341552734375
6027.77604678133	0.281005859375
6028.7760467788	0.280609130859375
6029.77604677628	0.280303955078125
6030.77604677375	0.280029296875
6031.77604677123	0.27972412109375
6032.7760467687	0.279388427734375
6033.77604676618	0.279052734375
6034.77604676366	0.278717041015625
6035.77604676113	0.27838134765625
6036.77604675861	0.278076171875
6037.77604675608	0.27777099609375
6038.77604675356	0.277496337890625
6039.77604675103	0.277130126953125
6040.77604674851	0.27685546875
6041.77604674598	0.27655029296875
6042.77604674346	0.276214599609375
6043.77604674093	0.275909423828125
6044.77604673841	0.275543212890625
6045.77604673588	0.2752685546875
6046.77604673336	0.27496337890625
6047.77604673083	0.274627685546875
6048.77604672831	0.274383544921875
6049.77604672578	0.274078369140625
6050.77604672326	0.27374267578125
6051.77604672073	0.2734375
6052.77604671821	0.27313232421875
6053.77604671568	0.27276611328125
6054.77604671316	0.272369384765625
6055.77604671064	0.2720947265625
6056.77604670811	0.271820068359375
6057.77604670559	0.271453857421875
6058.77604670306	0.271240234375
6059.77604670054	0.27093505859375
6060.77604669801	0.270538330078125
6061.77604669549	0.270263671875
6062.77604669296	0.269989013671875
6063.77604669044	0.269622802734375
6064.77604668791	0.26934814453125
6065.77604668539	0.269012451171875
6066.77604668286	0.268707275390625
6067.77604668034	0.2684326171875
6068.77604667781	0.268096923828125
6069.77604667529	0.267791748046875
6070.77604667276	0.2674560546875
6071.77604667024	0.26715087890625
6072.77604666771	0.2667236328125
6073.77604666519	0.2664794921875
6074.77604666267	0.26611328125
6075.77604666014	0.265777587890625
6076.77604665762	0.265533447265625
6077.77604665509	0.26519775390625
6078.77604665257	0.2647705078125
6079.77604665004	0.26446533203125
6080.77604664752	0.264190673828125
6081.77604664499	0.263885498046875
6082.77604664247	0.2635498046875
6083.77604663994	0.26324462890625
6084.77604663742	0.262908935546875
6085.77604663489	0.262603759765625
6086.77604663237	0.26220703125
6087.77604662984	0.261871337890625
6088.77604662732	0.261627197265625
6089.77604662479	0.26129150390625
6090.77604662227	0.260986328125
6091.77604661974	0.26068115234375
6092.77604661722	0.260345458984375
6093.77604661469	0.260009765625
6094.77604661217	0.259735107421875
6095.77604660965	0.2593994140625
6096.77604660712	0.259002685546875
6097.7760466046	0.25872802734375
6098.77604660207	0.258392333984375
6099.77604659955	0.25811767578125
6100.77604659702	0.257843017578125
6101.7760465945	0.2574462890625
6102.77604659197	0.25714111328125
6103.77604658945	0.256744384765625
6104.77604658692	0.256378173828125
6105.7760465844	0.256134033203125
6106.77604658187	0.255828857421875
6107.77604657935	0.2554931640625
6108.77604657682	0.255157470703125
6109.7760465743	0.2548828125
6110.77604657177	0.254547119140625
6111.77604656925	0.2542724609375
6112.77604656672	0.25396728515625
6113.7760465642	0.253631591796875
6114.77604656167	0.25323486328125
6115.77604655915	0.2528076171875
6116.77604655663	0.2525634765625
6117.7760465541	0.252227783203125
6118.77604655158	0.2518310546875
6119.77604654905	0.251495361328125
6120.77604654653	0.25128173828125
6121.776046544	0.250885009765625
6122.77604654148	0.25067138671875
6123.77604653895	0.250335693359375
6124.77604653643	0.250030517578125
6125.7760465339	0.249725341796875
6126.77604653138	0.2493896484375
6127.77604652885	0.24908447265625
6128.77604652633	0.248779296875
6129.7760465238	0.248382568359375
6130.77604652128	0.248077392578125
6131.77604651875	0.24774169921875
6132.77604651623	0.247406005859375
6133.7760465137	0.2470703125
6134.77604651118	0.246734619140625
6135.77604650865	0.246429443359375
6136.77604650613	0.24615478515625
6137.77604650361	0.24578857421875
6138.77604650108	0.245391845703125
6139.77604649856	0.245086669921875
6140.77604649603	0.2447509765625
6141.77604649351	0.244476318359375
6142.77604649098	0.244110107421875
6143.77604648846	0.243743896484375
6144.77604648593	0.243408203125
6145.77604648341	0.2431640625
6146.77604648088	0.242889404296875
6147.77604647836	0.242584228515625
6148.77604647583	0.2421875
6149.77604647331	0.241851806640625
6150.77604647078	0.2415771484375
6151.77604646826	0.241241455078125
6152.77604646573	0.2408447265625
6153.77604646321	0.240509033203125
6154.77604646068	0.24017333984375
6155.77604645816	0.23980712890625
6156.77604645563	0.23944091796875
6157.77604645311	0.23919677734375
6158.77604645059	0.238739013671875
6159.77604644806	0.238494873046875
6160.77604644554	0.238128662109375
6161.77604644301	0.237884521484375
6162.77604644049	0.237579345703125
6163.77604643796	0.2374267578125
6164.77604643544	0.236968994140625
6165.77604643291	0.236572265625
6166.77604643039	0.23626708984375
6167.77604642786	0.235992431640625
6168.77604642534	0.235626220703125
6169.77604642281	0.235198974609375
6170.77604642029	0.23486328125
6171.77604641776	0.2344970703125
6172.77604641524	0.23419189453125
6173.77604641271	0.233856201171875
6174.77604641019	0.233673095703125
6175.77604640766	0.233367919921875
6176.77604640514	0.232940673828125
6177.77604640262	0.232696533203125
6178.77604640009	0.232269287109375
6179.77604639757	0.23199462890625
6180.77604639504	0.23175048828125
6181.77604639252	0.231353759765625
6182.77604638999	0.230987548828125
6183.77604638747	0.230865478515625
6184.77604638494	0.230712890625
6185.77604638242	0.23046875
6186.77604637989	0.22998046875
6187.77604637737	0.2296142578125
6188.77604637484	0.229217529296875
6189.77604637232	0.228851318359375
6190.77604636979	0.228607177734375
6191.77604636727	0.228363037109375
6192.77604636474	0.227874755859375
6193.77604636222	0.227630615234375
6194.77604635969	0.22735595703125
6195.77604635717	0.2269287109375
6196.77604635464	0.226593017578125
6197.77604635212	0.2261962890625
6198.7760463496	0.2259521484375
6199.77604634707	0.225677490234375
6200.77604634455	0.2252197265625
6201.77604634202	0.2249755859375
6202.7760463395	0.224578857421875
6203.77604633697	0.224334716796875
6204.77604633445	0.22393798828125
6205.77604633192	0.223663330078125
6206.7760463294	0.22314453125
6207.77604632687	0.222900390625
6208.77604632435	0.22259521484375
6209.77604632182	0.222320556640625
6210.7760463193	0.221923828125
6211.77604631677	0.221527099609375
6212.77604631425	0.22125244140625
6213.77604631172	0.220916748046875
6214.7760463092	0.220794677734375
6215.77604630667	0.220245361328125
6216.77604630415	0.21990966796875
6217.77604630162	0.219573974609375
6218.7760462991	0.219207763671875
6219.77604629658	0.219085693359375
6220.77604629405	0.218658447265625
6221.77604629153	0.218231201171875
6222.776046289	0.2178955078125
6223.77604628648	0.21759033203125
6224.77604628395	0.217132568359375
6225.77604628143	0.21685791015625
6226.7760462789	0.216583251953125
6227.77604627638	0.21624755859375
6228.77604627385	0.216064453125
6229.77604627133	0.21575927734375
6230.7760462688	0.21539306640625
6231.77604626628	0.215087890625
6232.77604626375	0.214874267578125
6233.77604626123	0.214447021484375
6234.7760462587	0.214141845703125
6235.77604625618	0.213836669921875
6236.77604625365	0.213531494140625
6237.77604625113	0.213287353515625
6238.7760462486	0.212921142578125
6239.77604624608	0.212677001953125
6240.77604624356	0.21246337890625
6241.77604624103	0.212127685546875
6242.77604623851	0.211700439453125
6243.77604623598	0.211334228515625
6244.77604623346	0.2110595703125
6245.77604623093	0.210784912109375
6246.77604622841	0.210418701171875
6247.77604622588	0.210052490234375
6248.77604622336	0.20977783203125
6249.77604622083	0.20947265625
6250.77604621831	0.209136962890625
6251.77604621578	0.208892822265625
6252.77604621326	0.20849609375
6253.77604621073	0.208099365234375
6254.77604620821	0.207763671875
6255.77604620568	0.2076416015625
6256.77604620316	0.207366943359375
6257.77604620063	0.20703125
6258.77604619811	0.20654296875
6259.77604619558	0.206085205078125
6260.77604619306	0.205841064453125
6261.77604619054	0.205322265625
6262.77604618801	0.2052001953125
6263.77604618549	0.204833984375
6264.77604618296	0.20458984375
6265.77604618044	0.204345703125
6266.77604617791	0.203857421875
6267.77604617539	0.203582763671875
6268.77604617286	0.203521728515625
6269.77604617034	0.203155517578125
6270.77604616781	0.2027587890625
6271.77604616529	0.202545166015625
6272.77604616276	0.202178955078125
6273.77604616024	0.20196533203125
6274.77604615771	0.20172119140625
6275.77604615519	0.2012939453125
6276.77604615266	0.200958251953125
6277.77604615014	0.200592041015625
6278.77604614761	0.200164794921875
6279.77604614509	0.19989013671875
6280.77604614257	0.19952392578125
6281.77604614004	0.199127197265625
6282.77604613752	0.1988525390625
6283.77604613499	0.19842529296875
6284.77604613247	0.1982421875
6285.77604612994	0.197967529296875
6286.77604612742	0.19744873046875
6287.77604612489	0.19708251953125
6288.77604612237	0.19677734375
6289.77604611984	0.196319580078125
6290.77604611732	0.19598388671875
6291.77604611479	0.1956787109375
6292.77604611227	0.19537353515625
6293.77604610974	0.195068359375
6294.77604610722	0.1947021484375
6295.77604610469	0.194366455078125
6296.77604610217	0.19403076171875
6297.77604609964	0.193511962890625
6298.77604609712	0.193115234375
6299.77604609459	0.192779541015625
6300.77604609207	0.19244384765625
6301.77604608955	0.19195556640625
6302.77604608702	0.191741943359375
6303.7760460845	0.191558837890625
6304.77604608197	0.191131591796875
6305.77604607945	0.190673828125
6306.77604607692	0.190460205078125
6307.7760460744	0.190155029296875
6308.77604607187	0.189849853515625
6309.77604606935	0.189483642578125
6310.77604606682	0.18902587890625
6311.7760460643	0.18865966796875
6312.77604606177	0.18829345703125
6313.77604605925	0.18804931640625
6314.77604605672	0.187713623046875
6315.7760460542	0.1873779296875
6316.77604605167	0.18719482421875
6317.77604604915	0.18701171875
6318.77604604662	0.1866455078125
6319.7760460441	0.18646240234375
6320.77604604157	0.18603515625
6321.77604603905	0.185760498046875
6322.77604603653	0.185333251953125
6323.776046034	0.18499755859375
6324.77604603148	0.18463134765625
6325.77604602895	0.184295654296875
6326.77604602643	0.183868408203125
6327.7760460239	0.18353271484375
6328.77604602138	0.183197021484375
6329.77604601885	0.182952880859375
6330.77604601633	0.1826171875
6331.7760460138	0.182342529296875
6332.77604601128	0.1820068359375
6333.77604600875	0.181640625
6334.77604600623	0.181396484375
6335.7760460037	0.180999755859375
6336.77604600118	0.180633544921875
6337.77604599865	0.180328369140625
6338.77604599613	0.179931640625
6339.7760459936	0.1795654296875
6340.77604599108	0.1793212890625
6341.77604598855	0.179046630859375
6342.77604598603	0.178497314453125
6343.77604598351	0.17816162109375
6344.77604598098	0.177825927734375
6345.77604597846	0.1773681640625
6346.77604597593	0.17706298828125
6347.77604597341	0.1767578125
6348.77604597088	0.176422119140625
6349.77604596836	0.1761474609375
6350.77604596583	0.17578125
6351.77604596331	0.175323486328125
6352.77604596078	0.175079345703125
6353.77604595826	0.174774169921875
6354.77604595573	0.17437744140625
6355.77604595321	0.17401123046875
6356.77604595068	0.17376708984375
6357.77604594816	0.1734619140625
6358.77604594563	0.17303466796875
6359.77604594311	0.172882080078125
6360.77604594058	0.1724853515625
6361.77604593806	0.17218017578125
6362.77604593553	0.171844482421875
6363.77604593301	0.17138671875
6364.77604593049	0.170989990234375
6365.77604592796	0.170623779296875
6366.77604592544	0.17041015625
6367.77604592291	0.169952392578125
6368.77604592039	0.1695556640625
6369.77604591786	0.1693115234375
6370.77604591534	0.169097900390625
6371.77604591281	0.16876220703125
6372.77604591029	0.16839599609375
6373.77604590776	0.16802978515625
6374.77604590524	0.1676025390625
6375.77604590271	0.167327880859375
6376.77604590019	0.166961669921875
6377.77604589766	0.166595458984375
6378.77604589514	0.16619873046875
6379.77604589261	0.16571044921875
6380.77604589009	0.16522216796875
6381.77604588756	0.1649169921875
6382.77604588504	0.164642333984375
6383.77604588252	0.164337158203125
6384.77604587999	0.16387939453125
6385.77604587747	0.16357421875
6386.77604587494	0.16326904296875
6387.77604587242	0.162811279296875
6388.77604586989	0.16241455078125
6389.77604586737	0.16217041015625
6390.77604586484	0.161834716796875
6391.77604586232	0.161529541015625
6392.77604585979	0.161285400390625
6393.77604585727	0.16094970703125
6394.77604585474	0.16046142578125
6395.77604585222	0.160125732421875
6396.77604584969	0.1597900390625
6397.77604584717	0.159454345703125
6398.77604584464	0.1590576171875
6399.77604584212	0.1588134765625
6400.77604583959	0.158477783203125
6401.77604583707	0.1580810546875
6402.77604583454	0.157745361328125
6403.77604583202	0.157318115234375
6404.7760458295	0.15704345703125
6405.77604582697	0.15667724609375
6406.77604582445	0.1563720703125
6407.77604582192	0.156097412109375
6408.7760458194	0.155792236328125
6409.77604581687	0.1553955078125
6410.77604581435	0.155120849609375
6411.77604581182	0.154815673828125
6412.7760458093	0.154388427734375
6413.77604580677	0.154052734375
6414.77604580425	0.15374755859375
6415.77604580172	0.153289794921875
6416.7760457992	0.153045654296875
6417.77604579667	0.152679443359375
6418.77604579415	0.15252685546875
6419.77604579162	0.15191650390625
6420.7760457891	0.151580810546875
6421.77604578657	0.15130615234375
6422.77604578405	0.150848388671875
6423.77604578152	0.150543212890625
6424.776045779	0.150177001953125
6425.77604577648	0.149810791015625
6426.77604577395	0.1494140625
6427.77604577143	0.149200439453125
6428.7760457689	0.14886474609375
6429.77604576638	0.148468017578125
6430.77604576385	0.148162841796875
6431.77604576133	0.147735595703125
6432.7760457588	0.147491455078125
6433.77604575628	0.147125244140625
6434.77604575375	0.146759033203125
6435.77604575123	0.146484375
6436.7760457487	0.146026611328125
6437.77604574618	0.145660400390625
6438.77604574365	0.14532470703125
6439.77604574113	0.144989013671875
6440.7760457386	0.14471435546875
6441.77604573608	0.144256591796875
6442.77604573355	0.14385986328125
6443.77604573103	0.14361572265625
6444.7760457285	0.14324951171875
6445.77604572598	0.142822265625
6446.77604572346	0.142547607421875
6447.77604572093	0.1422119140625
6448.77604571841	0.141845703125
6449.77604571588	0.1414794921875
6450.77604571336	0.141082763671875
6451.77604571083	0.140716552734375
6452.77604570831	0.140380859375
6453.77604570578	0.14013671875
6454.77604570326	0.139801025390625
6455.77604570073	0.139495849609375
6456.77604569821	0.139251708984375
6457.77604569568	0.138916015625
6458.77604569316	0.1385498046875
6459.77604569063	0.138214111328125
6460.77604568811	0.13787841796875
6461.77604568558	0.137542724609375
6462.77604568306	0.137237548828125
6463.77604568053	0.13677978515625
6464.77604567801	0.13653564453125
6465.77604567548	0.13616943359375
6466.77604567296	0.135833740234375
6467.77604567044	0.135467529296875
6468.77604566791	0.135101318359375
6469.77604566539	0.134765625
6470.77604566286	0.1343994140625
6471.77604566034	0.13397216796875
6472.77604565781	0.13360595703125
6473.77604565529	0.13323974609375
6474.77604565276	0.132904052734375
6475.77604565024	0.132537841796875
6476.77604564771	0.132171630859375
6477.77604564519	0.1318359375
6478.77604564266	0.13153076171875
6479.77604564014	0.131195068359375
6480.77604563761	0.130859375
6481.77604563509	0.1304931640625
6482.77604563256	0.130126953125
6483.77604563004	0.12969970703125
6484.77604562751	0.129302978515625
6485.77604562499	0.128997802734375
6486.77604562247	0.128662109375
6487.77604561994	0.128326416015625
6488.77604561742	0.1280517578125
6489.77604561489	0.12774658203125
6490.77604561237	0.1273193359375
6491.77604560984	0.126922607421875
6492.77604560732	0.126617431640625
6493.77604560479	0.126220703125
6494.77604560227	0.1258544921875
6495.77604559974	0.12542724609375
6496.77604559722	0.125091552734375
6497.77604559469	0.12469482421875
6498.77604559217	0.124359130859375
6499.77604558964	0.123992919921875
6500.77604558712	0.123748779296875
6501.77604558459	0.12322998046875
6502.77604558207	0.12286376953125
6503.77604557954	0.122467041015625
6504.77604557702	0.122161865234375
6505.77604557449	0.12176513671875
6506.77604557197	0.121429443359375
6507.77604556945	0.12109375
6508.77604556692	0.1207275390625
6509.7760455644	0.120361328125
6510.77604556187	0.1199951171875
6511.77604555935	0.119659423828125
6512.77604555682	0.119293212890625
6513.7760455543	0.11895751953125
6514.77604555177	0.118560791015625
6515.77604554925	0.1181640625
6516.77604554672	0.117828369140625
6517.7760455442	0.11749267578125
6518.77604554167	0.1171875
6519.77604553915	0.116851806640625
6520.77604553662	0.116455078125
6521.7760455341	0.116119384765625
6522.77604553157	0.1158447265625
6523.77604552905	0.11553955078125
6524.77604552652	0.115234375
6525.776045524	0.114990234375
6526.77604552147	0.1146240234375
6527.77604551895	0.114288330078125
6528.77604551643	0.113922119140625
6529.7760455139	0.1136474609375
6530.77604551138	0.11322021484375
6531.77604550885	0.11285400390625
6532.77604550633	0.112548828125
6533.7760455038	0.1121826171875
6534.77604550128	0.11181640625
6535.77604549875	0.111419677734375
6536.77604549623	0.111083984375
6537.7760454937	0.1107177734375
6538.77604549118	0.1103515625
6539.77604548865	0.110076904296875
6540.77604548613	0.109649658203125
6541.7760454836	0.109344482421875
6542.77604548108	0.108978271484375
6543.77604547855	0.108612060546875
6544.77604547603	0.10833740234375
6545.7760454735	0.107940673828125
6546.77604547098	0.10760498046875
6547.77604546845	0.107208251953125
6548.77604546593	0.10687255859375
6549.77604546341	0.106414794921875
6550.77604546088	0.106048583984375
6551.77604545836	0.105743408203125
6552.77604545583	0.105377197265625
6553.77604545331	0.10504150390625
6554.77604545078	0.104705810546875
6555.77604544826	0.104339599609375
6556.77604544573	0.10394287109375
6557.77604544321	0.103668212890625
6558.77604544068	0.10321044921875
6559.77604543816	0.1029052734375
6560.77604543563	0.102569580078125
6561.77604543311	0.102203369140625
6562.77604543058	0.10186767578125
6563.77604542806	0.101470947265625
6564.77604542553	0.10107421875
6565.77604542301	0.10076904296875
6566.77604542048	0.100372314453125
6567.77604541796	0.0999755859375
6568.77604541543	0.099609375
6569.77604541291	0.099212646484375
6570.77604541039	0.098846435546875
6571.77604540786	0.09844970703125
6572.77604540534	0.097991943359375
6573.77604540281	0.097625732421875
6574.77604540029	0.09722900390625
6575.77604539776	0.09686279296875
6576.77604539524	0.0965576171875
6577.77604539271	0.0960693359375
6578.77604539019	0.095672607421875
6579.77604538766	0.09539794921875
6580.77604538514	0.09503173828125
6581.77604538261	0.0947265625
6582.77604538009	0.09429931640625
6583.77604537756	0.093902587890625
6584.77604537504	0.093597412109375
6585.77604537251	0.093292236328125
6586.77604536999	0.0928955078125
6587.77604536746	0.092559814453125
6588.77604536494	0.09222412109375
6589.77604536242	0.09185791015625
6590.77604535989	0.09149169921875
6591.77604535737	0.09112548828125
6592.77604535484	0.0906982421875
6593.77604535232	0.09039306640625
6594.77604534979	0.09002685546875
6595.77604534727	0.089691162109375
6596.77604534474	0.08935546875
6597.77604534222	0.08905029296875
6598.77604533969	0.088623046875
6599.77604533717	0.088287353515625
6600.77604533464	0.087921142578125
6601.77604533212	0.08758544921875
6602.77604532959	0.0872802734375
6603.77604532707	0.086883544921875
6604.77604532454	0.0865478515625
6605.77604532202	0.08624267578125
6606.77604531949	0.08587646484375
6607.77604531697	0.085540771484375
6608.77604531444	0.0850830078125
6609.77604531192	0.08477783203125
6610.7760453094	0.084197998046875
6611.77604530687	0.083892822265625
6612.77604530435	0.083526611328125
6613.77604530182	0.08319091796875
6614.7760452993	0.0828857421875
6615.77604529677	0.08251953125
6616.77604529425	0.0821533203125
6617.77604529172	0.081817626953125
6618.7760452892	0.08135986328125
6619.77604528667	0.08099365234375
6620.77604528415	0.080596923828125
6621.77604528162	0.080291748046875
6622.7760452791	0.0799560546875
6623.77604527657	0.079620361328125
6624.77604527405	0.079254150390625
6625.77604527152	0.078887939453125
6626.776045269	0.07861328125
6627.77604526647	0.07818603515625
6628.77604526395	0.077911376953125
6629.77604526142	0.0775146484375
6630.7760452589	0.077239990234375
6631.77604525638	0.07684326171875
6632.77604525385	0.0765380859375
6633.77604525133	0.076171875
6634.7760452488	0.075775146484375
6635.77604524628	0.07550048828125
6636.77604524375	0.075103759765625
6637.77604524123	0.07476806640625
6638.7760452387	0.0743408203125
6639.77604523618	0.074005126953125
6640.77604523365	0.073638916015625
6641.77604523113	0.073333740234375
6642.7760452286	0.072998046875
6643.77604522608	0.07257080078125
6644.77604522355	0.07220458984375
6645.77604522103	0.071868896484375
6646.7760452185	0.071533203125
6647.77604521598	0.0711669921875
6648.77604521345	0.07080078125
6649.77604521093	0.0704345703125
6650.7760452084	0.07012939453125
6651.77604520588	0.069732666015625
6652.77604520336	0.06939697265625
6653.77604520083	0.069061279296875
6654.77604519831	0.0687255859375
6655.77604519578	0.068389892578125
6656.77604519326	0.067962646484375
6657.77604519073	0.067596435546875
6658.77604518821	0.067230224609375
6659.77604518568	0.066802978515625
6660.77604518316	0.06646728515625
6661.77604518063	0.066131591796875
6662.77604517811	0.06573486328125
6663.77604517558	0.065399169921875
6664.77604517306	0.0650634765625
6665.77604517053	0.064605712890625
6666.77604516801	0.0643310546875
6667.77604516548	0.063995361328125
6668.77604516296	0.063629150390625
6669.77604516043	0.063262939453125
6670.77604515791	0.062774658203125
6671.77604515538	0.0625
6672.77604515286	0.062042236328125
6673.77604515034	0.061737060546875
6674.77604514781	0.061370849609375
6675.77604514529	0.06109619140625
6676.77604514276	0.061370849609375
6677.77604514024	0.06109619140625
6678.77604513771	0.06060791015625
6679.77604513519	0.060333251953125
6680.77604513266	0.05999755859375
6681.77604513014	0.059661865234375
6682.77604512761	0.059326171875
6683.77604512509	0.05902099609375
6684.77604512256	0.05865478515625
6685.77604512004	0.058319091796875
6686.77604511751	0.057891845703125
6687.77604511499	0.057586669921875
6688.77604511246	0.057220458984375
6689.77604510994	0.056884765625
6690.77604510741	0.056488037109375
6691.77604510489	0.05615234375
6692.77604510237	0.055816650390625
6693.77604509984	0.05548095703125
6694.77604509732	0.055084228515625
6695.77604509479	0.054718017578125
6696.77604509227	0.054290771484375
6697.77604508974	0.053955078125
6698.77604508722	0.05364990234375
6699.77604508469	0.053314208984375
6700.77604508217	0.053009033203125
6701.77604507964	0.052642822265625
6702.77604507712	0.05224609375
6703.77604507459	0.051849365234375
6704.77604507207	0.051483154296875
6705.77604506954	0.05108642578125
6706.77604506702	0.050750732421875
6707.77604506449	0.0504150390625
6708.77604506197	0.050079345703125
6709.77604505944	0.0496734619140625
6710.77604505692	0.049334716796875
6711.77604505439	0.0489898681640625
6712.77604505187	0.0485260009765625
6713.77604504935	0.0482513427734375
6714.77604504682	0.047833251953125
6715.7760450443	0.047576904296875
6716.77604504177	0.047137451171875
6717.77604503925	0.0467529296875
6718.77604503672	0.0463958740234375
6719.7760450342	0.0460479736328125
6720.77604503167	0.0456146240234375
6721.77604502915	0.0452362060546875
6722.77604502662	0.04490966796875
6723.7760450241	0.04454345703125
6724.77604502157	0.044122314453125
6725.77604501905	0.04376220703125
6726.77604501652	0.04344482421875
6727.776045014	0.0430267333984375
6728.77604501147	0.0426849365234375
6729.77604500895	0.042364501953125
6730.77604500642	0.0419769287109375
6731.7760450039	0.0416290283203125
6732.77604500137	0.041265869140625
6733.77604499885	0.0409759521484375
6734.77604499633	0.0405792236328125
6735.7760449938	0.0401214599609375
6736.77604499128	0.0397735595703125
6737.77604498875	0.0394134521484375
6738.77604498623	0.0390472412109375
6739.7760449837	0.038671875
6740.77604498118	0.0383697509765625
6741.77604497865	0.0380157470703125
6742.77604497613	0.0376861572265625
6743.7760449736	0.037261962890625
6744.77604497108	0.036883544921875
6745.77604496855	0.0365386962890625
6746.77604496603	0.0361663818359375
6747.7760449635	0.03577880859375
6748.77604496098	0.03548583984375
6749.77604495845	0.03509521484375
6750.77604495593	0.0347930908203125
6751.7760449534	0.03438720703125
6752.77604495088	0.034124755859375
6753.77604494835	0.0337188720703125
6754.77604494583	0.033380126953125
6755.77604494331	0.03304443359375
6756.77604494078	0.0326751708984375
6757.77604493826	0.032269287109375
6758.77604493573	0.03189697265625
6759.77604493321	0.0315399169921875
6760.77604493068	0.0312225341796875
6761.77604492816	0.03084716796875
6762.77604492563	0.03040771484375
6763.77604492311	0.0300384521484375
6764.77604492058	0.0297027587890625
6765.77604491806	0.0293609619140625
6766.77604491553	0.028948974609375
6767.77604491301	0.028485107421875
6768.77604491048	0.02822265625
6769.77604490796	0.02781982421875
6770.77604490543	0.027471923828125
6771.77604490291	0.027105712890625
6772.77604490038	0.0267333984375
6773.77604489786	0.026373291015625
6774.77604489533	0.026019287109375
6775.77604489281	0.025701904296875
6776.77604489029	0.02528076171875
6777.77604488776	0.02496337890625
6778.77604488524	0.024609375
6779.77604488271	0.0242156982421875
6780.77604488019	0.0237213134765625
6781.77604487766	0.0234771728515625
6782.77604487514	0.0230987548828125
6783.77604487261	0.0227935791015625
6784.77604487009	0.022393798828125
6785.77604486756	0.0220916748046875
6786.77604486504	0.0217742919921875
6787.77604486251	0.0215240478515625
6788.77604485999	0.0211761474609375
6789.77604485746	0.020782470703125
6790.77604485494	0.0204193115234375
6791.77604485241	0.020013427734375
6792.77604484989	0.0197052001953125
6793.77604484736	0.0194366455078125
6794.77604484484	0.019036865234375
6795.77604484232	0.0187164306640625
6796.77604483979	0.0184173583984375
6797.77604483727	0.018060302734375
6798.77604483474	0.01778564453125
6799.77604483222	0.017327880859375
6800.77604482969	0.01688232421875
6801.77604482717	0.0165191650390625
6802.77604482464	0.0161224365234375
6803.77604482212	0.0158660888671875
6804.77604481959	0.015460205078125
6805.77604481707	0.015234375
6806.77604481454	0.01488037109375
6807.77604481202	0.014715576171875
6808.77604480949	0.0143096923828125
6809.77604480697	0.0139495849609375
6810.77604480444	0.013812255859375
6811.77604480192	0.0134124755859375
6812.77604479939	0.01302490234375
6813.77604479687	0.0127166748046875
6814.77604479434	0.0122802734375
6815.77604479182	0.0118316650390625
6816.7760447893	0.0114959716796875
6817.77604478677	0.011212158203125
6818.77604478425	0.0108245849609375
6819.77604478172	0.010626220703125
6820.7760447792	0.0101959228515625
6821.77604477667	0.00998535156249999
6822.77604477415	0.00951232910156249
6823.77604477162	0.00925598144531251
6824.7760447691	0.00885620117187499
6825.77604476657	0.008544921875
6826.77604476405	0.0081756591796875
6827.77604476152	0.00778808593749999
6828.776044759	0.00740661621093749
6829.77604475647	0.00707092285156249
6830.77604475395	0.00667419433593749
6831.77604475142	0.00633544921875
6832.7760447489	0.00614013671874999
6833.77604474637	0.005810546875
6834.77604474385	0.00538024902343751
6835.77604474132	0.0050079345703125
6836.7760447388	0.0046722412109375
6837.77604473628	0.0042877197265625
6838.77604473375	0.00390014648437501
6839.77604473123	0.0035247802734375
6840.7760447287	0.00321350097656251
6841.77604472618	0.00295410156250001
6842.77604472365	0.00258483886718749
6843.77604472113	0.0021636962890625
6844.7760447186	0.00180969238281251
6845.77604471608	0.0014373779296875
6846.77604471355	0.0011260986328125
6847.77604471103	0.000756835937500006
6848.7760447085	0.000469970703125003
6849.77604470598	3.05175781249722E-06
6850.77604470345	-0.000277709960937497
6851.77604470093	-0.000628662109374997
6852.7760446984	-0.000979614257812497
6853.77604469588	-0.00139465332031249
