Time (s)	WE(1).Potential (V)
6857.39848268673	0.380645751953125
6858.39848268421	0.392303466796875
6859.39848268168	0.4012451171875
6860.39848267916	0.4085693359375
6861.39848267663	0.41510009765625
6862.39848267411	0.420928955078125
6863.39848267158	0.426361083984375
6864.39848266906	0.431396484375
6865.39848266653	0.436187744140625
6866.39848266401	0.442962646484375
6867.39848266149	0.447296142578125
6868.39848265896	0.451416015625
6869.39848265644	0.45526123046875
6870.39848265391	0.45904541015625
6871.39848265139	0.462677001953125
6872.39848264886	0.466094970703125
6873.39848264634	0.469573974609375
6874.39848264381	0.472808837890625
6875.39848264129	0.476043701171875
6876.39848263876	0.478912353515625
6877.39848263624	0.481903076171875
6878.39848263371	0.484832763671875
6879.39848263119	0.48748779296875
6880.39848262866	0.490386962890625
6881.39848262614	0.49298095703125
6882.39848262361	0.495452880859375
6883.39848262109	0.49774169921875
6884.39848261856	0.4998779296875
6885.39848261604	0.5023193359375
6886.39848261351	0.5047607421875
6887.39848261099	0.50689697265625
6888.39848260847	0.509033203125
6889.39848260594	0.511474609375
6890.39848260342	0.5133056640625
6891.39848260089	0.51544189453125
6892.39848259837	0.517578125
6893.39848259584	0.518798828125
6894.39848259332	0.52001953125
6895.39848259079	0.5230712890625
6896.39848258827	0.52459716796875
6897.39848258574	0.52581787109375
6898.39848258322	0.52886962890625
6899.39848258069	0.52978515625
6900.39848257817	0.53253173828125
6901.39848257564	0.53436279296875
6902.39848257312	0.5352783203125
6903.39848257059	0.53680419921875
6904.39848256807	0.53802490234375
6905.39848256554	0.540771484375
6906.39848256302	0.5413818359375
6907.39848256049	0.54290771484375
6908.39848255797	0.5450439453125
6909.39848255545	0.54718017578125
6910.39848255292	0.5487060546875
6911.3984825504	0.5499267578125
6912.39848254787	0.55084228515625
6913.39848254535	0.55328369140625
6914.39848254282	0.55419921875
6915.3984825403	0.5560302734375
6916.39848253777	0.5572509765625
6917.39848253525	0.55816650390625
6918.39848253272	0.56060791015625
6919.3984825302	0.56243896484375
6920.39848252767	0.5633544921875
6921.39848252515	0.56549072265625
6922.39848252262	0.56610107421875
6923.3984825201	0.567626953125
6924.39848251757	0.56884765625
6925.39848251505	0.57098388671875
6926.39848251252	0.5712890625
6927.39848251	0.572509765625
6928.39848250747	0.57373046875
6929.39848250495	0.57525634765625
6930.39848250243	0.576171875
6931.3984824999	0.577392578125
6932.39848249738	0.57861328125
6933.39848249485	0.579833984375
6934.39848249233	0.5810546875
6935.3984824898	0.582275390625
6936.39848248728	0.58349609375
6937.39848248475	0.584716796875
6938.39848248223	0.5859375
6939.3984824797	0.58685302734375
6940.39848247718	0.58807373046875
6941.39848247465	0.58929443359375
6942.39848247213	0.5902099609375
6943.3984824696	0.5914306640625
6944.39848246708	0.5926513671875
6945.39848246455	0.5938720703125
6946.39848246203	0.5950927734375
6947.3984824595	0.5963134765625
6948.39848245698	0.5975341796875
6949.39848245446	0.5987548828125
6950.39848245193	0.59967041015625
6951.39848244941	0.60089111328125
6952.39848244688	0.60211181640625
6953.39848244436	0.60302734375
6954.39848244183	0.604248046875
6955.39848243931	0.60546875
6956.39848243678	0.60638427734375
6957.39848243426	0.60760498046875
6958.39848243173	0.6085205078125
6959.39848242921	0.6097412109375
6960.39848242668	0.6109619140625
6961.39848242416	0.61187744140625
6962.39848242163	0.61279296875
6963.39848241911	0.614013671875
6964.39848241658	0.61492919921875
6965.39848241406	0.61614990234375
6966.39848241153	0.61737060546875
6967.39848240901	0.6182861328125
6968.39848240648	0.61920166015625
6969.39848240396	0.62042236328125
6970.39848240144	0.62164306640625
6971.39848239891	0.62225341796875
6972.39848239639	0.62347412109375
6973.39848239386	0.6243896484375
6974.39848239134	0.62530517578125
6975.39848238881	0.62591552734375
6976.39848238629	0.62713623046875
6977.39848238376	0.628662109375
6978.39848238124	0.6292724609375
6979.39848237871	0.63018798828125
6980.39848237619	0.63140869140625
6981.39848237366	0.63232421875
6982.39848237114	0.633544921875
6983.39848236861	0.63446044921875
6984.39848236609	0.6353759765625
6985.39848236356	0.6365966796875
6986.39848236104	0.63751220703125
6987.39848235851	0.638427734375
6988.39848235599	0.63934326171875
6989.39848235346	0.6427001953125
6990.39848235094	0.6439208984375
6991.39848234842	0.64483642578125
6992.39848234589	0.64605712890625
6993.39848234337	0.64697265625
6994.39848234084	0.648193359375
6995.39848233832	0.64910888671875
6996.39848233579	0.65032958984375
6997.39848233327	0.65093994140625
6998.39848233074	0.65216064453125
6999.39848232822	0.65338134765625
7000.39848232569	0.65338134765625
7001.39848232317	0.654296875
7002.39848232064	0.65521240234375
7003.39848231812	0.655517578125
7004.39848231559	0.6561279296875
7005.39848231307	0.657958984375
7006.39848231054	0.657958984375
7007.39848230802	0.6597900390625
7008.39848230549	0.66070556640625
7009.39848230297	0.69427490234375
7010.39848230044	0.66864013671875
7011.39848229792	0.66925048828125
7012.3984822954	0.66986083984375
7013.39848229287	0.67047119140625
7014.39848229035	0.67169189453125
7015.39848228782	0.67108154296875
7016.3984822853	0.67291259765625
7017.39848228277	0.67291259765625
7018.39848228025	0.6732177734375
7019.39848227772	0.673828125
7020.3984822752	0.67474365234375
7021.39848227267	0.6756591796875
7022.39848227015	0.67657470703125
7023.39848226762	0.677490234375
7024.3984822651	0.67840576171875
7025.39848226257	0.67901611328125
7026.39848226005	0.679931640625
7027.39848225752	0.68084716796875
7028.398482255	0.6817626953125
7029.39848225247	0.68267822265625
7030.39848224995	0.68359375
7031.39848224742	0.71624755859375
7032.3984822449	0.7086181640625
7033.39848224238	0.7177734375
7034.39848223985	0.70281982421875
7035.39848223733	0.6927490234375
7036.3984822348	0.69305419921875
7037.39848223228	0.69366455078125
7038.39848222975	0.714111328125
7039.39848222723	0.69732666015625
7040.3984822247	0.69671630859375
7041.39848222218	0.7177734375
7042.39848221965	0.699462890625
7043.39848221713	0.69732666015625
7044.3984822146	0.69732666015625
7045.39848221208	0.6976318359375
7046.39848220955	0.6982421875
7047.39848220703	0.69854736328125
7048.3984822045	0.69915771484375
7049.39848220198	0.699462890625
7050.39848219945	0.7000732421875
7051.39848219693	0.70068359375
7052.39848219441	0.7012939453125
7053.39848219188	0.70159912109375
7054.39848218936	0.70220947265625
7055.39848218683	0.7025146484375
7056.39848218431	0.703125
7057.39848218178	0.70404052734375
7058.39848217926	0.7049560546875
7059.39848217673	0.70587158203125
7060.39848217421	0.706787109375
7061.39848217168	0.73944091796875
7062.39848216916	0.73699951171875
7063.39848216663	0.732421875
7064.39848216411	0.73944091796875
7065.39848216158	0.71990966796875
7066.39848215906	0.7177734375
7067.39848215653	0.7177734375
7068.39848215401	0.71807861328125
7069.39848215148	0.7183837890625
7070.39848214896	0.718994140625
7071.39848214643	0.71929931640625
7072.39848214391	0.72021484375
7073.39848214139	0.72021484375
7074.39848213886	0.7196044921875
7075.39848213634	0.7196044921875
7076.39848213381	0.71990966796875
7077.39848213129	0.7208251953125
7078.39848212876	0.7220458984375
7079.39848212624	0.726318359375
7080.39848212371	0.74798583984375
7081.39848212119	0.7476806640625
7082.39848211866	0.7464599609375
7083.39848211614	0.7427978515625
7084.39848211361	0.7373046875
7085.39848211109	0.732421875
7086.39848210856	0.7427978515625
7087.39848210604	0.74859619140625
7088.39848210351	0.7470703125
7089.39848210099	0.74493408203125
7090.39848209846	0.740966796875
7091.39848209594	0.74676513671875
7092.39848209341	0.75225830078125
7093.39848209089	0.75408935546875
7094.39848208837	0.75958251953125
7095.39848208584	0.74371337890625
7096.39848208332	0.73883056640625
7097.39848208079	0.74981689453125
7098.39848207827	0.7550048828125
7099.39848207574	0.74981689453125
7100.39848207322	0.74554443359375
7101.39848207069	0.74554443359375
7102.39848206817	0.74462890625
7103.39848206564	0.7452392578125
7104.39848206312	0.74676513671875
7105.39848206059	0.7470703125
7106.39848205807	0.748291015625
7107.39848205554	0.75164794921875
7108.39848205302	0.7666015625
7109.39848205049	0.762939453125
7110.39848204797	0.76690673828125
7111.39848204544	0.76141357421875
7112.39848204292	0.75836181640625
7113.39848204039	0.76080322265625
7114.39848203787	0.76385498046875
7115.39848203535	0.76080322265625
7116.39848203282	0.76873779296875
7117.3984820303	0.762939453125
7118.39848202777	0.765380859375
7119.39848202525	0.7733154296875
7120.39848202272	0.76507568359375
7121.3984820202	0.76171875
7122.39848201767	0.7647705078125
7123.39848201515	0.76629638671875
7124.39848201262	0.7769775390625
7125.3984820101	0.7666015625
7126.39848200757	0.76141357421875
7127.39848200505	0.76171875
7128.39848200252	0.762939453125
7129.398482	0.7635498046875
7130.39848199747	0.76416015625
7131.39848199495	0.7647705078125
7132.39848199242	0.765380859375
7133.3984819899	0.7659912109375
7134.39848198737	0.76629638671875
7135.39848198485	0.76690673828125
7136.39848198233	0.76690673828125
7137.3984819798	0.76751708984375
7138.39848197728	0.76812744140625
7139.39848197475	0.76904296875
7140.39848197223	0.7696533203125
7141.3984819697	0.7745361328125
7142.39848196718	0.79742431640625
7143.39848196465	0.7928466796875
7144.39848196213	0.79315185546875
7145.3984819596	0.7940673828125
7146.39848195708	0.7958984375
7147.39848195455	0.80841064453125
7148.39848195203	0.79742431640625
7149.3984819495	0.78887939453125
7150.39848194698	0.79742431640625
7151.39848194445	0.789794921875
7152.39848194193	0.791015625
7153.3984819394	0.78887939453125
7154.39848193688	0.7952880859375
7155.39848193436	0.7965087890625
7156.39848193183	0.7977294921875
7157.39848192931	0.80047607421875
7158.39848192678	0.7958984375
7159.39848192426	0.79071044921875
7160.39848192173	0.78582763671875
7161.39848191921	0.78521728515625
7162.39848191668	0.784912109375
7163.39848191416	0.7855224609375
7164.39848191163	0.78582763671875
7165.39848190911	0.78643798828125
7166.39848190658	0.78704833984375
7167.39848190406	0.7879638671875
7168.39848190153	0.78857421875
7169.39848189901	0.7891845703125
7170.39848189648	0.79010009765625
7171.39848189396	0.79071044921875
7172.39848189143	0.7916259765625
7173.39848188891	0.792236328125
7174.39848188638	0.79315185546875
7175.39848188386	0.79376220703125
7176.39848188134	0.79437255859375
7177.39848187881	0.7952880859375
7178.39848187629	0.7958984375
7179.39848187376	0.7965087890625
7180.39848187124	0.79742431640625
7181.39848186871	0.79803466796875
7182.39848186619	0.79864501953125
7183.39848186366	0.79925537109375
7184.39848186114	0.8001708984375
7185.39848185861	0.80078125
7186.39848185609	0.80169677734375
7187.39848185356	0.80230712890625
7188.39848185104	0.80291748046875
7189.39848184851	0.80352783203125
7190.39848184599	0.804443359375
7191.39848184346	0.80535888671875
7192.39848184094	0.80596923828125
7193.39848183841	0.806884765625
7194.39848183589	0.8074951171875
7195.39848183336	0.80810546875
7196.39848183084	0.80902099609375
7197.39848182832	0.80963134765625
7198.39848182579	0.810546875
7199.39848182327	0.8111572265625
7200.39848182074	0.811767578125
7201.39848181822	0.8123779296875
7202.39848181569	0.81298828125
7203.39848181317	0.814208984375
7204.39848181064	0.8148193359375
7205.39848180812	0.8154296875
7206.39848180559	0.81634521484375
7207.39848180307	0.81695556640625
7208.39848180054	0.81756591796875
7209.39848179802	0.81817626953125
7210.39848179549	0.819091796875
7211.39848179297	0.82000732421875
7212.39848179044	0.82061767578125
7213.39848178792	0.82122802734375
7214.39848178539	0.8221435546875
7215.39848178287	0.82305908203125
7216.39848178034	0.82366943359375
7217.39848177782	0.82427978515625
7218.3984817753	0.82489013671875
7219.39848177277	0.82550048828125
7220.39848177025	0.82611083984375
7221.39848176772	0.8270263671875
7222.3984817652	0.82733154296875
7223.39848176267	0.8282470703125
7224.39848176015	0.828857421875
7225.39848175762	0.8294677734375
7226.3984817551	0.83038330078125
7227.39848175257	0.83099365234375
7228.39848175005	0.83160400390625
7229.39848174752	0.83251953125
7230.398481745	0.8331298828125
7231.39848174247	0.83404541015625
7232.39848173995	0.83465576171875
7233.39848173742	0.8355712890625
7234.3984817349	0.836181640625
7235.39848173237	0.83709716796875
7236.39848172985	0.83770751953125
7237.39848172732	0.83831787109375
7238.3984817248	0.83892822265625
7239.39848172228	0.83953857421875
7240.39848171975	0.8404541015625
7241.39848171723	0.841064453125
7242.3984817147	0.8416748046875
7243.39848171218	0.84259033203125
7244.39848170965	0.84320068359375
7245.39848170713	0.84381103515625
7246.3984817046	0.84442138671875
7247.39848170208	0.8453369140625
7248.39848169955	0.845947265625
7249.39848169703	0.8465576171875
7250.3984816945	0.84716796875
7251.39848169198	0.84808349609375
7252.39848168945	0.84869384765625
7253.39848168693	0.84930419921875
7254.3984816844	0.84991455078125
7255.39848168188	0.850830078125
7256.39848167935	0.8514404296875
7257.39848167683	0.85205078125
7258.39848167431	0.8526611328125
7259.39848167178	0.85357666015625
7260.39848166926	0.85418701171875
7261.39848166673	0.85479736328125
7262.39848166421	0.855712890625
7263.39848166168	0.85601806640625
7264.39848165916	0.85693359375
7265.39848165663	0.8575439453125
7266.39848165411	0.858154296875
7267.39848165158	0.8587646484375
7268.39848164906	0.859375
7269.39848164653	0.8599853515625
7270.39848164401	0.860595703125
7271.39848164148	0.8612060546875
7272.39848163896	0.86212158203125
7273.39848163643	0.86273193359375
7274.39848163391	0.86334228515625
7275.39848163138	0.86395263671875
7276.39848162886	0.86456298828125
7277.39848162633	0.86517333984375
7278.39848162381	0.86578369140625
7279.39848162129	0.86639404296875
7280.39848161876	0.86700439453125
7281.39848161624	0.867919921875
7282.39848161371	0.8685302734375
7283.39848161119	0.86883544921875
7284.39848160866	0.86944580078125
7285.39848160614	0.87005615234375
7286.39848160361	0.87066650390625
7287.39848160109	0.87127685546875
7288.39848159856	0.87188720703125
7289.39848159604	0.872802734375
7290.39848159351	0.8734130859375
7291.39848159099	0.8740234375
7292.39848158846	0.8746337890625
7293.39848158594	0.87554931640625
7294.39848158341	0.8758544921875
7295.39848158089	0.87646484375
7296.39848157836	0.8770751953125
7297.39848157584	0.877685546875
7298.39848157331	0.87860107421875
7299.39848157079	0.882568359375
7300.39848156827	0.88348388671875
7301.39848156574	0.882568359375
7302.39848156322	0.8837890625
7303.39848156069	0.885009765625
7304.39848155817	0.88470458984375
7305.39848155564	0.88623046875
7306.39848155312	0.8868408203125
7307.39848155059	0.88653564453125
7308.39848154807	0.8880615234375
7309.39848154554	0.88897705078125
7310.39848154302	0.88775634765625
7311.39848154049	0.89019775390625
7312.39848153797	0.8880615234375
7313.39848153544	0.89019775390625
7314.39848153292	0.89019775390625
7315.39848153039	0.89202880859375
7316.39848152787	0.889892578125
7317.39848152534	0.8917236328125
7318.39848152282	0.8935546875
7319.39848152029	0.8935546875
7320.39848151777	0.89385986328125
7321.39848151525	0.89508056640625
7322.39848151272	0.89599609375
7323.3984815102	0.8953857421875
7324.39848150767	0.89599609375
7325.39848150515	0.897216796875
7326.39848150262	0.897216796875
7327.3984815001	0.8978271484375
7328.39848149757	0.89996337890625
7329.39848149505	0.8990478515625
7330.39848149252	0.9014892578125
7331.39848149	0.90179443359375
7332.39848148747	0.90179443359375
7333.39848148495	0.90057373046875
7334.39848148242	0.9039306640625
7335.3984814799	0.90362548828125
7336.39848147737	0.9033203125
7337.39848147485	0.9039306640625
7338.39848147232	0.90606689453125
7339.3984814698	0.90576171875
7340.39848146727	0.90576171875
7341.39848146475	0.90667724609375
7342.39848146223	0.9075927734375
7343.3984814597	0.908203125
7344.39848145718	0.90911865234375
7345.39848145465	0.90850830078125
7346.39848145213	0.94207763671875
7347.3984814496	0.938720703125
7348.39848144708	0.93597412109375
7349.39848144455	0.92864990234375
7350.39848144203	0.91827392578125
7351.3984814395	0.9185791015625
7352.39848143698	0.9222412109375
7353.39848143445	0.924072265625
7354.39848143193	0.94482421875
7355.3984814294	0.933837890625
7356.39848142688	0.93841552734375
7357.39848142435	0.93475341796875
7358.39848142183	0.9466552734375
7359.3984814193	0.93719482421875
7360.39848141678	0.93597412109375
7361.39848141426	0.933837890625
7362.39848141173	0.931396484375
7363.39848140921	0.94635009765625
7364.39848140668	0.93048095703125
7365.39848140416	0.931396484375
7366.39848140163	0.93902587890625
7367.39848139911	0.94146728515625
7368.39848139658	0.93841552734375
7369.39848139406	0.93841552734375
7370.39848139153	0.93841552734375
7371.39848138901	0.93719482421875
7372.39848138648	0.93597412109375
7373.39848138396	0.93292236328125
7374.39848138143	0.93017578125
7375.39848137891	0.93048095703125
7376.39848137638	0.9307861328125
7377.39848137386	0.93109130859375
7378.39848137133	0.928955078125
7379.39848136881	0.92987060546875
7380.39848136628	0.92987060546875
7381.39848136376	0.93048095703125
7382.39848136124	0.9307861328125
7383.39848135871	0.93170166015625
7384.39848135619	0.95001220703125
7385.39848135366	0.9466552734375
7386.39848135114	0.94390869140625
7387.39848134861	0.94329833984375
7388.39848134609	0.943603515625
7389.39848134356	0.9417724609375
7390.39848134104	0.9442138671875
7391.39848133851	0.9423828125
7392.39848133599	0.9429931640625
7393.39848133346	0.9442138671875
7394.39848133094	0.94512939453125
7395.39848132841	0.94451904296875
7396.39848132589	0.94207763671875
7397.39848132336	0.94329833984375
7398.39848132084	0.9442138671875
7399.39848131831	0.94451904296875
7400.39848131579	0.94329833984375
7401.39848131326	0.9429931640625
7402.39848131074	0.9442138671875
7403.39848130822	0.94635009765625
7404.39848130569	0.9478759765625
7405.39848130317	0.9490966796875
7406.39848130064	0.9503173828125
7407.39848129812	0.95367431640625
7408.39848129559	0.9588623046875
7409.39848129307	0.9576416015625
7410.39848129054	0.95367431640625
7411.39848128802	0.94573974609375
7412.39848128549	0.9442138671875
7413.39848128297	0.94390869140625
7414.39848128044	0.9442138671875
7415.39848127792	0.94451904296875
7416.39848127539	0.94482421875
7417.39848127287	0.9454345703125
7418.39848127034	0.94757080078125
7419.39848126782	0.94696044921875
7420.39848126529	0.94696044921875
7421.39848126277	0.94757080078125
7422.39848126024	0.94818115234375
7423.39848125772	0.94879150390625
7424.3984812552	0.94940185546875
7425.39848125267	0.95062255859375
7426.39848125015	0.950927734375
7427.39848124762	0.9515380859375
7428.3984812451	0.95184326171875
7429.39848124257	0.9527587890625
7430.39848124005	0.95458984375
7431.39848123752	0.97381591796875
7432.398481235	0.97076416015625
7433.39848123247	0.9637451171875
7434.39848122995	0.963134765625
7435.39848122742	0.96405029296875
7436.3984812249	0.96405029296875
7437.39848122237	0.96343994140625
7438.39848121985	0.96282958984375
7439.39848121732	0.9600830078125
7440.3984812148	0.95855712890625
7441.39848121227	0.95703125
7442.39848120975	0.9576416015625
7443.39848120722	0.9576416015625
7444.3984812047	0.95855712890625
