Time (s)	WE(1).Potential (V)
112.546741715847	1.759033203125
112.556741715822	1.759033203125
112.566741715796	1.759033203125
112.576741715771	1.759033203125
112.586741715746	1.759033203125
112.596741715721	1.75933837890625
112.606741715695	1.75933837890625
112.61674171567	1.7596435546875
112.626741715645	1.75933837890625
112.63674171562	1.759033203125
112.646741715594	1.75933837890625
112.656741715569	1.75933837890625
112.666741715544	1.75933837890625
112.676741715519	1.7596435546875
112.686741715493	1.7596435546875
112.696741715468	1.7596435546875
112.706741715443	1.7596435546875
112.716741715418	1.75994873046875
112.726741715392	1.7596435546875
112.736741715367	1.75994873046875
112.746741715342	1.75994873046875
112.756741715317	1.7596435546875
112.766741715291	1.75933837890625
112.776741715266	1.7596435546875
112.786741715241	1.75994873046875
112.796741715216	1.75994873046875
112.80674171519	1.75933837890625
112.816741715165	1.7596435546875
112.82674171514	1.7596435546875
112.836741715115	1.7596435546875
112.846741715089	1.7596435546875
112.856741715064	1.7596435546875
112.866741715039	1.75994873046875
112.876741715014	1.75994873046875
112.886741714988	1.7596435546875
112.896741714963	1.75994873046875
112.906741714938	1.7596435546875
112.916741714913	1.75994873046875
112.926741714887	1.76025390625
112.936741714862	1.76025390625
112.946741714837	1.76055908203125
112.956741714812	1.76055908203125
112.966741714786	1.76025390625
112.976741714761	1.76025390625
112.986741714736	1.76025390625
112.996741714711	1.76055908203125
113.006741714685	1.76055908203125
113.01674171466	1.76025390625
113.026741714635	1.7608642578125
113.03674171461	1.7608642578125
113.046741714584	1.7608642578125
113.056741714559	1.7608642578125
113.066741714534	1.7608642578125
113.076741714509	1.7608642578125
113.086741714483	1.76116943359375
113.096741714458	1.76116943359375
113.106741714433	1.76116943359375
113.116741714408	1.76116943359375
113.126741714382	1.761474609375
113.136741714357	1.761474609375
113.146741714332	1.76116943359375
113.156741714307	1.76116943359375
113.166741714281	1.76116943359375
113.176741714256	1.761474609375
113.186741714231	1.7608642578125
113.196741714206	1.76116943359375
113.20674171418	1.7608642578125
113.216741714155	1.76116943359375
113.22674171413	1.7608642578125
113.236741714105	1.761474609375
113.246741714079	1.761474609375
113.256741714054	1.76177978515625
113.266741714029	1.761474609375
113.276741714004	1.761474609375
113.286741713978	1.761474609375
113.296741713953	1.761474609375
113.306741713928	1.76177978515625
113.316741713903	1.76116943359375
113.326741713877	1.76116943359375
113.336741713852	1.76116943359375
113.346741713827	1.761474609375
113.356741713802	1.761474609375
113.366741713776	1.761474609375
113.376741713751	1.761474609375
113.386741713726	1.761474609375
113.396741713701	1.761474609375
113.406741713676	1.761474609375
113.41674171365	1.76177978515625
113.426741713625	1.76177978515625
113.4367417136	1.76177978515625
113.446741713575	1.76177978515625
113.456741713549	1.76177978515625
113.466741713524	1.761474609375
113.476741713499	1.76177978515625
113.486741713474	1.76177978515625
113.496741713448	1.76177978515625
113.506741713423	1.761474609375
113.516741713398	1.76116943359375
113.526741713373	1.76116943359375
113.536741713347	1.761474609375
113.546741713322	1.761474609375
113.556741713297	1.761474609375
113.566741713272	1.761474609375
113.576741713246	1.761474609375
113.586741713221	1.761474609375
113.596741713196	1.761474609375
113.606741713171	1.76116943359375
113.616741713145	1.76116943359375
113.62674171312	1.761474609375
113.636741713095	1.761474609375
113.64674171307	1.761474609375
113.656741713044	1.761474609375
113.666741713019	1.761474609375
113.676741712994	1.761474609375
113.686741712969	1.76116943359375
113.696741712943	1.761474609375
113.706741712918	1.76116943359375
113.716741712893	1.761474609375
113.726741712868	1.76177978515625
113.736741712842	1.761474609375
113.746741712817	1.761474609375
113.756741712792	1.761474609375
113.766741712767	1.761474609375
113.776741712741	1.761474609375
113.786741712716	1.761474609375
113.796741712691	1.76177978515625
113.806741712666	1.761474609375
113.81674171264	1.76116943359375
113.826741712615	1.76116943359375
113.83674171259	1.76116943359375
113.846741712565	1.761474609375
113.856741712539	1.7608642578125
113.866741712514	1.76116943359375
113.876741712489	1.76116943359375
113.886741712464	1.76116943359375
113.896741712438	1.761474609375
113.906741712413	1.76116943359375
113.916741712388	1.761474609375
113.926741712363	1.76116943359375
113.936741712337	1.76116943359375
113.946741712312	1.76116943359375
113.956741712287	1.76116943359375
113.966741712262	1.7608642578125
113.976741712236	1.76055908203125
113.986741712211	1.76055908203125
113.996741712186	1.7608642578125
114.006741712161	1.7608642578125
114.016741712135	1.7608642578125
114.02674171211	1.7608642578125
114.036741712085	1.7608642578125
114.04674171206	1.7608642578125
114.056741712034	1.76055908203125
114.066741712009	1.7608642578125
114.076741711984	1.7608642578125
114.086741711959	1.76055908203125
114.096741711933	1.76055908203125
114.106741711908	1.76055908203125
114.116741711883	1.7608642578125
114.126741711858	1.76116943359375
114.136741711832	1.76116943359375
114.146741711807	1.7608642578125
114.156741711782	1.76055908203125
114.166741711757	1.76055908203125
114.176741711731	1.76055908203125
114.186741711706	1.76055908203125
114.196741711681	1.76055908203125
114.206741711656	1.76055908203125
114.21674171163	1.76025390625
114.226741711605	1.76055908203125
114.23674171158	1.76055908203125
114.246741711555	1.76055908203125
114.256741711529	1.76025390625
114.266741711504	1.76025390625
114.276741711479	1.76025390625
114.286741711454	1.75994873046875
114.296741711428	1.76025390625
114.306741711403	1.76055908203125
114.316741711378	1.7608642578125
114.326741711353	1.76025390625
114.336741711327	1.76025390625
114.346741711302	1.76055908203125
114.356741711277	1.7608642578125
114.366741711252	1.76055908203125
114.376741711226	1.76055908203125
114.386741711201	1.76025390625
114.396741711176	1.76025390625
114.406741711151	1.76025390625
114.416741711125	1.76025390625
114.4267417111	1.76055908203125
114.436741711075	1.76055908203125
114.44674171105	1.76055908203125
114.456741711025	1.76055908203125
114.466741710999	1.76055908203125
114.476741710974	1.75994873046875
114.486741710949	1.7596435546875
114.496741710924	1.7596435546875
114.506741710898	1.75994873046875
114.516741710873	1.76025390625
114.526741710848	1.76025390625
114.536741710823	1.76025390625
114.546741710797	1.75994873046875
114.556741710772	1.76025390625
114.566741710747	1.75994873046875
114.576741710722	1.75994873046875
114.586741710696	1.76025390625
114.596741710671	1.76055908203125
114.606741710646	1.76025390625
114.616741710621	1.75994873046875
114.626741710595	1.75994873046875
114.63674171057	1.7596435546875
114.646741710545	1.7596435546875
114.65674171052	1.75994873046875
114.666741710494	1.76025390625
114.676741710469	1.76025390625
114.686741710444	1.75994873046875
114.696741710419	1.7596435546875
114.706741710393	1.75994873046875
114.716741710368	1.75994873046875
114.726741710343	1.75994873046875
114.736741710318	1.7596435546875
114.746741710292	1.7596435546875
114.756741710267	1.7596435546875
114.766741710242	1.7596435546875
114.776741710217	1.759033203125
114.786741710191	1.759033203125
114.796741710166	1.759033203125
114.806741710141	1.75933837890625
114.816741710116	1.759033203125
114.82674171009	1.759033203125
114.836741710065	1.759033203125
114.84674171004	1.7584228515625
114.856741710015	1.75872802734375
114.866741709989	1.75933837890625
114.876741709964	1.75933837890625
114.886741709939	1.75872802734375
114.896741709914	1.75872802734375
114.906741709888	1.759033203125
114.916741709863	1.75933837890625
114.926741709838	1.759033203125
114.936741709813	1.75872802734375
114.946741709787	1.7584228515625
114.956741709762	1.75811767578125
114.966741709737	1.7584228515625
114.976741709712	1.7584228515625
114.986741709686	1.75872802734375
114.996741709661	1.759033203125
115.006741709636	1.759033203125
115.016741709611	1.759033203125
115.026741709585	1.7584228515625
115.03674170956	1.7584228515625
115.046741709535	1.7584228515625
115.05674170951	1.7584228515625
115.066741709484	1.7584228515625
115.076741709459	1.7584228515625
115.086741709434	1.75811767578125
115.096741709409	1.7584228515625
115.106741709383	1.7584228515625
115.116741709358	1.7584228515625
115.126741709333	1.7584228515625
115.136741709308	1.75811767578125
115.146741709282	1.7584228515625
115.156741709257	1.7584228515625
115.166741709232	1.7578125
115.176741709207	1.75811767578125
115.186741709181	1.75811767578125
115.196741709156	1.7578125
115.206741709131	1.7578125
115.216741709106	1.7578125
115.22674170908	1.75811767578125
115.236741709055	1.7584228515625
115.24674170903	1.7584228515625
115.256741709005	1.75872802734375
115.266741708979	1.7584228515625
115.276741708954	1.7584228515625
115.286741708929	1.7584228515625
115.296741708904	1.7584228515625
115.306741708878	1.7584228515625
115.316741708853	1.75872802734375
115.326741708828	1.75872802734375
115.336741708803	1.759033203125
115.346741708777	1.75872802734375
115.356741708752	1.7584228515625
115.366741708727	1.7584228515625
115.376741708702	1.7584228515625
115.386741708676	1.75872802734375
115.396741708651	1.7584228515625
115.406741708626	1.75872802734375
115.416741708601	1.7584228515625
115.426741708575	1.75811767578125
115.43674170855	1.7584228515625
115.446741708525	1.7584228515625
115.4567417085	1.7584228515625
115.466741708475	1.7584228515625
115.476741708449	1.75811767578125
115.486741708424	1.7584228515625
115.496741708399	1.7584228515625
115.506741708374	1.7584228515625
115.516741708348	1.7584228515625
115.526741708323	1.75872802734375
115.536741708298	1.75872802734375
115.546741708273	1.7584228515625
115.556741708247	1.75872802734375
115.566741708222	1.7584228515625
115.576741708197	1.7584228515625
115.586741708172	1.7584228515625
115.596741708146	1.7584228515625
115.606741708121	1.7584228515625
115.616741708096	1.75872802734375
115.626741708071	1.75872802734375
115.636741708045	1.7584228515625
115.64674170802	1.7584228515625
115.656741707995	1.7584228515625
115.66674170797	1.7584228515625
115.676741707944	1.7584228515625
115.686741707919	1.7578125
115.696741707894	1.7578125
115.706741707869	1.7578125
115.716741707843	1.7578125
115.726741707818	1.7572021484375
115.736741707793	1.75750732421875
115.746741707768	1.7572021484375
115.756741707742	1.75750732421875
115.766741707717	1.75750732421875
115.776741707692	1.75750732421875
115.786741707667	1.7572021484375
115.796741707641	1.75689697265625
115.806741707616	1.7572021484375
115.816741707591	1.75689697265625
115.826741707566	1.75689697265625
115.83674170754	1.75689697265625
115.846741707515	1.75689697265625
115.85674170749	1.756591796875
115.866741707465	1.75628662109375
115.876741707439	1.75628662109375
115.886741707414	1.756591796875
115.896741707389	1.75628662109375
115.906741707364	1.756591796875
115.916741707338	1.756591796875
115.926741707313	1.756591796875
115.936741707288	1.75628662109375
115.946741707263	1.75628662109375
115.956741707237	1.756591796875
115.966741707212	1.75628662109375
115.976741707187	1.756591796875
115.986741707162	1.7559814453125
115.996741707136	1.7559814453125
116.006741707111	1.75628662109375
116.016741707086	1.756591796875
116.026741707061	1.756591796875
116.036741707035	1.75628662109375
116.04674170701	1.756591796875
116.056741706985	1.756591796875
116.06674170696	1.756591796875
116.076741706934	1.75628662109375
116.086741706909	1.75628662109375
116.096741706884	1.75628662109375
116.106741706859	1.75628662109375
116.116741706833	1.756591796875
116.126741706808	1.75628662109375
116.136741706783	1.75628662109375
116.146741706758	1.7559814453125
116.156741706732	1.75628662109375
116.166741706707	1.75628662109375
116.176741706682	1.7559814453125
116.186741706657	1.75567626953125
116.196741706631	1.75628662109375
116.206741706606	1.756591796875
116.216741706581	1.756591796875
116.226741706556	1.75628662109375
116.23674170653	1.7559814453125
116.246741706505	1.7559814453125
116.25674170648	1.7559814453125
116.266741706455	1.75628662109375
116.276741706429	1.75628662109375
116.286741706404	1.75628662109375
116.296741706379	1.75628662109375
116.306741706354	1.7559814453125
116.316741706328	1.75628662109375
116.326741706303	1.75628662109375
116.336741706278	1.75628662109375
116.346741706253	1.7559814453125
116.356741706227	1.75567626953125
116.366741706202	1.75537109375
116.376741706177	1.75567626953125
116.386741706152	1.75567626953125
116.396741706126	1.75567626953125
116.406741706101	1.75537109375
116.416741706076	1.75567626953125
116.426741706051	1.75567626953125
116.436741706025	1.75567626953125
116.446741706	1.75567626953125
116.456741705975	1.75506591796875
116.46674170595	1.75506591796875
116.476741705924	1.75445556640625
116.486741705899	1.75445556640625
116.496741705874	1.7547607421875
116.506741705849	1.75506591796875
116.516741705824	1.7547607421875
116.526741705798	1.75445556640625
116.536741705773	1.7547607421875
116.546741705748	1.75445556640625
116.556741705723	1.7547607421875
116.566741705697	1.7547607421875
116.576741705672	1.75506591796875
116.586741705647	1.75506591796875
116.596741705622	1.75537109375
116.606741705596	1.75506591796875
116.616741705571	1.75537109375
116.626741705546	1.75506591796875
116.636741705521	1.75537109375
116.646741705495	1.75537109375
116.65674170547	1.75537109375
116.666741705445	1.75567626953125
116.67674170542	1.75567626953125
116.686741705394	1.75567626953125
116.696741705369	1.7559814453125
116.706741705344	1.7559814453125
116.716741705319	1.756591796875
116.726741705293	1.756591796875
116.736741705268	1.75628662109375
116.746741705243	1.7559814453125
116.756741705218	1.75628662109375
116.766741705192	1.7559814453125
116.776741705167	1.7559814453125
116.786741705142	1.75628662109375
116.796741705117	1.756591796875
116.806741705091	1.75689697265625
116.816741705066	1.756591796875
116.826741705041	1.75628662109375
116.836741705016	1.7559814453125
116.84674170499	1.7559814453125
116.856741704965	1.7559814453125
116.86674170494	1.7559814453125
116.876741704915	1.75628662109375
116.886741704889	1.75628662109375
116.896741704864	1.75628662109375
116.906741704839	1.75628662109375
116.916741704814	1.75628662109375
116.926741704788	1.75628662109375
116.936741704763	1.75628662109375
116.946741704738	1.75628662109375
116.956741704713	1.75628662109375
116.966741704687	1.7559814453125
116.976741704662	1.7559814453125
116.986741704637	1.75567626953125
116.996741704612	1.7559814453125
117.006741704586	1.7559814453125
117.016741704561	1.7559814453125
117.026741704536	1.7559814453125
117.036741704511	1.75628662109375
117.046741704485	1.7559814453125
117.05674170446	1.75628662109375
117.066741704435	1.756591796875
117.07674170441	1.756591796875
117.086741704384	1.756591796875
117.096741704359	1.756591796875
117.106741704334	1.756591796875
117.116741704309	1.756591796875
117.126741704283	1.756591796875
117.136741704258	1.75689697265625
117.146741704233	1.7572021484375
117.156741704208	1.7572021484375
117.166741704182	1.75689697265625
117.176741704157	1.7572021484375
117.186741704132	1.75750732421875
117.196741704107	1.75750732421875
117.206741704081	1.7578125
117.216741704056	1.75811767578125
117.226741704031	1.7578125
117.236741704006	1.7578125
117.24674170398	1.75811767578125
117.256741703955	1.7584228515625
117.26674170393	1.7578125
117.276741703905	1.7578125
117.286741703879	1.75811767578125
117.296741703854	1.7584228515625
117.306741703829	1.7584228515625
117.316741703804	1.75811767578125
117.326741703778	1.75811767578125
117.336741703753	1.75811767578125
117.346741703728	1.7584228515625
117.356741703703	1.75872802734375
117.366741703677	1.75872802734375
117.376741703652	1.759033203125
117.386741703627	1.75872802734375
117.396741703602	1.75872802734375
117.406741703576	1.7584228515625
117.416741703551	1.75872802734375
117.426741703526	1.7584228515625
117.436741703501	1.75872802734375
117.446741703475	1.75872802734375
117.45674170345	1.75872802734375
117.466741703425	1.75872802734375
117.4767417034	1.75872802734375
117.486741703374	1.759033203125
117.496741703349	1.759033203125
117.506741703324	1.75872802734375
117.516741703299	1.759033203125
117.526741703274	1.75872802734375
117.536741703248	1.759033203125
