Time (s)	WE(1).Potential (V)
96.7527877557227	2.34893798828125
96.7627877556974	2.34893798828125
96.7727877556722	2.3486328125
96.782787755647	2.34893798828125
96.7927877556217	2.3486328125
96.8027877555965	2.34832763671875
96.8127877555712	2.34832763671875
96.822787755546	2.34832763671875
96.8327877555207	2.34832763671875
96.8427877554955	2.34832763671875
96.8527877554702	2.3480224609375
96.862787755445	2.34832763671875
96.8727877554197	2.3486328125
96.8827877553945	2.3486328125
96.8927877553692	2.3486328125
96.902787755344	2.3486328125
96.9127877553187	2.3486328125
96.9227877552935	2.34832763671875
96.9327877552682	2.34832763671875
96.942787755243	2.34832763671875
96.9527877552177	2.3486328125
96.9627877551925	2.3486328125
96.9727877551672	2.3486328125
96.982787755142	2.3486328125
96.9927877551168	2.3486328125
97.0027877550915	2.3486328125
97.0127877550663	2.3486328125
97.022787755041	2.3486328125
97.0327877550158	2.3486328125
97.0427877549905	2.3486328125
97.0527877549653	2.3486328125
97.06278775494	2.3486328125
97.0727877549148	2.3486328125
97.0827877548895	2.3486328125
97.0927877548643	2.34893798828125
97.102787754839	2.3486328125
97.1127877548138	2.3486328125
97.1227877547885	2.3486328125
97.1327877547633	2.3486328125
97.142787754738	2.34832763671875
97.1527877547128	2.3486328125
97.1627877546875	2.3486328125
97.1727877546623	2.3486328125
97.182787754637	2.34832763671875
97.1927877546118	2.34832763671875
97.2027877545866	2.34832763671875
97.2127877545613	2.3480224609375
97.2227877545361	2.34832763671875
97.2327877545108	2.34832763671875
97.2427877544856	2.34832763671875
97.2527877544603	2.34832763671875
97.2627877544351	2.34832763671875
97.2727877544098	2.3480224609375
97.2827877543846	2.3480224609375
97.2927877543593	2.3480224609375
97.3027877543341	2.34832763671875
97.3127877543088	2.34832763671875
97.3227877542836	2.3486328125
97.3327877542583	2.34832763671875
97.3427877542331	2.34832763671875
97.3527877542078	2.3480224609375
97.3627877541826	2.3480224609375
97.3727877541573	2.34771728515625
97.3827877541321	2.34771728515625
97.3927877541068	2.34771728515625
97.4027877540816	2.34771728515625
97.4127877540564	2.34771728515625
97.4227877540311	2.3480224609375
97.4327877540059	2.34771728515625
97.4427877539806	2.34771728515625
97.4527877539554	2.3480224609375
97.4627877539301	2.3480224609375
97.4727877539049	2.3480224609375
97.4827877538796	2.3480224609375
97.4927877538544	2.3480224609375
97.5027877538291	2.34771728515625
97.5127877538039	2.34771728515625
97.5227877537786	2.3480224609375
97.5327877537534	2.3480224609375
97.5427877537281	2.3480224609375
97.5527877537029	2.34771728515625
97.5627877536776	2.3480224609375
97.5727877536524	2.3480224609375
97.5827877536271	2.3480224609375
97.5927877536019	2.34771728515625
97.6027877535766	2.34771728515625
97.6127877535514	2.34771728515625
97.6227877535262	2.34771728515625
97.6327877535009	2.3480224609375
97.6427877534757	2.3480224609375
97.6527877534504	2.3480224609375
97.6627877534252	2.34771728515625
97.6727877533999	2.34771728515625
97.6827877533747	2.34771728515625
97.6927877533494	2.3480224609375
97.7027877533242	2.347412109375
97.7127877532989	2.347412109375
97.7227877532737	2.34771728515625
97.7327877532484	2.34771728515625
97.7427877532232	2.347412109375
97.7527877531979	2.347412109375
97.7627877531727	2.347412109375
97.7727877531474	2.347412109375
97.7827877531222	2.34710693359375
97.7927877530969	2.34771728515625
97.8027877530717	2.34771728515625
97.8127877530465	2.347412109375
97.8227877530212	2.347412109375
97.832787752996	2.34710693359375
97.8427877529707	2.347412109375
97.8527877529455	2.347412109375
97.8627877529202	2.34771728515625
97.872787752895	2.347412109375
97.8827877528697	2.347412109375
97.8927877528445	2.347412109375
97.9027877528192	2.34710693359375
97.912787752794	2.34710693359375
97.9227877527687	2.34710693359375
97.9327877527435	2.34710693359375
97.9427877527182	2.34771728515625
97.952787752693	2.347412109375
97.9627877526677	2.347412109375
97.9727877526425	2.34710693359375
97.9827877526172	2.3468017578125
97.992787752592	2.3468017578125
98.0027877525667	2.34710693359375
98.0127877525415	2.34710693359375
98.0227877525163	2.347412109375
98.032787752491	2.347412109375
98.0427877524658	2.347412109375
98.0527877524405	2.347412109375
98.0627877524153	2.347412109375
98.07278775239	2.347412109375
98.0827877523648	2.347412109375
98.0927877523395	2.347412109375
98.1027877523143	2.347412109375
98.112787752289	2.347412109375
98.1227877522638	2.347412109375
98.1327877522385	2.347412109375
98.1427877522133	2.347412109375
98.152787752188	2.347412109375
98.1627877521628	2.347412109375
98.1727877521375	2.347412109375
98.1827877521123	2.34771728515625
98.192787752087	2.34771728515625
98.2027877520618	2.34771728515625
98.2127877520365	2.34771728515625
98.2227877520113	2.34771728515625
98.2327877519861	2.34771728515625
98.2427877519608	2.34771728515625
98.2527877519356	2.34771728515625
98.2627877519103	2.3480224609375
98.2727877518851	2.34771728515625
98.2827877518598	2.34771728515625
98.2927877518346	2.3480224609375
98.3027877518093	2.34771728515625
98.3127877517841	2.34771728515625
98.3227877517588	2.34771728515625
98.3327877517336	2.3480224609375
98.3427877517083	2.3480224609375
98.3527877516831	2.34771728515625
98.3627877516578	2.34771728515625
98.3727877516326	2.34771728515625
98.3827877516073	2.34771728515625
98.3927877515821	2.34771728515625
98.4027877515568	2.34771728515625
98.4127877515316	2.34771728515625
98.4227877515063	2.3480224609375
98.4327877514811	2.3480224609375
98.4427877514559	2.3480224609375
98.4527877514306	2.34771728515625
98.4627877514054	2.3480224609375
98.4727877513801	2.3480224609375
98.4827877513549	2.3480224609375
98.4927877513296	2.3480224609375
98.5027877513044	2.3480224609375
98.5127877512791	2.34771728515625
98.5227877512539	2.34771728515625
98.5327877512286	2.3480224609375
98.5427877512034	2.3480224609375
98.5527877511781	2.3480224609375
98.5627877511529	2.3480224609375
98.5727877511276	2.3480224609375
98.5827877511024	2.3480224609375
98.5927877510771	2.34832763671875
98.6027877510519	2.34832763671875
98.6127877510266	2.3480224609375
98.6227877510014	2.34832763671875
98.6327877509761	2.34832763671875
98.6427877509509	2.3480224609375
98.6527877509257	2.34771728515625
98.6627877509004	2.34771728515625
98.6727877508752	2.34771728515625
98.6827877508499	2.3480224609375
98.6927877508247	2.34832763671875
98.7027877507994	2.34832763671875
98.7127877507742	2.34832763671875
98.7227877507489	2.3480224609375
98.7327877507237	2.34832763671875
98.7427877506984	2.34832763671875
98.7527877506732	2.3480224609375
98.7627877506479	2.34832763671875
98.7727877506227	2.34832763671875
98.7827877505974	2.34832763671875
98.7927877505722	2.34832763671875
98.8027877505469	2.34832763671875
98.8127877505217	2.34832763671875
98.8227877504964	2.34832763671875
98.8327877504712	2.3480224609375
98.842787750446	2.3480224609375
98.8527877504207	2.3480224609375
98.8627877503955	2.3480224609375
98.8727877503702	2.3480224609375
98.882787750345	2.3480224609375
98.8927877503197	2.3480224609375
98.9027877502945	2.34832763671875
98.9127877502692	2.34832763671875
98.922787750244	2.34832763671875
98.9327877502187	2.3480224609375
98.9427877501935	2.3480224609375
98.9527877501682	2.3480224609375
98.962787750143	2.34832763671875
98.9727877501177	2.34832763671875
98.9827877500925	2.3480224609375
98.9927877500672	2.3480224609375
99.002787750042	2.3480224609375
99.0127877500167	2.34832763671875
99.0227877499915	2.3480224609375
99.0327877499662	2.3480224609375
99.042787749941	2.3480224609375
99.0527877499158	2.3480224609375
99.0627877498905	2.3480224609375
99.0727877498653	2.34832763671875
99.08278774984	2.34832763671875
99.0927877498148	2.34832763671875
99.1027877497895	2.34832763671875
99.1127877497643	2.3486328125
99.122787749739	2.34832763671875
99.1327877497138	2.3486328125
99.1427877496885	2.3486328125
99.1527877496633	2.3486328125
99.162787749638	2.3486328125
99.1727877496128	2.3486328125
99.1827877495875	2.3486328125
99.1927877495623	2.3486328125
99.202787749537	2.3486328125
99.2127877495118	2.3486328125
99.2227877494865	2.3486328125
99.2327877494613	2.3486328125
99.242787749436	2.3486328125
99.2527877494108	2.3486328125
99.2627877493856	2.3486328125
99.2727877493603	2.3486328125
99.2827877493351	2.3486328125
99.2927877493098	2.3486328125
99.3027877492846	2.34832763671875
99.3127877492593	2.3486328125
99.3227877492341	2.3486328125
99.3327877492088	2.3486328125
99.3427877491836	2.34832763671875
99.3527877491583	2.3480224609375
99.3627877491331	2.3480224609375
99.3727877491078	2.3480224609375
99.3827877490826	2.3480224609375
99.3927877490573	2.3480224609375
99.4027877490321	2.3480224609375
99.4127877490068	2.34832763671875
99.4227877489816	2.34832763671875
99.4327877489563	2.34832763671875
99.4427877489311	2.3486328125
99.4527877489058	2.34832763671875
99.4627877488806	2.34832763671875
99.4727877488554	2.34832763671875
99.4827877488301	2.34832763671875
99.4927877488049	2.34832763671875
99.5027877487796	2.3486328125
99.5127877487544	2.3486328125
99.5227877487291	2.3486328125
99.5327877487039	2.3486328125
99.5427877486786	2.3486328125
99.5527877486534	2.34832763671875
99.5627877486281	2.34832763671875
99.5727877486029	2.34832763671875
99.5827877485776	2.34832763671875
99.5927877485524	2.3480224609375
99.6027877485271	2.3486328125
99.6127877485019	2.3486328125
99.6227877484766	2.3486328125
99.6327877484514	2.34832763671875
99.6427877484261	2.3486328125
99.6527877484009	2.3486328125
99.6627877483756	2.3486328125
99.6727877483504	2.34832763671875
99.6827877483252	2.34832763671875
99.6927877482999	2.34832763671875
99.7027877482747	2.34832763671875
99.7127877482494	2.3480224609375
99.7227877482242	2.3480224609375
99.7327877481989	2.34771728515625
99.7427877481737	2.3480224609375
99.7527877481484	2.3480224609375
99.7627877481232	2.34771728515625
99.7727877480979	2.34771728515625
99.7827877480727	2.34771728515625
99.7927877480474	2.34771728515625
99.8027877480222	2.34771728515625
99.8127877479969	2.3480224609375
99.8227877479717	2.3480224609375
99.8327877479464	2.3480224609375
99.8427877479212	2.3480224609375
99.8527877478959	2.3480224609375
99.8627877478707	2.3480224609375
99.8727877478455	2.34771728515625
99.8827877478202	2.34771728515625
99.892787747795	2.3480224609375
99.9027877477697	2.34771728515625
99.9127877477445	2.34771728515625
99.9227877477192	2.34771728515625
99.932787747694	2.34771728515625
99.9427877476687	2.3480224609375
99.9527877476435	2.3480224609375
99.9627877476182	2.3480224609375
99.972787747593	2.34771728515625
99.9827877475677	2.34771728515625
99.9927877475425	2.3480224609375
100.002787747517	2.34771728515625
100.012787747492	2.34771728515625
100.022787747467	2.34771728515625
100.032787747441	2.34771728515625
100.042787747416	2.34771728515625
100.052787747391	2.34771728515625
100.062787747366	2.34771728515625
100.07278774734	2.34771728515625
100.082787747315	2.34771728515625
100.09278774729	2.34771728515625
100.102787747265	2.347412109375
100.11278774724	2.347412109375
100.122787747214	2.347412109375
100.132787747189	2.347412109375
100.142787747164	2.34771728515625
100.152787747139	2.34771728515625
100.162787747113	2.34771728515625
100.172787747088	2.34771728515625
100.182787747063	2.3480224609375
100.192787747038	2.34771728515625
100.202787747012	2.347412109375
100.212787746987	2.347412109375
100.222787746962	2.347412109375
100.232787746937	2.347412109375
100.242787746911	2.347412109375
100.252787746886	2.347412109375
100.262787746861	2.347412109375
100.272787746836	2.347412109375
100.28278774681	2.347412109375
100.292787746785	2.347412109375
100.30278774676	2.347412109375
100.312787746735	2.34771728515625
100.322787746709	2.347412109375
100.332787746684	2.347412109375
100.342787746659	2.347412109375
100.352787746634	2.347412109375
100.362787746608	2.347412109375
100.372787746583	2.34771728515625
100.382787746558	2.34771728515625
100.392787746533	2.347412109375
100.402787746507	2.347412109375
100.412787746482	2.34771728515625
100.422787746457	2.34771728515625
100.432787746432	2.347412109375
100.442787746406	2.347412109375
100.452787746381	2.347412109375
100.462787746356	2.347412109375
100.472787746331	2.34710693359375
100.482787746305	2.347412109375
100.49278774628	2.347412109375
100.502787746255	2.347412109375
100.51278774623	2.347412109375
100.522787746204	2.347412109375
100.532787746179	2.347412109375
100.542787746154	2.347412109375
100.552787746129	2.34710693359375
100.562787746103	2.34710693359375
100.572787746078	2.34710693359375
100.582787746053	2.347412109375
100.592787746028	2.34771728515625
100.602787746002	2.347412109375
100.612787745977	2.347412109375
100.622787745952	2.347412109375
100.632787745927	2.34710693359375
100.642787745901	2.34710693359375
100.652787745876	2.34710693359375
100.662787745851	2.34710693359375
100.672787745826	2.34710693359375
100.6827877458	2.34710693359375
100.692787745775	2.34710693359375
100.70278774575	2.3468017578125
100.712787745725	2.3468017578125
100.722787745699	2.3468017578125
100.732787745674	2.3468017578125
100.742787745649	2.3468017578125
100.752787745624	2.3468017578125
100.762787745598	2.34649658203125
100.772787745573	2.34649658203125
100.782787745548	2.34649658203125
100.792787745523	2.3468017578125
100.802787745497	2.3468017578125
100.812787745472	2.3468017578125
100.822787745447	2.3468017578125
100.832787745422	2.3468017578125
100.842787745396	2.3468017578125
100.852787745371	2.3468017578125
100.862787745346	2.3468017578125
100.872787745321	2.3468017578125
100.882787745295	2.3468017578125
100.89278774527	2.3468017578125
100.902787745245	2.3468017578125
100.91278774522	2.3468017578125
100.922787745194	2.34710693359375
100.932787745169	2.3468017578125
100.942787745144	2.3468017578125
100.952787745119	2.3468017578125
100.962787745093	2.34710693359375
100.972787745068	2.3468017578125
100.982787745043	2.34710693359375
100.992787745018	2.34710693359375
101.002787744992	2.3468017578125
101.012787744967	2.3468017578125
101.022787744942	2.3468017578125
101.032787744917	2.3468017578125
101.042787744891	2.3468017578125
101.052787744866	2.3468017578125
101.062787744841	2.34649658203125
101.072787744816	2.34649658203125
101.08278774479	2.3468017578125
101.092787744765	2.34649658203125
101.10278774474	2.34649658203125
101.112787744715	2.34649658203125
101.12278774469	2.34619140625
101.132787744664	2.34619140625
101.142787744639	2.34619140625
101.152787744614	2.34619140625
101.162787744589	2.34619140625
101.172787744563	2.34619140625
101.182787744538	2.34588623046875
101.192787744513	2.34588623046875
101.202787744488	2.34619140625
101.212787744462	2.34588623046875
101.222787744437	2.34588623046875
101.232787744412	2.34588623046875
101.242787744387	2.34588623046875
101.252787744361	2.34619140625
101.262787744336	2.34588623046875
101.272787744311	2.34588623046875
101.282787744286	2.34588623046875
101.29278774426	2.34588623046875
101.302787744235	2.34588623046875
101.31278774421	2.34588623046875
101.322787744185	2.34588623046875
101.332787744159	2.34588623046875
101.342787744134	2.34588623046875
101.352787744109	2.34588623046875
101.362787744084	2.34588623046875
101.372787744058	2.34588623046875
101.382787744033	2.34619140625
101.392787744008	2.34619140625
101.402787743983	2.34619140625
101.412787743957	2.34619140625
101.422787743932	2.34619140625
101.432787743907	2.34588623046875
101.442787743882	2.34619140625
101.452787743856	2.34619140625
101.462787743831	2.34588623046875
101.472787743806	2.34588623046875
101.482787743781	2.34588623046875
101.492787743755	2.34588623046875
101.50278774373	2.34588623046875
101.512787743705	2.34588623046875
101.52278774368	2.34588623046875
101.532787743654	2.34588623046875
101.542787743629	2.34588623046875
101.552787743604	2.34588623046875
101.562787743579	2.34588623046875
101.572787743553	2.34588623046875
101.582787743528	2.34588623046875
101.592787743503	2.3455810546875
101.602787743478	2.3455810546875
101.612787743452	2.3455810546875
101.622787743427	2.34588623046875
101.632787743402	2.34588623046875
101.642787743377	2.34588623046875
101.652787743351	2.34588623046875
101.662787743326	2.34588623046875
101.672787743301	2.34588623046875
101.682787743276	2.34588623046875
101.69278774325	2.3455810546875
101.702787743225	2.3455810546875
101.7127877432	2.3455810546875
101.722787743175	2.34588623046875
101.732787743149	2.34588623046875
101.742787743124	2.34588623046875
