Time (s)	WE(1).Potential (V)
17.2146959565371	2.3358154296875
17.2246959565118	2.33612060546875
17.2346959564866	2.33612060546875
17.2446959564613	2.3358154296875
17.2546959564361	2.33612060546875
17.2646959564108	2.33642578125
17.2746959563856	2.33642578125
17.2846959563603	2.33673095703125
17.2946959563351	2.33673095703125
17.3046959563098	2.33673095703125
17.3146959562846	2.33642578125
17.3246959562593	2.33673095703125
17.3346959562341	2.33673095703125
17.3446959562089	2.33673095703125
17.3546959561836	2.3370361328125
17.3646959561584	2.33673095703125
17.3746959561331	2.33642578125
17.3846959561079	2.33642578125
17.3946959560826	2.33673095703125
17.4046959560574	2.33673095703125
17.4146959560321	2.33673095703125
17.4246959560069	2.33673095703125
17.4346959559816	2.33673095703125
17.4446959559564	2.33673095703125
17.4546959559311	2.33673095703125
17.4646959559059	2.33642578125
17.4746959558806	2.33673095703125
17.4846959558554	2.3370361328125
17.4946959558301	2.33612060546875
17.5046959558049	2.33642578125
17.5146959557796	2.33642578125
17.5246959557544	2.33673095703125
17.5346959557291	2.33642578125
17.5446959557039	2.33642578125
17.5546959556787	2.33673095703125
17.5646959556534	2.3370361328125
17.5746959556282	2.33673095703125
17.5846959556029	2.3370361328125
17.5946959555777	2.3370361328125
17.6046959555524	2.3370361328125
17.6146959555272	2.33734130859375
17.6246959555019	2.3370361328125
17.6346959554767	2.33734130859375
17.6446959554514	2.33734130859375
17.6546959554262	2.33795166015625
17.6646959554009	2.33734130859375
17.6746959553757	2.33734130859375
17.6846959553504	2.337646484375
17.6946959553252	2.3382568359375
17.7046959552999	2.3388671875
17.7146959552747	2.3388671875
17.7246959552494	2.3388671875
17.7346959552242	2.33856201171875
17.7446959551989	2.33856201171875
17.7546959551737	2.33856201171875
17.7646959551485	2.3388671875
17.7746959551232	2.33917236328125
17.784695955098	2.33856201171875
17.7946959550727	2.33917236328125
17.8046959550475	2.33917236328125
17.8146959550222	2.3394775390625
17.824695954997	2.33917236328125
17.8346959549717	2.33917236328125
17.8446959549465	2.3394775390625
17.8546959549212	2.3394775390625
17.864695954896	2.3394775390625
17.8746959548707	2.33917236328125
17.8846959548455	2.33978271484375
17.8946959548202	2.3394775390625
17.904695954795	2.3394775390625
17.9146959547697	2.33978271484375
17.9246959547445	2.3394775390625
17.9346959547192	2.3394775390625
17.944695954694	2.33978271484375
17.9546959546688	2.33978271484375
17.9646959546435	2.33978271484375
17.9746959546183	2.3394775390625
17.984695954593	2.3394775390625
17.9946959545678	2.3388671875
18.0046959545425	2.3388671875
18.0146959545173	2.33917236328125
18.024695954492	2.33917236328125
18.0346959544668	2.3394775390625
18.0446959544415	2.33978271484375
18.0546959544163	2.3394775390625
18.064695954391	2.340087890625
18.0746959543658	2.34039306640625
18.0846959543405	2.34100341796875
18.0946959543153	2.34130859375
18.10469595429	2.3406982421875
18.1146959542648	2.3406982421875
18.1246959542395	2.3406982421875
18.1346959542143	2.34039306640625
18.144695954189	2.34039306640625
18.1546959541638	2.34039306640625
18.1646959541386	2.34039306640625
18.1746959541133	2.34039306640625
18.1846959540881	2.34039306640625
18.1946959540628	2.3406982421875
18.2046959540376	2.34039306640625
18.2146959540123	2.34039306640625
18.2246959539871	2.340087890625
18.2346959539618	2.34039306640625
18.2446959539366	2.340087890625
18.2546959539113	2.34039306640625
18.2646959538861	2.34039306640625
18.2746959538608	2.340087890625
18.2846959538356	2.340087890625
18.2946959538103	2.33978271484375
18.3046959537851	2.340087890625
18.3146959537598	2.340087890625
18.3246959537346	2.340087890625
18.3346959537093	2.33978271484375
18.3446959536841	2.33978271484375
18.3546959536588	2.340087890625
18.3646959536336	2.33978271484375
18.3746959536084	2.340087890625
18.3846959535831	2.340087890625
18.3946959535579	2.340087890625
18.4046959535326	2.33978271484375
18.4146959535074	2.340087890625
18.4246959534821	2.34039306640625
18.4346959534569	2.3406982421875
18.4446959534316	2.3406982421875
18.4546959534064	2.3406982421875
18.4646959533811	2.34039306640625
18.4746959533559	2.3406982421875
18.4846959533306	2.3406982421875
18.4946959533054	2.34039306640625
18.5046959532801	2.340087890625
18.5146959532549	2.340087890625
18.5246959532296	2.340087890625
18.5346959532044	2.33978271484375
18.5446959531791	2.33978271484375
18.5546959531539	2.33978271484375
18.5646959531286	2.33978271484375
18.5746959531034	2.340087890625
18.5846959530782	2.33978271484375
18.5946959530529	2.340087890625
18.6046959530277	2.34039306640625
18.6146959530024	2.340087890625
18.6246959529772	2.340087890625
18.6346959529519	2.340087890625
18.6446959529267	2.340087890625
18.6546959529014	2.34039306640625
18.6646959528762	2.34039306640625
18.6746959528509	2.34039306640625
18.6846959528257	2.3406982421875
18.6946959528004	2.3406982421875
18.7046959527752	2.340087890625
18.7146959527499	2.340087890625
18.7246959527247	2.340087890625
18.7346959526994	2.34039306640625
18.7446959526742	2.3406982421875
18.7546959526489	2.34039306640625
18.7646959526237	2.3406982421875
18.7746959525984	2.34039306640625
18.7846959525732	2.3406982421875
18.794695952548	2.34100341796875
18.8046959525227	2.3406982421875
18.8146959524975	2.34039306640625
18.8246959524722	2.3406982421875
18.834695952447	2.34039306640625
18.8446959524217	2.3406982421875
18.8546959523965	2.3406982421875
18.8646959523712	2.3406982421875
18.874695952346	2.3406982421875
18.8846959523207	2.3406982421875
18.8946959522955	2.34039306640625
18.9046959522702	2.34039306640625
18.914695952245	2.3406982421875
18.9246959522197	2.34161376953125
18.9346959521945	2.34100341796875
18.9446959521692	2.34100341796875
18.954695952144	2.34100341796875
18.9646959521187	2.34100341796875
18.9746959520935	2.34161376953125
18.9846959520683	2.34161376953125
18.994695952043	2.3419189453125
19.0046959520178	2.3419189453125
19.0146959519925	2.34161376953125
19.0246959519673	2.34130859375
19.034695951942	2.34100341796875
19.0446959519168	2.34100341796875
19.0546959518915	2.34100341796875
19.0646959518663	2.34100341796875
19.074695951841	2.34100341796875
19.0846959518158	2.34130859375
19.0946959517905	2.34100341796875
19.1046959517653	2.34130859375
19.11469595174	2.34161376953125
19.1246959517148	2.34130859375
19.1346959516895	2.34161376953125
19.1446959516643	2.34161376953125
19.154695951639	2.34161376953125
19.1646959516138	2.34161376953125
19.1746959515885	2.34100341796875
19.1846959515633	2.34100341796875
19.1946959515381	2.34100341796875
19.2046959515128	2.3406982421875
19.2146959514876	2.34100341796875
19.2246959514623	2.34100341796875
19.2346959514371	2.34100341796875
19.2446959514118	2.3406982421875
19.2546959513866	2.34100341796875
19.2646959513613	2.34130859375
19.2746959513361	2.34130859375
19.2846959513108	2.34100341796875
19.2946959512856	2.34100341796875
19.3046959512603	2.34130859375
19.3146959512351	2.34100341796875
19.3246959512098	2.3406982421875
19.3346959511846	2.34039306640625
19.3446959511593	2.34039306640625
19.3546959511341	2.3406982421875
19.3646959511088	2.340087890625
19.3746959510836	2.340087890625
19.3846959510583	2.34039306640625
19.3946959510331	2.34039306640625
19.4046959510079	2.3406982421875
19.4146959509826	2.3406982421875
19.4246959509574	2.3406982421875
19.4346959509321	2.34100341796875
19.4446959509069	2.3419189453125
19.4546959508816	2.34130859375
19.4646959508564	2.34130859375
19.4746959508311	2.34100341796875
19.4846959508059	2.34100341796875
19.4946959507806	2.34130859375
19.5046959507554	2.34100341796875
19.5146959507301	2.34100341796875
19.5246959507049	2.3406982421875
19.5346959506796	2.3406982421875
19.5446959506544	2.34039306640625
19.5546959506291	2.34039306640625
19.5646959506039	2.3406982421875
19.5746959505786	2.3406982421875
19.5846959505534	2.3406982421875
19.5946959505281	2.3406982421875
19.6046959505029	2.3406982421875
19.6146959504777	2.34039306640625
19.6246959504524	2.340087890625
19.6346959504272	2.34039306640625
19.6446959504019	2.33978271484375
19.6546959503767	2.34039306640625
19.6646959503514	2.340087890625
19.6746959503262	2.340087890625
19.6846959503009	2.33978271484375
19.6946959502757	2.340087890625
19.7046959502504	2.340087890625
19.7146959502252	2.34039306640625
19.7246959501999	2.340087890625
19.7346959501747	2.33978271484375
19.7446959501494	2.33978271484375
19.7546959501242	2.33978271484375
19.7646959500989	2.340087890625
19.7746959500737	2.34039306640625
19.7846959500484	2.340087890625
19.7946959500232	2.340087890625
19.8046959499979	2.340087890625
19.8146959499727	2.34039306640625
19.8246959499475	2.34039306640625
19.8346959499222	2.340087890625
19.844695949897	2.3406982421875
19.8546959498717	2.34039306640625
19.8646959498465	2.340087890625
19.8746959498212	2.33978271484375
19.884695949796	2.340087890625
19.8946959497707	2.33978271484375
19.9046959497455	2.33978271484375
19.9146959497202	2.33978271484375
19.924695949695	2.33978271484375
19.9346959496697	2.33978271484375
19.9446959496445	2.340087890625
19.9546959496192	2.340087890625
19.964695949594	2.340087890625
19.9746959495687	2.340087890625
19.9846959495435	2.340087890625
19.9946959495182	2.34039306640625
20.004695949493	2.3406982421875
20.0146959494678	2.34039306640625
20.0246959494425	2.3406982421875
20.0346959494173	2.34039306640625
20.044695949392	2.34039306640625
20.0546959493668	2.34039306640625
20.0646959493415	2.340087890625
20.0746959493163	2.33978271484375
20.084695949291	2.33978271484375
20.0946959492658	2.340087890625
20.1046959492405	2.34039306640625
20.1146959492153	2.3406982421875
20.12469594919	2.3406982421875
20.1346959491648	2.3406982421875
20.1446959491395	2.34039306640625
20.1546959491143	2.34039306640625
20.164695949089	2.340087890625
20.1746959490638	2.33978271484375
20.1846959490385	2.33978271484375
20.1946959490133	2.33978271484375
20.204695948988	2.340087890625
20.2146959489628	2.33978271484375
20.2246959489376	2.3394775390625
20.2346959489123	2.33978271484375
20.2446959488871	2.33978271484375
20.2546959488618	2.33978271484375
20.2646959488366	2.33978271484375
20.2746959488113	2.33978271484375
20.2846959487861	2.340087890625
20.2946959487608	2.33978271484375
20.3046959487356	2.33978271484375
20.3146959487103	2.33978271484375
20.3246959486851	2.3394775390625
20.3346959486598	2.33978271484375
20.3446959486346	2.3394775390625
20.3546959486093	2.3394775390625
20.3646959485841	2.3394775390625
20.3746959485588	2.33917236328125
20.3846959485336	2.33917236328125
20.3946959485083	2.33917236328125
20.4046959484831	2.3388671875
20.4146959484578	2.3388671875
20.4246959484326	2.3388671875
20.4346959484074	2.3394775390625
20.4446959483821	2.33917236328125
20.4546959483569	2.3394775390625
20.4646959483316	2.33917236328125
20.4746959483064	2.3394775390625
20.4846959482811	2.3394775390625
20.4946959482559	2.33917236328125
20.5046959482306	2.33917236328125
20.5146959482054	2.3394775390625
20.5246959481801	2.3394775390625
20.5346959481549	2.33978271484375
20.5446959481296	2.3394775390625
20.5546959481044	2.3394775390625
20.5646959480791	2.3394775390625
20.5746959480539	2.3394775390625
20.5846959480286	2.3394775390625
20.5946959480034	2.3394775390625
20.6046959479781	2.33917236328125
20.6146959479529	2.3394775390625
20.6246959479276	2.3394775390625
20.6346959479024	2.3394775390625
20.6446959478772	2.3394775390625
20.6546959478519	2.33917236328125
20.6646959478267	2.33917236328125
20.6746959478014	2.3388671875
20.6846959477762	2.3388671875
20.6946959477509	2.33917236328125
20.7046959477257	2.33917236328125
20.7146959477004	2.3388671875
20.7246959476752	2.33917236328125
20.7346959476499	2.3394775390625
20.7446959476247	2.3394775390625
20.7546959475994	2.3394775390625
20.7646959475742	2.33978271484375
20.7746959475489	2.33978271484375
20.7846959475237	2.340087890625
20.7946959474984	2.340087890625
20.8046959474732	2.34039306640625
20.8146959474479	2.34039306640625
20.8246959474227	2.340087890625
20.8346959473974	2.33978271484375
20.8446959473722	2.33978271484375
20.854695947347	2.33978271484375
20.8646959473217	2.340087890625
20.8746959472965	2.34039306640625
20.8846959472712	2.340087890625
20.894695947246	2.340087890625
20.9046959472207	2.340087890625
20.9146959471955	2.33978271484375
20.9246959471702	2.33978271484375
20.934695947145	2.3394775390625
20.9446959471197	2.3394775390625
20.9546959470945	2.3394775390625
20.9646959470692	2.3394775390625
20.974695947044	2.3394775390625
20.9846959470187	2.33978271484375
20.9946959469935	2.33978271484375
21.0046959469682	2.33978271484375
21.014695946943	2.3394775390625
21.0246959469177	2.33917236328125
21.0346959468925	2.33917236328125
21.0446959468673	2.33856201171875
21.054695946842	2.33856201171875
21.0646959468168	2.33856201171875
21.0746959467915	2.3388671875
21.0846959467663	2.3388671875
21.094695946741	2.3388671875
21.1046959467158	2.33856201171875
21.1146959466905	2.33856201171875
21.1246959466653	2.3388671875
21.13469594664	2.3388671875
21.1446959466148	2.3388671875
21.1546959465895	2.33917236328125
21.1646959465643	2.33917236328125
21.174695946539	2.33978271484375
21.1846959465138	2.33978271484375
21.1946959464885	2.33978271484375
21.2046959464633	2.33978271484375
21.214695946438	2.33978271484375
21.2246959464128	2.3394775390625
21.2346959463875	2.3394775390625
21.2446959463623	2.33978271484375
21.2546959463371	2.33978271484375
21.2646959463118	2.33978271484375
21.2746959462866	2.33978271484375
21.2846959462613	2.340087890625
21.2946959462361	2.3406982421875
21.3046959462108	2.3406982421875
21.3146959461856	2.3406982421875
21.3246959461603	2.3406982421875
21.3346959461351	2.34100341796875
21.3446959461098	2.34130859375
21.3546959460846	2.34130859375
21.3646959460593	2.34130859375
21.3746959460341	2.34130859375
21.3846959460088	2.34161376953125
21.3946959459836	2.34161376953125
21.4046959459583	2.34130859375
21.4146959459331	2.34100341796875
21.4246959459078	2.34161376953125
21.4346959458826	2.34130859375
21.4446959458573	2.34100341796875
21.4546959458321	2.34130859375
21.4646959458069	2.34130859375
21.4746959457816	2.34130859375
21.4846959457564	2.34130859375
21.4946959457311	2.34130859375
21.5046959457059	2.34161376953125
21.5146959456806	2.34161376953125
21.5246959456554	2.34161376953125
21.5346959456301	2.34130859375
21.5446959456049	2.34130859375
21.5546959455796	2.34130859375
21.5646959455544	2.34130859375
21.5746959455291	2.34130859375
21.5846959455039	2.34130859375
21.5946959454786	2.34130859375
21.6046959454534	2.34100341796875
21.6146959454281	2.34100341796875
21.6246959454029	2.34161376953125
21.6346959453776	2.34161376953125
21.6446959453524	2.34130859375
21.6546959453271	2.34161376953125
21.6646959453019	2.34100341796875
21.6746959452767	2.34130859375
21.6846959452514	2.34100341796875
21.6946959452262	2.3406982421875
21.7046959452009	2.34161376953125
21.7146959451757	2.34161376953125
21.7246959451504	2.34161376953125
21.7346959451252	2.34130859375
21.7446959450999	2.34130859375
21.7546959450747	2.34161376953125
21.7646959450494	2.34100341796875
21.7746959450242	2.34130859375
21.7846959449989	2.34130859375
21.7946959449737	2.34130859375
21.8046959449484	2.34100341796875
21.8146959449232	2.34130859375
21.8246959448979	2.34100341796875
21.8346959448727	2.34100341796875
21.8446959448474	2.34100341796875
21.8546959448222	2.3406982421875
21.8646959447969	2.34100341796875
21.8746959447717	2.34100341796875
21.8846959447465	2.34130859375
21.8946959447212	2.34100341796875
21.904695944696	2.34100341796875
21.9146959446707	2.3406982421875
21.9246959446455	2.3406982421875
21.9346959446202	2.34039306640625
21.944695944595	2.3406982421875
21.9546959445697	2.34039306640625
21.9646959445445	2.340087890625
21.9746959445192	2.34039306640625
21.984695944494	2.3406982421875
21.9946959444687	2.34039306640625
22.0046959444435	2.3406982421875
22.0146959444182	2.34039306640625
22.024695944393	2.34039306640625
22.0346959443677	2.34039306640625
22.0446959443425	2.34039306640625
22.0546959443172	2.34039306640625
22.064695944292	2.34039306640625
22.0746959442668	2.340087890625
22.0846959442415	2.340087890625
22.0946959442163	2.34039306640625
22.104695944191	2.340087890625
22.1146959441658	2.340087890625
22.1246959441405	2.340087890625
22.1346959441153	2.33978271484375
22.14469594409	2.3394775390625
22.1546959440648	2.3394775390625
22.1646959440395	2.33978271484375
22.1746959440143	2.33978271484375
22.184695943989	2.33978271484375
22.1946959439638	2.340087890625
22.2046959439385	2.33978271484375
