Time (s)	WE(1).Potential (V)
1.38645999649953	1.34857177734375
1.39645999647428	1.35406494140625
1.40645999644903	1.35833740234375
1.41645999642378	1.3629150390625
1.42645999639853	1.36688232421875
1.43645999637329	1.3702392578125
1.44645999634804	1.373291015625
1.45645999632279	1.3763427734375
1.46645999629754	1.3787841796875
1.4764599962723	1.38153076171875
1.48645999624705	1.38427734375
1.4964599962218	1.38671875
1.50645999619655	1.38885498046875
1.51645999617131	1.39129638671875
1.52645999614606	1.3934326171875
1.53645999612081	1.3958740234375
1.54645999609556	1.3983154296875
1.55645999607032	1.400146484375
1.56645999604507	1.4019775390625
1.57645999601982	1.40411376953125
1.58645999599457	1.40594482421875
1.59645999596933	1.40716552734375
1.60645999594408	1.4093017578125
1.61645999591883	1.41082763671875
1.62645999589358	1.41265869140625
1.63645999586834	1.414794921875
1.64645999584309	1.4166259765625
1.65645999581784	1.41845703125
1.66645999579259	1.41998291015625
1.67645999576735	1.42120361328125
1.6864599957421	1.42303466796875
1.69645999571685	1.424560546875
1.7064599956916	1.42608642578125
1.71645999566636	1.4276123046875
1.72645999564111	1.429443359375
1.73645999561586	1.4306640625
1.74645999559061	1.43218994140625
1.75645999556536	1.43341064453125
1.76645999554012	1.4349365234375
1.77645999551487	1.43646240234375
1.78645999548962	1.43798828125
1.79645999546437	1.439208984375
1.80645999543913	1.44073486328125
1.81645999541388	1.44195556640625
1.82645999538863	1.44317626953125
1.83645999536338	1.44439697265625
1.84645999533814	1.44561767578125
1.85645999531289	1.44683837890625
1.86645999528764	1.44805908203125
1.87645999526239	1.44927978515625
1.88645999523715	1.4501953125
1.8964599952119	1.45111083984375
1.90645999518665	1.45233154296875
1.9164599951614	1.453857421875
1.92645999513616	1.45477294921875
1.93645999511091	1.4556884765625
1.94645999508566	1.4569091796875
1.95645999506041	1.45782470703125
1.96645999503517	1.458740234375
1.97645999500992	1.4599609375
1.98645999498467	1.46087646484375
1.99645999495942	1.46209716796875
2.00645999493418	1.46331787109375
2.01645999490893	1.46453857421875
2.02645999488368	1.4654541015625
2.03645999485843	1.46636962890625
2.04645999483319	1.46728515625
2.05645999480794	1.468505859375
2.06645999478269	1.46942138671875
2.07645999475744	1.47003173828125
2.08645999473219	1.47125244140625
2.09645999470695	1.47216796875
2.1064599946817	1.47308349609375
2.11645999465645	1.4739990234375
2.1264599946312	1.4752197265625
2.13645999460596	1.47613525390625
2.14645999458071	1.47705078125
2.15645999455546	1.47796630859375
2.16645999453021	1.4788818359375
2.17645999450497	1.4794921875
2.18645999447972	1.480712890625
2.19645999445447	1.48162841796875
2.20645999442922	1.4825439453125
2.21645999440398	1.483154296875
2.22645999437873	1.4837646484375
2.23645999435348	1.48468017578125
2.24645999432823	1.485595703125
2.25645999430299	1.48651123046875
2.26645999427774	1.4874267578125
2.27645999425249	1.48834228515625
2.28645999422724	1.4892578125
2.296459994202	1.4898681640625
2.30645999417675	1.490478515625
2.3164599941515	1.49169921875
2.32645999412625	1.4923095703125
2.33645999410101	1.49322509765625
2.34645999407576	1.494140625
2.35645999405051	1.495361328125
2.36645999402526	1.4959716796875
2.37645999400002	1.49658203125
2.38645999397477	1.4971923828125
2.39645999394952	1.49810791015625
2.40645999392427	1.4990234375
2.41645999389902	1.49993896484375
2.42645999387378	1.5008544921875
2.43645999384853	1.50146484375
2.44645999382328	1.5020751953125
2.45645999379803	1.50299072265625
2.46645999377279	1.50390625
2.47645999374754	1.50482177734375
2.48645999372229	1.5057373046875
2.49645999369704	1.50634765625
2.5064599936718	1.5069580078125
2.51645999364655	1.507568359375
2.5264599936213	1.50848388671875
2.53645999359605	1.50909423828125
2.54645999357081	1.50970458984375
2.55645999354556	1.51031494140625
2.56645999352031	1.51123046875
2.57645999349506	1.51214599609375
2.58645999346982	1.5130615234375
2.59645999344457	1.513671875
2.60645999341932	1.5142822265625
2.61645999339407	1.51519775390625
2.62645999336883	1.51580810546875
2.63645999334358	1.51641845703125
2.64645999331833	1.517333984375
2.65645999329308	1.517333984375
2.66645999326784	1.51824951171875
2.67645999324259	1.5191650390625
2.68645999321734	1.519775390625
2.69645999319209	1.5203857421875
2.70645999316685	1.52099609375
2.7164599931416	1.5216064453125
2.72645999311635	1.52252197265625
2.7364599930911	1.5228271484375
2.74645999306586	1.52374267578125
2.75645999304061	1.52435302734375
2.76645999301536	1.52496337890625
2.77645999299011	1.52557373046875
2.78645999296486	1.52618408203125
2.79645999293962	1.527099609375
2.80645999291437	1.5277099609375
2.81645999288912	1.52862548828125
2.82645999286387	1.52923583984375
2.83645999283863	1.529541015625
2.84645999281338	1.5301513671875
2.85645999278813	1.53076171875
2.86645999276288	1.5313720703125
2.87645999273764	1.53228759765625
2.88645999271239	1.53289794921875
2.89645999268714	1.53350830078125
2.90645999266189	1.53411865234375
2.91645999263665	1.53472900390625
2.9264599926114	1.53533935546875
2.93645999258615	1.53594970703125
2.9464599925609	1.53656005859375
2.95645999253566	1.53717041015625
2.96645999251041	1.53778076171875
2.97645999248516	1.53839111328125
2.98645999245991	1.5386962890625
2.99645999243467	1.539306640625
3.00645999240942	1.54022216796875
3.01645999238417	1.54083251953125
3.02645999235892	1.54144287109375
3.03645999233368	1.5423583984375
3.04645999230843	1.54266357421875
3.05645999228318	1.54327392578125
3.06645999225793	1.5435791015625
3.07645999223269	1.544189453125
3.08645999220744	1.5447998046875
3.09645999218219	1.54541015625
3.10645999215694	1.54571533203125
3.11645999213169	1.546630859375
3.12645999210645	1.5472412109375
3.1364599920812	1.5478515625
3.14645999205595	1.54876708984375
3.1564599920307	1.54937744140625
3.16645999200546	1.54998779296875
3.17645999198021	1.55059814453125
3.18645999195496	1.55120849609375
3.19645999192971	1.551513671875
3.20645999190447	1.55242919921875
3.21645999187922	1.55303955078125
3.22645999185397	1.55364990234375
3.23645999182872	1.55426025390625
3.24645999180348	1.5545654296875
3.25645999177823	1.55517578125
3.26645999175298	1.55609130859375
3.27645999172773	1.55670166015625
3.28645999170249	1.5570068359375
3.29645999167724	1.55731201171875
3.30645999165199	1.55792236328125
3.31645999162674	1.558837890625
3.3264599916015	1.55914306640625
3.33645999157625	1.5594482421875
3.346459991551	1.56005859375
3.35645999152575	1.56036376953125
3.36645999150051	1.561279296875
3.37645999147526	1.5618896484375
3.38645999145001	1.56219482421875
3.39645999142476	1.5625
3.40645999139952	1.5631103515625
3.41645999137427	1.56341552734375
3.42645999134902	1.56402587890625
3.43645999132377	1.5643310546875
3.44645999129852	1.56524658203125
3.45645999127328	1.56585693359375
3.46645999124803	1.566162109375
3.47645999122278	1.5667724609375
3.48645999119753	1.56707763671875
3.49645999117229	1.56768798828125
3.50645999114704	1.5679931640625
3.51645999112179	1.568603515625
3.52645999109654	1.56890869140625
3.5364599910713	1.56951904296875
3.54645999104605	1.56982421875
3.5564599910208	1.5704345703125
3.56645999099555	1.57073974609375
3.57645999097031	1.571044921875
3.58645999094506	1.5716552734375
3.59645999091981	1.572265625
3.60645999089456	1.5728759765625
3.61645999086932	1.573486328125
3.62645999084407	1.57379150390625
3.63645999081882	1.57440185546875
3.64645999079357	1.57470703125
3.65645999076833	1.5753173828125
3.66645999074308	1.57562255859375
3.67645999071783	1.575927734375
3.68645999069258	1.57623291015625
3.69645999066734	1.57684326171875
3.70645999064209	1.57745361328125
3.71645999061684	1.57806396484375
3.72645999059159	1.57806396484375
3.73645999056635	1.57867431640625
3.7464599905411	1.57928466796875
3.75645999051585	1.57989501953125
3.7664599904906	1.5802001953125
3.77645999046536	1.5802001953125
3.78645999044011	1.580810546875
3.79645999041486	1.5814208984375
3.80645999038961	1.5814208984375
3.81645999036436	1.58203125
3.82645999033912	1.58233642578125
3.83645999031387	1.5826416015625
3.84645999028862	1.58294677734375
3.85645999026337	1.583251953125
3.86645999023813	1.5838623046875
3.87645999021288	1.58447265625
3.88645999018763	1.5850830078125
3.89645999016238	1.58538818359375
3.90645999013714	1.585693359375
3.91645999011189	1.5863037109375
3.92645999008664	1.58660888671875
3.93645999006139	1.58721923828125
3.94645999003615	1.58721923828125
3.9564599900109	1.5875244140625
3.96645998998565	1.588134765625
3.9764599899604	1.58843994140625
3.98645998993516	1.5887451171875
3.99645998990991	1.58935546875
4.00645998988466	1.5899658203125
4.01645998985941	1.59027099609375
4.02645998983417	1.590576171875
4.03645998980892	1.59088134765625
4.04645998978367	1.5911865234375
4.05645998975842	1.591796875
4.06645998973318	1.5924072265625
4.07645998970793	1.5924072265625
4.08645998968268	1.593017578125
4.09645998965743	1.59332275390625
4.10645998963219	1.5936279296875
4.11645998960694	1.59423828125
4.12645998958169	1.59454345703125
4.13645998955644	1.59515380859375
4.14645998953119	1.595458984375
4.15645998950595	1.59576416015625
4.1664599894807	1.5960693359375
4.17645998945545	1.5966796875
4.1864599894302	1.59698486328125
4.19645998940496	1.59698486328125
4.20645998937971	1.5972900390625
4.21645998935446	1.59759521484375
4.22645998932921	1.597900390625
4.23645998930397	1.59820556640625
4.24645998927872	1.59881591796875
4.25645998925347	1.59881591796875
4.26645998922822	1.59912109375
4.27645998920298	1.59942626953125
4.28645998917773	1.59942626953125
4.29645998915248	1.5997314453125
4.30645998912723	1.60003662109375
4.31645998910199	1.600341796875
4.32645998907674	1.6009521484375
4.33645998905149	1.6015625
4.34645998902624	1.6015625
4.356459989001	1.6021728515625
4.36645998897575	1.60247802734375
4.3764599889505	1.60308837890625
4.38645998892525	1.6033935546875
4.39645998890001	1.60400390625
4.40645998887476	1.60430908203125
4.41645998884951	1.6046142578125
4.42645998882426	1.60491943359375
4.43645998879902	1.605224609375
4.44645998877377	1.605224609375
4.45645998874852	1.60552978515625
4.46645998872327	1.60552978515625
4.47645998869802	1.6058349609375
4.48645998867278	1.60614013671875
4.49645998864753	1.60675048828125
4.50645998862228	1.6070556640625
4.51645998859703	1.60736083984375
4.52645998857179	1.607666015625
4.53645998854654	1.6082763671875
4.54645998852129	1.60858154296875
4.55645998849604	1.60888671875
4.5664599884708	1.60888671875
4.57645998844555	1.60919189453125
4.5864599884203	1.6094970703125
4.59645998839505	1.6094970703125
4.60645998836981	1.60980224609375
4.61645998834456	1.61041259765625
4.62645998831931	1.61041259765625
4.63645998829406	1.61102294921875
4.64645998826882	1.611328125
4.65645998824357	1.611328125
4.66645998821832	1.611328125
4.67645998819307	1.611328125
4.68645998816783	1.6119384765625
4.69645998814258	1.6119384765625
4.70645998811733	1.61224365234375
4.71645998809208	1.612548828125
4.72645998806684	1.61285400390625
4.73645998804159	1.6131591796875
4.74645998801634	1.61346435546875
4.75645998799109	1.61376953125
4.76645998796585	1.61407470703125
4.7764599879406	1.61407470703125
4.78645998791535	1.61468505859375
4.7964599878901	1.61529541015625
4.80645998786486	1.61529541015625
4.81645998783961	1.6156005859375
4.82645998781436	1.61590576171875
4.83645998778911	1.6162109375
4.84645998776386	1.6168212890625
4.85645998773862	1.6168212890625
4.86645998771337	1.61712646484375
4.87645998768812	1.617431640625
4.88645998766287	1.61773681640625
4.89645998763763	1.6180419921875
4.90645998761238	1.61834716796875
4.91645998758713	1.61834716796875
4.92645998756188	1.61895751953125
4.93645998753664	1.6192626953125
4.94645998751139	1.6192626953125
4.95645998748614	1.6192626953125
4.96645998746089	1.619873046875
4.97645998743565	1.62017822265625
4.9864599874104	1.6204833984375
4.99645998738515	1.62078857421875
5.0064599873599	1.62078857421875
5.01645998733466	1.62109375
5.02645998730941	1.62139892578125
5.03645998728416	1.62200927734375
5.04645998725891	1.622314453125
5.05645998723367	1.622314453125
5.06645998720842	1.62261962890625
5.07645998718317	1.62261962890625
5.08645998715792	1.6229248046875
5.09645998713268	1.62322998046875
5.10645998710743	1.62322998046875
5.11645998708218	1.62353515625
5.12645998705693	1.62384033203125
5.13645998703169	1.62384033203125
5.14645998700644	1.6241455078125
5.15645998698119	1.62445068359375
5.16645998695594	1.62445068359375
5.17645998693069	1.62506103515625
5.18645998690545	1.6253662109375
5.1964599868802	1.62567138671875
5.20645998685495	1.62567138671875
5.2164599868297	1.62628173828125
5.22645998680446	1.6265869140625
5.23645998677921	1.62689208984375
5.24645998675396	1.62689208984375
5.25645998672871	1.62689208984375
5.26645998670347	1.62750244140625
5.27645998667822	1.62750244140625
5.28645998665297	1.62750244140625
5.29645998662772	1.6278076171875
5.30645998660248	1.62811279296875
5.31645998657723	1.62841796875
5.32645998655198	1.6290283203125
5.33645998652673	1.6290283203125
5.34645998650149	1.62872314453125
5.35645998647624	1.62872314453125
5.36645998645099	1.6290283203125
5.37645998642574	1.6290283203125
5.3864599864005	1.62933349609375
5.39645998637525	1.629638671875
5.40645998635	1.6302490234375
5.41645998632475	1.63055419921875
5.42645998629951	1.630859375
5.43645998627426	1.63116455078125
5.44645998624901	1.63116455078125
5.45645998622376	1.6314697265625
5.46645998619852	1.6314697265625
5.47645998617327	1.63177490234375
5.48645998614802	1.632080078125
5.49645998612277	1.63238525390625
5.50645998609752	1.6326904296875
5.51645998607228	1.6326904296875
5.52645998604703	1.63299560546875
5.53645998602178	1.63330078125
5.54645998599653	1.63360595703125
5.55645998597129	1.63421630859375
5.56645998594604	1.63421630859375
5.57645998592079	1.63421630859375
5.58645998589554	1.63421630859375
5.5964599858703	1.634521484375
5.60645998584505	1.63482666015625
5.6164599858198	1.63482666015625
5.62645998579455	1.63482666015625
5.63645998576931	1.63482666015625
5.64645998574406	1.6351318359375
5.65645998571881	1.63543701171875
5.66645998569356	1.6357421875
5.67645998566832	1.63604736328125
5.68645998564307	1.6363525390625
5.69645998561782	1.6363525390625
5.70645998559257	1.63665771484375
5.71645998556733	1.636962890625
5.72645998554208	1.63726806640625
5.73645998551683	1.63726806640625
5.74645998549158	1.6375732421875
5.75645998546634	1.63787841796875
5.76645998544109	1.63787841796875
5.77645998541584	1.63818359375
5.78645998539059	1.63818359375
5.79645998536535	1.63848876953125
5.8064599853401	1.6387939453125
5.81645998531485	1.6387939453125
5.8264599852896	1.63909912109375
5.83645998526436	1.639404296875
5.84645998523911	1.639404296875
5.85645998521386	1.6400146484375
5.86645998518861	1.64031982421875
5.87645998516336	1.64031982421875
5.88645998513812	1.640625
5.89645998511287	1.64093017578125
5.90645998508762	1.6412353515625
5.91645998506237	1.6412353515625
5.92645998503713	1.64093017578125
5.93645998501188	1.6412353515625
5.94645998498663	1.64154052734375
5.95645998496138	1.64154052734375
5.96645998493614	1.64215087890625
5.97645998491089	1.6424560546875
5.98645998488564	1.64276123046875
5.99645998486039	1.64276123046875
6.00645998483515	1.64306640625
6.0164599848099	1.64337158203125
6.02645998478465	1.64398193359375
6.0364599847594	1.644287109375
6.04645998473416	1.644287109375
6.05645998470891	1.644287109375
6.06645998468366	1.64459228515625
6.07645998465841	1.64459228515625
6.08645998463317	1.6448974609375
6.09645998460792	1.64520263671875
6.10645998458267	1.64520263671875
6.11645998455742	1.6455078125
6.12645998453218	1.6455078125
6.13645998450693	1.6455078125
6.14645998448168	1.64581298828125
6.15645998445643	1.6461181640625
6.16645998443119	1.64642333984375
6.17645998440594	1.64642333984375
6.18645998438069	1.646728515625
6.19645998435544	1.6473388671875
6.20645998433019	1.64764404296875
6.21645998430495	1.64764404296875
6.2264599842797	1.64825439453125
6.23645998425445	1.64825439453125
6.2464599842292	1.64825439453125
6.25645998420396	1.6485595703125
6.26645998417871	1.649169921875
6.27645998415346	1.64947509765625
6.28645998412821	1.64947509765625
6.29645998410297	1.64947509765625
6.30645998407772	1.64947509765625
6.31645998405247	1.6497802734375
6.32645998402722	1.65008544921875
6.33645998400198	1.65008544921875
6.34645998397673	1.650390625
6.35645998395148	1.650390625
6.36645998392623	1.650390625
6.37645998390099	1.65069580078125
