Time (s)	WE(1).Potential (V)
128.57461667538	2.51953125
128.584616675355	2.51922607421875
128.59461667533	2.51800537109375
128.604616675305	2.51739501953125
128.614616675279	2.51708984375
128.624616675254	2.51678466796875
128.634616675229	2.51678466796875
128.644616675204	2.5177001953125
128.654616675178	2.51953125
128.664616675153	2.51983642578125
128.674616675128	2.51983642578125
128.684616675103	2.51922607421875
128.694616675077	2.51953125
128.704616675052	2.51922607421875
128.714616675027	2.51922607421875
128.724616675002	2.51953125
128.734616674976	2.51953125
128.744616674951	2.51922607421875
128.754616674926	2.51922607421875
128.764616674901	2.51983642578125
128.774616674875	2.51983642578125
128.78461667485	2.52044677734375
128.794616674825	2.51983642578125
128.8046166748	2.5201416015625
128.814616674774	2.51953125
128.824616674749	2.51922607421875
128.834616674724	2.5201416015625
128.844616674699	2.5201416015625
128.854616674673	2.51983642578125
128.864616674648	2.5201416015625
128.874616674623	2.5201416015625
128.884616674598	2.51983642578125
128.894616674572	2.51953125
128.904616674547	2.51922607421875
128.914616674522	2.51922607421875
128.924616674497	2.5189208984375
128.934616674471	2.51922607421875
128.944616674446	2.51922607421875
128.954616674421	2.51983642578125
128.964616674396	2.51983642578125
128.97461667437	2.52044677734375
128.984616674345	2.52044677734375
128.99461667432	2.52044677734375
129.004616674295	2.5201416015625
129.014616674269	2.520751953125
129.024616674244	2.5213623046875
129.034616674219	2.52105712890625
129.044616674194	2.5213623046875
129.054616674168	2.5213623046875
129.064616674143	2.52105712890625
129.074616674118	2.5213623046875
129.084616674093	2.5225830078125
129.094616674067	2.52197265625
129.104616674042	2.52197265625
129.114616674017	2.52227783203125
129.124616673992	2.52197265625
129.134616673966	2.52197265625
129.144616673941	2.52197265625
129.154616673916	2.52288818359375
129.164616673891	2.5225830078125
129.174616673865	2.5225830078125
129.18461667384	2.52227783203125
129.194616673815	2.52288818359375
129.20461667379	2.52288818359375
129.214616673764	2.5225830078125
129.224616673739	2.523193359375
129.234616673714	2.523193359375
129.244616673689	2.523193359375
129.254616673663	2.523193359375
129.264616673638	2.5225830078125
129.274616673613	2.523193359375
129.284616673588	2.52288818359375
129.294616673562	2.523193359375
129.304616673537	2.523193359375
129.314616673512	2.5238037109375
129.324616673487	2.5238037109375
129.334616673461	2.5238037109375
129.344616673436	2.523193359375
129.354616673411	2.52349853515625
129.364616673386	2.52349853515625
129.37461667336	2.523193359375
129.384616673335	2.52288818359375
129.39461667331	2.5225830078125
129.404616673285	2.52349853515625
129.41461667326	2.52349853515625
129.424616673234	2.523193359375
129.434616673209	2.523193359375
129.444616673184	2.523193359375
129.454616673159	2.5225830078125
129.464616673133	2.523193359375
129.474616673108	2.52288818359375
129.484616673083	2.523193359375
129.494616673058	2.52227783203125
129.504616673032	2.523193359375
129.514616673007	2.52288818359375
129.524616672982	2.5225830078125
129.534616672957	2.52166748046875
129.544616672931	2.52227783203125
129.554616672906	2.5225830078125
129.564616672881	2.52288818359375
129.574616672856	2.52227783203125
129.58461667283	2.52288818359375
129.594616672805	2.52166748046875
129.60461667278	2.52227783203125
129.614616672755	2.5225830078125
129.624616672729	2.52288818359375
129.634616672704	2.523193359375
129.644616672679	2.52349853515625
129.654616672654	2.5238037109375
129.664616672628	2.52288818359375
129.674616672603	2.52197265625
129.684616672578	2.52197265625
129.694616672553	2.520751953125
129.704616672527	2.5213623046875
129.714616672502	2.5213623046875
129.724616672477	2.52197265625
129.734616672452	2.523193359375
129.744616672426	2.52349853515625
129.754616672401	2.5238037109375
129.764616672376	2.52349853515625
129.774616672351	2.523193359375
129.784616672325	2.52349853515625
129.7946166723	2.52288818359375
129.804616672275	2.52410888671875
129.81461667225	2.52471923828125
129.824616672224	2.52349853515625
129.834616672199	2.5238037109375
129.844616672174	2.523193359375
129.854616672149	2.523193359375
129.864616672123	2.52349853515625
129.874616672098	2.52288818359375
129.884616672073	2.52288818359375
129.894616672048	2.52288818359375
129.904616672022	2.5225830078125
129.914616671997	2.523193359375
129.924616671972	2.52288818359375
129.934616671947	2.523193359375
129.944616671921	2.523193359375
129.954616671896	2.52349853515625
129.964616671871	2.523193359375
129.974616671846	2.523193359375
129.98461667182	2.52349853515625
129.994616671795	2.52227783203125
130.00461667177	2.523193359375
130.014616671745	2.5225830078125
130.024616671719	2.52349853515625
130.034616671694	2.52227783203125
130.044616671669	2.52105712890625
130.054616671644	2.5213623046875
130.064616671618	2.52197265625
130.074616671593	2.5225830078125
130.084616671568	2.52349853515625
130.094616671543	2.5225830078125
130.104616671517	2.523193359375
130.114616671492	2.52227783203125
130.124616671467	2.5225830078125
130.134616671442	2.52227783203125
130.144616671416	2.52227783203125
130.154616671391	2.52197265625
130.164616671366	2.52197265625
130.174616671341	2.5225830078125
130.184616671315	2.5225830078125
130.19461667129	2.52288818359375
130.204616671265	2.52349853515625
130.21461667124	2.523193359375
130.224616671214	2.5238037109375
130.234616671189	2.5250244140625
130.244616671164	2.5250244140625
130.254616671139	2.5250244140625
130.264616671113	2.52593994140625
130.274616671088	2.52532958984375
130.284616671063	2.525634765625
130.294616671038	2.5244140625
130.304616671012	2.52349853515625
130.314616670987	2.52349853515625
130.324616670962	2.52410888671875
130.334616670937	2.52410888671875
130.344616670911	2.52349853515625
130.354616670886	2.52288818359375
130.364616670861	2.52349853515625
130.374616670836	2.523193359375
130.38461667081	2.523193359375
130.394616670785	2.523193359375
130.40461667076	2.52288818359375
130.414616670735	2.52288818359375
130.424616670709	2.523193359375
130.434616670684	2.52288818359375
130.444616670659	2.52288818359375
130.454616670634	2.52349853515625
130.464616670609	2.52349853515625
130.474616670583	2.52227783203125
130.484616670558	2.52227783203125
130.494616670533	2.5225830078125
130.504616670508	2.52227783203125
130.514616670482	2.52227783203125
130.524616670457	2.52227783203125
130.534616670432	2.5225830078125
130.544616670407	2.5225830078125
130.554616670381	2.52197265625
130.564616670356	2.52197265625
130.574616670331	2.52197265625
130.584616670306	2.52166748046875
130.59461667028	2.52227783203125
130.604616670255	2.5225830078125
130.61461667023	2.52349853515625
130.624616670205	2.52349853515625
130.634616670179	2.5225830078125
130.644616670154	2.52288818359375
130.654616670129	2.5225830078125
130.664616670104	2.5225830078125
130.674616670078	2.52288818359375
130.684616670053	2.523193359375
130.694616670028	2.52288818359375
130.704616670003	2.52288818359375
130.714616669977	2.52288818359375
130.724616669952	2.523193359375
130.734616669927	2.52349853515625
130.744616669902	2.523193359375
130.754616669876	2.5238037109375
130.764616669851	2.52288818359375
130.774616669826	2.52166748046875
130.784616669801	2.52197265625
130.794616669775	2.52227783203125
130.80461666975	2.52227783203125
130.814616669725	2.52227783203125
130.8246166697	2.5225830078125
130.834616669674	2.5213623046875
130.844616669649	2.52105712890625
130.854616669624	2.52105712890625
130.864616669599	2.52105712890625
130.874616669573	2.5225830078125
130.884616669548	2.52349853515625
130.894616669523	2.5238037109375
130.904616669498	2.523193359375
130.914616669472	2.5225830078125
130.924616669447	2.520751953125
130.934616669422	2.52105712890625
130.944616669397	2.5213623046875
130.954616669371	2.52166748046875
130.964616669346	2.52105712890625
130.974616669321	2.52105712890625
130.984616669296	2.520751953125
130.99461666927	2.5201416015625
131.004616669245	2.52044677734375
131.01461666922	2.52044677734375
131.024616669195	2.52105712890625
131.034616669169	2.5201416015625
131.044616669144	2.5201416015625
131.054616669119	2.51983642578125
131.064616669094	2.5201416015625
131.074616669068	2.51983642578125
131.084616669043	2.51983642578125
131.094616669018	2.51953125
131.104616668993	2.51983642578125
131.114616668967	2.51922607421875
131.124616668942	2.51983642578125
131.134616668917	2.51861572265625
131.144616668892	2.51861572265625
131.154616668866	2.518310546875
131.164616668841	2.5189208984375
131.174616668816	2.51861572265625
131.184616668791	2.51983642578125
131.194616668765	2.52105712890625
131.20461666874	2.51983642578125
131.214616668715	2.520751953125
131.22461666869	2.5213623046875
131.234616668664	2.52044677734375
131.244616668639	2.520751953125
131.254616668614	2.520751953125
131.264616668589	2.5213623046875
131.274616668563	2.5213623046875
131.284616668538	2.5213623046875
131.294616668513	2.52166748046875
131.304616668488	2.52044677734375
131.314616668462	2.51953125
131.324616668437	2.51953125
131.334616668412	2.51983642578125
131.344616668387	2.51861572265625
131.354616668361	2.51922607421875
131.364616668336	2.51953125
131.374616668311	2.51922607421875
131.384616668286	2.51922607421875
131.39461666826	2.51922607421875
131.404616668235	2.51953125
131.41461666821	2.51983642578125
131.424616668185	2.51861572265625
131.434616668159	2.5201416015625
131.444616668134	2.51983642578125
131.454616668109	2.51953125
131.464616668084	2.51953125
131.474616668059	2.520751953125
131.484616668033	2.5201416015625
131.494616668008	2.5201416015625
131.504616667983	2.5201416015625
131.514616667958	2.520751953125
131.524616667932	2.52105712890625
131.534616667907	2.52105712890625
131.544616667882	2.520751953125
131.554616667857	2.520751953125
131.564616667831	2.520751953125
131.574616667806	2.52044677734375
131.584616667781	2.520751953125
131.594616667756	2.520751953125
131.60461666773	2.520751953125
131.614616667705	2.52044677734375
131.62461666768	2.5201416015625
131.634616667655	2.5201416015625
131.644616667629	2.5201416015625
131.654616667604	2.52044677734375
131.664616667579	2.5201416015625
131.674616667554	2.52044677734375
131.684616667528	2.52044677734375
131.694616667503	2.520751953125
131.704616667478	2.5213623046875
131.714616667453	2.52105712890625
131.724616667427	2.5213623046875
131.734616667402	2.5213623046875
131.744616667377	2.52166748046875
131.754616667352	2.52197265625
131.764616667326	2.52166748046875
131.774616667301	2.520751953125
131.784616667276	2.5201416015625
131.794616667251	2.520751953125
131.804616667225	2.52105712890625
131.8146166672	2.520751953125
131.824616667175	2.5213623046875
131.83461666715	2.5213623046875
131.844616667124	2.52105712890625
131.854616667099	2.52105712890625
131.864616667074	2.52105712890625
131.874616667049	2.520751953125
131.884616667023	2.5201416015625
131.894616666998	2.5177001953125
131.904616666973	2.51739501953125
131.914616666948	2.51739501953125
131.924616666922	2.51739501953125
131.934616666897	2.5177001953125
131.944616666872	2.51800537109375
131.954616666847	2.51800537109375
131.964616666821	2.518310546875
131.974616666796	2.51861572265625
131.984616666771	2.51861572265625
131.994616666746	2.51861572265625
132.00461666672	2.51800537109375
132.014616666695	2.5177001953125
132.02461666667	2.51739501953125
132.034616666645	2.51708984375
132.044616666619	2.51800537109375
132.054616666594	2.51861572265625
132.064616666569	2.51861572265625
132.074616666544	2.51861572265625
132.084616666518	2.51800537109375
132.094616666493	2.51678466796875
132.104616666468	2.5146484375
132.114616666443	2.515869140625
132.124616666417	2.51617431640625
132.134616666392	2.5164794921875
132.144616666367	2.51739501953125
132.154616666342	2.51739501953125
132.164616666316	2.5164794921875
132.174616666291	2.5164794921875
132.184616666266	2.51678466796875
132.194616666241	2.51556396484375
132.204616666215	2.5164794921875
132.21461666619	2.5152587890625
132.224616666165	2.5152587890625
132.23461666614	2.51617431640625
132.244616666114	2.51556396484375
132.254616666089	2.51556396484375
132.264616666064	2.51617431640625
132.274616666039	2.515869140625
132.284616666013	2.51556396484375
132.294616665988	2.515869140625
132.304616665963	2.51617431640625
132.314616665938	2.51556396484375
132.324616665912	2.515869140625
132.334616665887	2.51556396484375
132.344616665862	2.51556396484375
132.354616665837	2.51556396484375
132.364616665811	2.51556396484375
132.374616665786	2.51556396484375
132.384616665761	2.5152587890625
132.394616665736	2.51495361328125
132.40461666571	2.51495361328125
132.414616665685	2.5140380859375
132.42461666566	2.51434326171875
132.434616665635	2.51556396484375
132.444616665609	2.51556396484375
132.454616665584	2.51434326171875
132.464616665559	2.5146484375
132.474616665534	2.51434326171875
132.484616665508	2.51434326171875
132.494616665483	2.51495361328125
132.504616665458	2.5152587890625
132.514616665433	2.5152587890625
132.524616665408	2.5152587890625
132.534616665382	2.5152587890625
132.544616665357	2.5152587890625
132.554616665332	2.5152587890625
132.564616665307	2.5152587890625
132.574616665281	2.51556396484375
132.584616665256	2.5152587890625
132.594616665231	2.515869140625
132.604616665206	2.51617431640625
132.61461666518	2.515869140625
132.624616665155	2.515869140625
132.63461666513	2.515869140625
132.644616665105	2.515869140625
132.654616665079	2.515869140625
132.664616665054	2.5152587890625
132.674616665029	2.51556396484375
132.684616665004	2.515869140625
132.694616664978	2.5164794921875
132.704616664953	2.51708984375
132.714616664928	2.51617431640625
132.724616664903	2.51678466796875
132.734616664877	2.518310546875
132.744616664852	2.518310546875
132.754616664827	2.51800537109375
132.764616664802	2.51800537109375
132.774616664776	2.51708984375
132.784616664751	2.51708984375
132.794616664726	2.5177001953125
132.804616664701	2.51708984375
132.814616664675	2.51708984375
132.82461666465	2.5177001953125
132.834616664625	2.5177001953125
132.8446166646	2.51739501953125
132.854616664574	2.52044677734375
132.864616664549	2.5213623046875
132.874616664524	2.52197265625
132.884616664499	2.52197265625
132.894616664473	2.52197265625
132.904616664448	2.52197265625
132.914616664423	2.52105712890625
132.924616664398	2.520751953125
132.934616664372	2.5213623046875
132.944616664347	2.52044677734375
132.954616664322	2.51983642578125
132.964616664297	2.51800537109375
132.974616664271	2.51922607421875
132.984616664246	2.51800537109375
132.994616664221	2.51861572265625
133.004616664196	2.51922607421875
133.01461666417	2.518310546875
133.024616664145	2.5177001953125
133.03461666412	2.518310546875
133.044616664095	2.51800537109375
133.054616664069	2.51800537109375
133.064616664044	2.51800537109375
133.074616664019	2.5177001953125
133.084616663994	2.51739501953125
133.094616663968	2.51739501953125
133.104616663943	2.51708984375
133.114616663918	2.51495361328125
133.124616663893	2.515869140625
133.134616663867	2.5164794921875
133.144616663842	2.51617431640625
133.154616663817	2.51617431640625
133.164616663792	2.51678466796875
133.174616663766	2.51617431640625
133.184616663741	2.5164794921875
133.194616663716	2.5177001953125
133.204616663691	2.51739501953125
133.214616663665	2.51708984375
133.22461666364	2.51739501953125
133.234616663615	2.51800537109375
133.24461666359	2.51800537109375
133.254616663564	2.51800537109375
133.264616663539	2.51739501953125
133.274616663514	2.51800537109375
133.284616663489	2.51739501953125
133.294616663463	2.518310546875
133.304616663438	2.51861572265625
133.314616663413	2.518310546875
133.324616663388	2.51800537109375
133.334616663362	2.518310546875
133.344616663337	2.51861572265625
133.354616663312	2.51739501953125
133.364616663287	2.51708984375
133.374616663261	2.51678466796875
133.384616663236	2.5164794921875
133.394616663211	2.51708984375
133.404616663186	2.5177001953125
133.41461666316	2.51861572265625
133.424616663135	2.51800537109375
133.43461666311	2.5177001953125
133.444616663085	2.5177001953125
133.454616663059	2.51739501953125
133.464616663034	2.51739501953125
133.474616663009	2.51708984375
133.484616662984	2.51617431640625
133.494616662958	2.5152587890625
133.504616662933	2.5146484375
133.514616662908	2.5146484375
133.524616662883	2.5152587890625
133.534616662858	2.5146484375
133.544616662832	2.5146484375
133.554616662807	2.51495361328125
133.564616662782	2.5146484375
