Time (s)	WE(1).Potential (V)
17.2486399564514	2.476806640625
17.2586399564261	2.476806640625
17.2686399564009	2.4761962890625
17.2786399563756	2.47711181640625
17.2886399563504	2.4774169921875
17.2986399563251	2.4755859375
17.3086399562999	2.47650146484375
17.3186399562746	2.47711181640625
17.3286399562494	2.47589111328125
17.3386399562241	2.4761962890625
17.3486399561989	2.47589111328125
17.3586399561736	2.47589111328125
17.3686399561484	2.4761962890625
17.3786399561232	2.4761962890625
17.3886399560979	2.4761962890625
17.3986399560727	2.47650146484375
17.4086399560474	2.47589111328125
17.4186399560222	2.4761962890625
17.4286399559969	2.4755859375
17.4386399559717	2.47589111328125
17.4486399559464	2.47650146484375
17.4586399559212	2.47772216796875
17.4686399558959	2.47772216796875
17.4786399558707	2.4774169921875
17.4886399558454	2.47711181640625
17.4986399558202	2.47711181640625
17.5086399557949	2.476806640625
17.5186399557697	2.47711181640625
17.5286399557444	2.47711181640625
17.5386399557192	2.4774169921875
17.5486399556939	2.47711181640625
17.5586399556687	2.4774169921875
17.5686399556434	2.47650146484375
17.5786399556182	2.476806640625
17.588639955593	2.4761962890625
17.5986399555677	2.4761962890625
17.6086399555425	2.47650146484375
17.6186399555172	2.47650146484375
17.628639955492	2.47589111328125
17.6386399554667	2.47650146484375
17.6486399554415	2.4755859375
17.6586399554162	2.47528076171875
17.668639955391	2.474365234375
17.6786399553657	2.474365234375
17.6886399553405	2.47467041015625
17.6986399553152	2.474365234375
17.70863995529	2.47406005859375
17.7186399552647	2.4749755859375
17.7286399552395	2.474365234375
17.7386399552142	2.47467041015625
17.748639955189	2.4749755859375
17.7586399551637	2.4749755859375
17.7686399551385	2.4755859375
17.7786399551132	2.47589111328125
17.788639955088	2.47650146484375
17.7986399550628	2.47589111328125
17.8086399550375	2.4761962890625
17.8186399550123	2.476806640625
17.828639954987	2.47650146484375
17.8386399549618	2.47650146484375
17.8486399549365	2.4749755859375
17.8586399549113	2.47589111328125
17.868639954886	2.47589111328125
17.8786399548608	2.4749755859375
17.8886399548355	2.4755859375
17.8986399548103	2.4755859375
17.908639954785	2.47589111328125
17.9186399547598	2.476806640625
17.9286399547345	2.47894287109375
17.9386399547093	2.48138427734375
17.948639954684	2.48016357421875
17.9586399546588	2.48046875
17.9686399546335	2.48016357421875
17.9786399546083	2.48016357421875
17.988639954583	2.48138427734375
17.9986399545578	2.48046875
18.0086399545326	2.48046875
18.0186399545073	2.48016357421875
18.0286399544821	2.48077392578125
18.0386399544568	2.48016357421875
18.0486399544316	2.4798583984375
18.0586399544063	2.47955322265625
18.0686399543811	2.47955322265625
18.0786399543558	2.48199462890625
18.0886399543306	2.49481201171875
18.0986399543053	2.49481201171875
18.1086399542801	2.481689453125
18.1186399542548	2.47894287109375
18.1286399542296	2.4786376953125
18.1386399542043	2.47802734375
18.1486399541791	2.4786376953125
18.1586399541538	2.47955322265625
18.1686399541286	2.48016357421875
18.1786399541033	2.48016357421875
18.1886399540781	2.47955322265625
18.1986399540529	2.47894287109375
18.2086399540276	2.47894287109375
18.2186399540024	2.4798583984375
18.2286399539771	2.4786376953125
18.2386399539519	2.47833251953125
18.2486399539266	2.4786376953125
18.2586399539014	2.47833251953125
18.2686399538761	2.47833251953125
18.2786399538509	2.47833251953125
18.2886399538256	2.47802734375
18.2986399538004	2.47833251953125
18.3086399537751	2.4786376953125
18.3186399537499	2.47894287109375
18.3286399537246	2.4798583984375
18.3386399536994	2.48046875
18.3486399536741	2.4798583984375
18.3586399536489	2.479248046875
18.3686399536236	2.479248046875
18.3786399535984	2.479248046875
18.3886399535731	2.479248046875
18.3986399535479	2.4798583984375
18.4086399535227	2.48046875
18.4186399534974	2.48046875
18.4286399534722	2.48016357421875
18.4386399534469	2.48077392578125
18.4486399534217	2.48077392578125
18.4586399533964	2.48077392578125
18.4686399533712	2.48077392578125
18.4786399533459	2.48138427734375
18.4886399533207	2.48138427734375
18.4986399532954	2.481689453125
18.5086399532702	2.481689453125
18.5186399532449	2.48077392578125
18.5286399532197	2.481689453125
18.5386399531944	2.481689453125
18.5486399531692	2.4822998046875
18.5586399531439	2.48199462890625
18.5686399531187	2.4822998046875
18.5786399530934	2.48138427734375
18.5886399530682	2.4810791015625
18.5986399530429	2.4810791015625
18.6086399530177	2.481689453125
18.6186399529925	2.48291015625
18.6286399529672	2.48260498046875
18.638639952942	2.48382568359375
18.6486399529167	2.48199462890625
18.6586399528915	2.4835205078125
18.6686399528662	2.4835205078125
18.678639952841	2.4835205078125
18.6886399528157	2.484130859375
18.6986399527905	2.4822998046875
18.7086399527652	2.4822998046875
18.71863995274	2.48199462890625
18.7286399527147	2.48138427734375
18.7386399526895	2.48199462890625
18.7486399526642	2.48291015625
18.758639952639	2.4810791015625
18.7686399526137	2.48077392578125
18.7786399525885	2.48077392578125
18.7886399525632	2.48077392578125
18.798639952538	2.48046875
18.8086399525127	2.4798583984375
18.8186399524875	2.48138427734375
18.8286399524623	2.4810791015625
18.838639952437	2.48046875
18.8486399524118	2.48046875
18.8586399523865	2.4798583984375
18.8686399523613	2.48016357421875
18.878639952336	2.47955322265625
18.8886399523108	2.47955322265625
18.8986399522855	2.4786376953125
18.9086399522603	2.47802734375
18.918639952235	2.4786376953125
18.9286399522098	2.47894287109375
18.9386399521845	2.48016357421875
18.9486399521593	2.47894287109375
18.958639952134	2.479248046875
18.9686399521088	2.4798583984375
18.9786399520835	2.48016357421875
18.9886399520583	2.4798583984375
18.998639952033	2.479248046875
19.0086399520078	2.479248046875
19.0186399519825	2.4798583984375
19.0286399519573	2.47955322265625
19.0386399519321	2.48016357421875
19.0486399519068	2.47955322265625
19.0586399518816	2.479248046875
19.0686399518563	2.47894287109375
19.0786399518311	2.4798583984375
19.0886399518058	2.47955322265625
19.0986399517806	2.47833251953125
19.1086399517553	2.47833251953125
19.1186399517301	2.47772216796875
19.1286399517048	2.47894287109375
19.1386399516796	2.479248046875
19.1486399516543	2.4798583984375
19.1586399516291	2.479248046875
19.1686399516038	2.47802734375
19.1786399515786	2.4786376953125
19.1886399515533	2.4786376953125
19.1986399515281	2.47772216796875
19.2086399515028	2.47772216796875
19.2186399514776	2.47833251953125
19.2286399514524	2.47894287109375
19.2386399514271	2.47772216796875
19.2486399514019	2.47833251953125
19.2586399513766	2.47650146484375
19.2686399513514	2.4761962890625
19.2786399513261	2.47711181640625
19.2886399513009	2.4761962890625
19.2986399512756	2.47650146484375
19.3086399512504	2.476806640625
19.3186399512251	2.47650146484375
19.3286399511999	2.4761962890625
19.3386399511746	2.47589111328125
19.3486399511494	2.4761962890625
19.3586399511241	2.47650146484375
19.3686399510989	2.47650146484375
19.3786399510736	2.47528076171875
19.3886399510484	2.4755859375
19.3986399510231	2.4774169921875
19.4086399509979	2.47802734375
19.4186399509726	2.47772216796875
19.4286399509474	2.479248046875
19.4386399509222	2.47833251953125
19.4486399508969	2.479248046875
19.4586399508717	2.47894287109375
19.4686399508464	2.47833251953125
19.4786399508212	2.47955322265625
19.4886399507959	2.47955322265625
19.4986399507707	2.4810791015625
19.5086399507454	2.48016357421875
19.5186399507202	2.48046875
19.5286399506949	2.47802734375
19.5386399506697	2.481689453125
19.5486399506444	2.48016357421875
19.5586399506192	2.47955322265625
19.5686399505939	2.48138427734375
19.5786399505687	2.48016357421875
19.5886399505434	2.48046875
19.5986399505182	2.48046875
19.6086399504929	2.48321533203125
19.6186399504677	2.4810791015625
19.6286399504424	2.48138427734375
19.6386399504172	2.4822998046875
19.648639950392	2.481689453125
19.6586399503667	2.48077392578125
19.6686399503415	2.48199462890625
19.6786399503162	2.48199462890625
19.688639950291	2.48199462890625
19.6986399502657	2.481689453125
19.7086399502405	2.48077392578125
19.7186399502152	2.48046875
19.72863995019	2.48291015625
19.7386399501647	2.48321533203125
19.7486399501395	2.48260498046875
19.7586399501142	2.481689453125
19.768639950089	2.4822998046875
19.7786399500637	2.48321533203125
19.7886399500385	2.481689453125
19.7986399500132	2.481689453125
19.808639949988	2.48077392578125
19.8186399499627	2.47955322265625
19.8286399499375	2.479248046875
19.8386399499122	2.479248046875
19.848639949887	2.47955322265625
19.8586399498618	2.4810791015625
19.8686399498365	2.48077392578125
19.8786399498113	2.4810791015625
19.888639949786	2.48321533203125
19.8986399497608	2.4853515625
19.9086399497355	2.4847412109375
19.9186399497103	2.48504638671875
19.928639949685	2.4853515625
19.9386399496598	2.48504638671875
19.9486399496345	2.4853515625
19.9586399496093	2.4871826171875
19.968639949584	2.484130859375
19.9786399495588	2.48504638671875
19.9886399495335	2.48260498046875
19.9986399495083	2.48321533203125
20.008639949483	2.4822998046875
20.0186399494578	2.48779296875
20.0286399494325	2.48443603515625
20.0386399494073	2.491455078125
20.048639949382	2.48748779296875
20.0586399493568	2.4871826171875
20.0686399493316	2.48443603515625
20.0786399493063	2.48504638671875
20.0886399492811	2.484130859375
20.0986399492558	2.48779296875
20.1086399492306	2.48321533203125
20.1186399492053	2.48260498046875
20.1286399491801	2.48291015625
20.1386399491548	2.4871826171875
20.1486399491296	2.48504638671875
20.1586399491043	2.48321533203125
20.1686399490791	2.48443603515625
20.1786399490538	2.4853515625
20.1886399490286	2.484130859375
20.1986399490033	2.48504638671875
20.2086399489781	2.48504638671875
20.2186399489528	2.491455078125
20.2286399489276	2.4853515625
20.2386399489023	2.484130859375
20.2486399488771	2.4847412109375
20.2586399488519	2.48077392578125
20.2686399488266	2.481689453125
20.2786399488014	2.48077392578125
20.2886399487761	2.48016357421875
20.2986399487509	2.48077392578125
20.3086399487256	2.4822998046875
20.3186399487004	2.48199462890625
20.3286399486751	2.48291015625
20.3386399486499	2.4822998046875
20.3486399486246	2.48138427734375
20.3586399485994	2.48046875
20.3686399485741	2.4810791015625
20.3786399485489	2.48321533203125
20.3886399485236	2.4835205078125
20.3986399484984	2.48443603515625
20.4086399484731	2.48382568359375
20.4186399484479	2.48382568359375
20.4286399484226	2.48382568359375
20.4386399483974	2.48291015625
20.4486399483721	2.4835205078125
20.4586399483469	2.484130859375
20.4686399483217	2.484130859375
20.4786399482964	2.48443603515625
20.4886399482712	2.48291015625
20.4986399482459	2.4822998046875
20.5086399482207	2.48260498046875
20.5186399481954	2.48291015625
20.5286399481702	2.48382568359375
20.5386399481449	2.48291015625
20.5486399481197	2.48199462890625
20.5586399480944	2.481689453125
20.5686399480692	2.4798583984375
20.5786399480439	2.479248046875
20.5886399480187	2.48199462890625
20.5986399479934	2.48199462890625
20.6086399479682	2.48291015625
20.6186399479429	2.48260498046875
20.6286399479177	2.4810791015625
20.6386399478924	2.48077392578125
20.6486399478672	2.48199462890625
20.6586399478419	2.48260498046875
20.6686399478167	2.48199462890625
20.6786399477915	2.48291015625
20.6886399477662	2.48260498046875
20.698639947741	2.484130859375
20.7086399477157	2.48321533203125
20.7186399476905	2.48291015625
20.7286399476652	2.48291015625
20.73863994764	2.484130859375
20.7486399476147	2.48443603515625
20.7586399475895	2.48199462890625
20.7686399475642	2.4822998046875
20.778639947539	2.4853515625
20.7886399475137	2.48809814453125
20.7986399474885	2.4798583984375
20.8086399474632	2.48199462890625
20.818639947438	2.48626708984375
20.8286399474127	2.48382568359375
20.8386399473875	2.48565673828125
20.8486399473622	2.4786376953125
20.858639947337	2.48992919921875
20.8686399473117	2.48870849609375
20.8786399472865	2.48565673828125
20.8886399472613	2.4810791015625
20.898639947236	2.48077392578125
20.9086399472108	2.48138427734375
20.9186399471855	2.479248046875
20.9286399471603	2.4798583984375
20.938639947135	2.48077392578125
20.9486399471098	2.48077392578125
20.9586399470845	2.48077392578125
20.9686399470593	2.48138427734375
20.978639947034	2.4810791015625
20.9886399470088	2.48077392578125
20.9986399469835	2.4810791015625
21.0086399469583	2.48138427734375
21.018639946933	2.4822998046875
21.0286399469078	2.48260498046875
21.0386399468825	2.48321533203125
21.0486399468573	2.4847412109375
21.058639946832	2.48931884765625
21.0686399468068	2.48260498046875
21.0786399467815	2.4810791015625
21.0886399467563	2.481689453125
21.0986399467311	2.481689453125
21.1086399467058	2.4822998046875
21.1186399466806	2.481689453125
21.1286399466553	2.48199462890625
21.1386399466301	2.48260498046875
21.1486399466048	2.48260498046875
21.1586399465796	2.48291015625
21.1686399465543	2.4822998046875
21.1786399465291	2.481689453125
21.1886399465038	2.48199462890625
21.1986399464786	2.48199462890625
21.2086399464533	2.481689453125
21.2186399464281	2.48199462890625
21.2286399464028	2.481689453125
21.2386399463776	2.4835205078125
21.2486399463523	2.4822998046875
21.2586399463271	2.481689453125
21.2686399463018	2.48138427734375
21.2786399462766	2.48138427734375
21.2886399462514	2.48199462890625
21.2986399462261	2.48291015625
21.3086399462009	2.4810791015625
21.3186399461756	2.4810791015625
21.3286399461504	2.48046875
21.3386399461251	2.48291015625
21.3486399460999	2.48382568359375
21.3586399460746	2.48199462890625
21.3686399460494	2.48291015625
21.3786399460241	2.48199462890625
21.3886399459989	2.48321533203125
21.3986399459736	2.48291015625
21.4086399459484	2.48382568359375
21.4186399459231	2.484130859375
21.4286399458979	2.48321533203125
21.4386399458726	2.48260498046875
21.4486399458474	2.48260498046875
21.4586399458221	2.48260498046875
21.4686399457969	2.48199462890625
21.4786399457716	2.4835205078125
21.4886399457464	2.48504638671875
21.4986399457212	2.486572265625
21.5086399456959	2.48992919921875
21.5186399456707	2.4920654296875
21.5286399456454	2.48870849609375
21.5386399456202	2.4853515625
21.5486399455949	2.4896240234375
21.5586399455697	2.48382568359375
21.5686399455444	2.48443603515625
21.5786399455192	2.4847412109375
21.5886399454939	2.489013671875
21.5986399454687	2.4853515625
21.6086399454434	2.48565673828125
21.6186399454182	2.48748779296875
21.6286399453929	2.48748779296875
21.6386399453677	2.48748779296875
21.6486399453424	2.48809814453125
21.6586399453172	2.4884033203125
21.6686399452919	2.489013671875
21.6786399452667	2.4871826171875
21.6886399452414	2.486572265625
21.6986399452162	2.4859619140625
21.708639945191	2.4871826171875
21.7186399451657	2.486572265625
21.7286399451405	2.486572265625
21.7386399451152	2.48626708984375
21.74863994509	2.48504638671875
21.7586399450647	2.4853515625
21.7686399450395	2.48565673828125
21.7786399450142	2.48565673828125
21.788639944989	2.4853515625
21.7986399449637	2.48504638671875
21.8086399449385	2.4853515625
21.8186399449132	2.486572265625
21.828639944888	2.48687744140625
21.8386399448627	2.4859619140625
21.8486399448375	2.486572265625
21.8586399448122	2.48748779296875
21.868639944787	2.486572265625
21.8786399447617	2.4847412109375
21.8886399447365	2.48260498046875
21.8986399447112	2.484130859375
21.908639944686	2.4822998046875
21.9186399446608	2.48260498046875
21.9286399446355	2.48260498046875
21.9386399446103	2.4822998046875
21.948639944585	2.48291015625
21.9586399445598	2.48260498046875
21.9686399445345	2.48199462890625
21.9786399445093	2.48199462890625
21.988639944484	2.4810791015625
21.9986399444588	2.48016357421875
22.0086399444335	2.48138427734375
22.0186399444083	2.47955322265625
22.028639944383	2.47955322265625
22.0386399443578	2.4798583984375
22.0486399443325	2.48077392578125
22.0586399443073	2.48077392578125
22.068639944282	2.47955322265625
22.0786399442568	2.47894287109375
22.0886399442315	2.479248046875
22.0986399442063	2.48016357421875
22.108639944181	2.48199462890625
22.1186399441558	2.48138427734375
22.1286399441306	2.481689453125
22.1386399441053	2.48138427734375
22.1486399440801	2.48199462890625
22.1586399440548	2.48138427734375
22.1686399440296	2.48260498046875
22.1786399440043	2.4822998046875
22.1886399439791	2.4835205078125
22.1986399439538	2.4835205078125
22.2086399439286	2.48291015625
22.2186399439033	2.479248046875
22.2286399438781	2.48016357421875
22.2386399438528	2.48077392578125
