Time (s)	WE(1).Potential (V)
144.525884635107	2.05780029296875
144.535884635082	2.05810546875
144.545884635057	2.05810546875
144.555884635031	2.05810546875
144.565884635006	2.05841064453125
144.575884634981	2.05841064453125
144.585884634956	2.0587158203125
144.59588463493	2.0587158203125
144.605884634905	2.0587158203125
144.61588463488	2.0587158203125
144.625884634855	2.0587158203125
144.635884634829	2.05841064453125
144.645884634804	2.05841064453125
144.655884634779	2.0587158203125
144.665884634754	2.05841064453125
144.675884634729	2.05841064453125
144.685884634703	2.05810546875
144.695884634678	2.05810546875
144.705884634653	2.05810546875
144.715884634628	2.05810546875
144.725884634602	2.05841064453125
144.735884634577	2.05841064453125
144.745884634552	2.05841064453125
144.755884634527	2.05841064453125
144.765884634501	2.05841064453125
144.775884634476	2.05841064453125
144.785884634451	2.05841064453125
144.795884634426	2.05841064453125
144.8058846344	2.0587158203125
144.815884634375	2.05841064453125
144.82588463435	2.05841064453125
144.835884634325	2.0587158203125
144.845884634299	2.05841064453125
144.855884634274	2.0587158203125
144.865884634249	2.05841064453125
144.875884634224	2.0587158203125
144.885884634198	2.0587158203125
144.895884634173	2.0587158203125
144.905884634148	2.05902099609375
144.915884634123	2.05902099609375
144.925884634097	2.0587158203125
144.935884634072	2.0587158203125
144.945884634047	2.05841064453125
144.955884634022	2.0587158203125
144.965884633996	2.0587158203125
144.975884633971	2.05902099609375
144.985884633946	2.05902099609375
144.995884633921	2.05902099609375
145.005884633895	2.05902099609375
145.01588463387	2.0587158203125
145.025884633845	2.0587158203125
145.03588463382	2.0587158203125
145.045884633794	2.05902099609375
145.055884633769	2.05902099609375
145.065884633744	2.05902099609375
145.075884633719	2.05902099609375
145.085884633693	2.05902099609375
145.095884633668	2.05902099609375
145.105884633643	2.059326171875
145.115884633618	2.059326171875
145.125884633592	2.05963134765625
145.135884633567	2.059326171875
145.145884633542	2.059326171875
145.155884633517	2.059326171875
145.165884633491	2.059326171875
145.175884633466	2.059326171875
145.185884633441	2.05902099609375
145.195884633416	2.0587158203125
145.20588463339	2.05902099609375
145.215884633365	2.0587158203125
145.22588463334	2.0587158203125
145.235884633315	2.05841064453125
145.245884633289	2.0587158203125
145.255884633264	2.05902099609375
145.265884633239	2.059326171875
145.275884633214	2.059326171875
145.285884633188	2.05963134765625
145.295884633163	2.05963134765625
145.305884633138	2.059326171875
145.315884633113	2.059326171875
145.325884633087	2.059326171875
145.335884633062	2.05963134765625
145.345884633037	2.05963134765625
145.355884633012	2.0599365234375
145.365884632986	2.0599365234375
145.375884632961	2.05963134765625
145.385884632936	2.05963134765625
145.395884632911	2.05963134765625
145.405884632885	2.05963134765625
145.41588463286	2.05963134765625
145.425884632835	2.0599365234375
145.43588463281	2.0599365234375
145.445884632784	2.0599365234375
145.455884632759	2.05963134765625
145.465884632734	2.05963134765625
145.475884632709	2.05963134765625
145.485884632683	2.05963134765625
145.495884632658	2.05963134765625
145.505884632633	2.05963134765625
145.515884632608	2.05963134765625
145.525884632582	2.05963134765625
145.535884632557	2.05963134765625
145.545884632532	2.05963134765625
145.555884632507	2.0599365234375
145.565884632481	2.06024169921875
145.575884632456	2.06024169921875
145.585884632431	2.0599365234375
145.595884632406	2.06024169921875
145.60588463238	2.06024169921875
145.615884632355	2.06024169921875
145.62588463233	2.0599365234375
145.635884632305	2.0599365234375
145.645884632279	2.06024169921875
145.655884632254	2.06024169921875
145.665884632229	2.0599365234375
145.675884632204	2.05963134765625
145.685884632178	2.05963134765625
145.695884632153	2.05963134765625
145.705884632128	2.05963134765625
145.715884632103	2.0599365234375
145.725884632078	2.06024169921875
145.735884632052	2.06024169921875
145.745884632027	2.06024169921875
145.755884632002	2.060546875
145.765884631977	2.06024169921875
145.775884631951	2.060546875
145.785884631926	2.060546875
145.795884631901	2.060546875
145.805884631876	2.060546875
145.81588463185	2.060546875
145.825884631825	2.060546875
145.8358846318	2.060546875
145.845884631775	2.060546875
145.855884631749	2.060546875
145.865884631724	2.06024169921875
145.875884631699	2.06024169921875
145.885884631674	2.06024169921875
145.895884631648	2.0599365234375
145.905884631623	2.0599365234375
145.915884631598	2.05963134765625
145.925884631573	2.05963134765625
145.935884631547	2.05963134765625
145.945884631522	2.05963134765625
145.955884631497	2.0599365234375
145.965884631472	2.0599365234375
145.975884631446	2.05963134765625
145.985884631421	2.05963134765625
145.995884631396	2.05963134765625
146.005884631371	2.05963134765625
146.015884631345	2.059326171875
146.02588463132	2.059326171875
146.035884631295	2.05902099609375
146.04588463127	2.05902099609375
146.055884631244	2.05902099609375
146.065884631219	2.059326171875
146.075884631194	2.05902099609375
146.085884631169	2.05902099609375
146.095884631143	2.05902099609375
146.105884631118	2.059326171875
146.115884631093	2.05902099609375
146.125884631068	2.05963134765625
146.135884631042	2.05963134765625
146.145884631017	2.059326171875
146.155884630992	2.05963134765625
146.165884630967	2.059326171875
146.175884630941	2.059326171875
146.185884630916	2.059326171875
146.195884630891	2.059326171875
146.205884630866	2.05963134765625
146.21588463084	2.05963134765625
146.225884630815	2.05963134765625
146.23588463079	2.059326171875
146.245884630765	2.05902099609375
146.255884630739	2.05902099609375
146.265884630714	2.05902099609375
146.275884630689	2.05902099609375
146.285884630664	2.059326171875
146.295884630638	2.05902099609375
146.305884630613	2.05902099609375
146.315884630588	2.05902099609375
146.325884630563	2.05902099609375
146.335884630537	2.0587158203125
146.345884630512	2.05902099609375
146.355884630487	2.05902099609375
146.365884630462	2.05902099609375
146.375884630436	2.059326171875
146.385884630411	2.05963134765625
146.395884630386	2.05963134765625
146.405884630361	2.05963134765625
146.415884630335	2.059326171875
146.42588463031	2.059326171875
146.435884630285	2.05902099609375
146.44588463026	2.059326171875
146.455884630234	2.05902099609375
146.465884630209	2.059326171875
146.475884630184	2.05963134765625
146.485884630159	2.059326171875
146.495884630133	2.059326171875
146.505884630108	2.05902099609375
146.515884630083	2.05902099609375
146.525884630058	2.059326171875
146.535884630032	2.059326171875
146.545884630007	2.059326171875
146.555884629982	2.05902099609375
146.565884629957	2.05902099609375
146.575884629931	2.05902099609375
146.585884629906	2.0587158203125
146.595884629881	2.05841064453125
146.605884629856	2.05841064453125
146.61588462983	2.0587158203125
146.625884629805	2.05841064453125
146.63588462978	2.05810546875
146.645884629755	2.05810546875
146.655884629729	2.05841064453125
146.665884629704	2.05841064453125
146.675884629679	2.05810546875
146.685884629654	2.05780029296875
146.695884629628	2.05780029296875
146.705884629603	2.05810546875
146.715884629578	2.05841064453125
146.725884629553	2.05841064453125
146.735884629528	2.05841064453125
146.745884629502	2.0587158203125
146.755884629477	2.0587158203125
146.765884629452	2.05841064453125
146.775884629427	2.0587158203125
146.785884629401	2.0587158203125
146.795884629376	2.0587158203125
146.805884629351	2.0587158203125
146.815884629326	2.05841064453125
146.8258846293	2.05902099609375
146.835884629275	2.0587158203125
146.84588462925	2.0587158203125
146.855884629225	2.0587158203125
146.865884629199	2.0587158203125
146.875884629174	2.05841064453125
146.885884629149	2.0587158203125
146.895884629124	2.05810546875
146.905884629098	2.05810546875
146.915884629073	2.05780029296875
146.925884629048	2.05841064453125
146.935884629023	2.05841064453125
146.945884628997	2.0587158203125
146.955884628972	2.0587158203125
146.965884628947	2.05902099609375
146.975884628922	2.059326171875
146.985884628896	2.059326171875
146.995884628871	2.05902099609375
147.005884628846	2.0587158203125
147.015884628821	2.05902099609375
147.025884628795	2.059326171875
147.03588462877	2.05963134765625
147.045884628745	2.05963134765625
147.05588462872	2.059326171875
147.065884628694	2.059326171875
147.075884628669	2.059326171875
147.085884628644	2.05963134765625
147.095884628619	2.05963134765625
147.105884628593	2.059326171875
147.115884628568	2.05963134765625
147.125884628543	2.059326171875
147.135884628518	2.059326171875
147.145884628492	2.059326171875
147.155884628467	2.059326171875
147.165884628442	2.0599365234375
147.175884628417	2.06024169921875
147.185884628391	2.060546875
147.195884628366	2.06085205078125
147.205884628341	2.06085205078125
147.215884628316	2.06085205078125
147.22588462829	2.0611572265625
147.235884628265	2.0611572265625
147.24588462824	2.0611572265625
147.255884628215	2.0611572265625
147.265884628189	2.061767578125
147.275884628164	2.061767578125
147.285884628139	2.061767578125
147.295884628114	2.061767578125
147.305884628088	2.06207275390625
147.315884628063	2.061767578125
147.325884628038	2.061767578125
147.335884628013	2.06207275390625
147.345884627987	2.06146240234375
147.355884627962	2.06146240234375
147.365884627937	2.06146240234375
147.375884627912	2.0611572265625
147.385884627886	2.06146240234375
147.395884627861	2.0611572265625
147.405884627836	2.06085205078125
147.415884627811	2.0611572265625
147.425884627785	2.06146240234375
147.43588462776	2.061767578125
147.445884627735	2.0623779296875
147.45588462771	2.0623779296875
147.465884627684	2.06298828125
147.475884627659	2.06298828125
147.485884627634	2.06298828125
147.495884627609	2.06268310546875
147.505884627583	2.0623779296875
147.515884627558	2.06207275390625
147.525884627533	2.06207275390625
147.535884627508	2.06207275390625
147.545884627482	2.061767578125
147.555884627457	2.06146240234375
147.565884627432	2.06146240234375
147.575884627407	2.061767578125
147.585884627381	2.06207275390625
147.595884627356	2.061767578125
147.605884627331	2.061767578125
147.615884627306	2.061767578125
147.62588462728	2.061767578125
147.635884627255	2.061767578125
147.64588462723	2.06146240234375
147.655884627205	2.06146240234375
147.665884627179	2.0611572265625
147.675884627154	2.0611572265625
147.685884627129	2.06024169921875
147.695884627104	2.06024169921875
147.705884627078	2.06024169921875
147.715884627053	2.06024169921875
147.725884627028	2.060546875
147.735884627003	2.060546875
147.745884626977	2.06024169921875
147.755884626952	2.06024169921875
147.765884626927	2.06024169921875
147.775884626902	2.0599365234375
147.785884626877	2.0599365234375
147.795884626851	2.0599365234375
147.805884626826	2.06024169921875
147.815884626801	2.0599365234375
147.825884626776	2.0599365234375
147.83588462675	2.0599365234375
147.845884626725	2.0599365234375
147.8558846267	2.0599365234375
147.865884626675	2.0599365234375
147.875884626649	2.0599365234375
147.885884626624	2.0599365234375
147.895884626599	2.05963134765625
147.905884626574	2.05963134765625
147.915884626548	2.05963134765625
147.925884626523	2.05963134765625
147.935884626498	2.05963134765625
147.945884626473	2.05963134765625
147.955884626447	2.05963134765625
147.965884626422	2.05963134765625
147.975884626397	2.05963134765625
147.985884626372	2.05963134765625
147.995884626346	2.059326171875
148.005884626321	2.05963134765625
148.015884626296	2.059326171875
148.025884626271	2.059326171875
148.035884626245	2.059326171875
148.04588462622	2.059326171875
148.055884626195	2.059326171875
148.06588462617	2.05902099609375
148.075884626144	2.059326171875
148.085884626119	2.059326171875
148.095884626094	2.05963134765625
148.105884626069	2.05963134765625
148.115884626043	2.05963134765625
148.125884626018	2.05963134765625
148.135884625993	2.05963134765625
148.145884625968	2.05963134765625
148.155884625942	2.059326171875
148.165884625917	2.059326171875
148.175884625892	2.059326171875
148.185884625867	2.05902099609375
148.195884625841	2.059326171875
148.205884625816	2.05902099609375
148.215884625791	2.059326171875
148.225884625766	2.059326171875
148.23588462574	2.05902099609375
148.245884625715	2.05902099609375
148.25588462569	2.05902099609375
148.265884625665	2.05902099609375
148.275884625639	2.05841064453125
148.285884625614	2.05841064453125
148.295884625589	2.05841064453125
148.305884625564	2.05841064453125
148.315884625538	2.05841064453125
148.325884625513	2.05841064453125
148.335884625488	2.05841064453125
148.345884625463	2.05841064453125
148.355884625437	2.05841064453125
148.365884625412	2.05841064453125
148.375884625387	2.05810546875
148.385884625362	2.05810546875
148.395884625336	2.05810546875
148.405884625311	2.05810546875
148.415884625286	2.05841064453125
148.425884625261	2.05841064453125
148.435884625235	2.05841064453125
148.44588462521	2.05841064453125
148.455884625185	2.05841064453125
148.46588462516	2.05841064453125
148.475884625134	2.05810546875
148.485884625109	2.05810546875
148.495884625084	2.05810546875
148.505884625059	2.05810546875
148.515884625033	2.05841064453125
148.525884625008	2.05841064453125
148.535884624983	2.05841064453125
148.545884624958	2.05810546875
148.555884624932	2.05810546875
148.565884624907	2.05810546875
148.575884624882	2.05810546875
148.585884624857	2.05780029296875
148.595884624831	2.05780029296875
148.605884624806	2.0574951171875
148.615884624781	2.05780029296875
148.625884624756	2.05780029296875
148.63588462473	2.0574951171875
148.645884624705	2.0574951171875
148.65588462468	2.0574951171875
148.665884624655	2.0574951171875
148.675884624629	2.0574951171875
148.685884624604	2.0574951171875
148.695884624579	2.0574951171875
148.705884624554	2.0574951171875
148.715884624528	2.0574951171875
148.725884624503	2.0574951171875
148.735884624478	2.0574951171875
148.745884624453	2.0574951171875
148.755884624427	2.0574951171875
148.765884624402	2.05718994140625
148.775884624377	2.05718994140625
148.785884624352	2.056884765625
148.795884624327	2.056884765625
148.805884624301	2.05718994140625
148.815884624276	2.05718994140625
148.825884624251	2.056884765625
148.835884624226	2.056884765625
148.8458846242	2.056884765625
148.855884624175	2.056884765625
148.86588462415	2.056884765625
148.875884624125	2.056884765625
148.885884624099	2.056884765625
148.895884624074	2.05657958984375
148.905884624049	2.05657958984375
148.915884624024	2.0562744140625
148.925884623998	2.0562744140625
148.935884623973	2.05657958984375
148.945884623948	2.05657958984375
148.955884623923	2.05657958984375
148.965884623897	2.05657958984375
148.975884623872	2.0562744140625
148.985884623847	2.0562744140625
148.995884623822	2.0562744140625
149.005884623796	2.0562744140625
149.015884623771	2.0562744140625
149.025884623746	2.0562744140625
149.035884623721	2.0562744140625
149.045884623695	2.0562744140625
149.05588462367	2.05657958984375
149.065884623645	2.05657958984375
149.07588462362	2.0562744140625
149.085884623594	2.05596923828125
149.095884623569	2.0556640625
149.105884623544	2.0556640625
149.115884623519	2.0556640625
149.125884623493	2.0556640625
149.135884623468	2.0556640625
149.145884623443	2.0556640625
149.155884623418	2.0556640625
149.165884623392	2.0556640625
149.175884623367	2.0556640625
149.185884623342	2.05535888671875
149.195884623317	2.05535888671875
149.205884623291	2.05535888671875
149.215884623266	2.05535888671875
149.225884623241	2.05535888671875
149.235884623216	2.05535888671875
149.24588462319	2.0556640625
149.255884623165	2.0556640625
149.26588462314	2.0556640625
149.275884623115	2.05535888671875
149.285884623089	2.0556640625
149.295884623064	2.05535888671875
149.305884623039	2.0550537109375
149.315884623014	2.05535888671875
149.325884622988	2.0550537109375
149.335884622963	2.05535888671875
149.345884622938	2.05535888671875
149.355884622913	2.05535888671875
149.365884622887	2.0556640625
149.375884622862	2.0556640625
149.385884622837	2.0556640625
149.395884622812	2.0556640625
149.405884622786	2.0556640625
149.415884622761	2.0556640625
149.425884622736	2.05535888671875
149.435884622711	2.0556640625
149.445884622685	2.05535888671875
149.45588462266	2.05535888671875
149.465884622635	2.05535888671875
149.47588462261	2.05596923828125
149.485884622584	2.05596923828125
149.495884622559	2.0556640625
149.505884622534	2.0556640625
149.515884622509	2.0556640625
