Time (s)	WE(1).Potential (V)
17.067363956909	2.5909423828125
17.0773639568838	2.59063720703125
17.0873639568586	2.59033203125
17.0973639568333	2.59063720703125
17.1073639568081	2.59063720703125
17.1173639567828	2.59033203125
17.1273639567576	2.5909423828125
17.1373639567323	2.59185791015625
17.1473639567071	2.5909423828125
17.1573639566818	2.59124755859375
17.1673639566566	2.59063720703125
17.1773639566313	2.5909423828125
17.1873639566061	2.59124755859375
17.1973639565808	2.59185791015625
17.2073639565556	2.5921630859375
17.2173639565303	2.591552734375
17.2273639565051	2.59185791015625
17.2373639564798	2.5927734375
17.2473639564546	2.5921630859375
17.2573639564293	2.5927734375
17.2673639564041	2.59368896484375
17.2773639563788	2.59307861328125
17.2873639563536	2.59246826171875
17.2973639563284	2.59246826171875
17.3073639563031	2.5927734375
17.3173639562779	2.59307861328125
17.3273639562526	2.5933837890625
17.3373639562274	2.5933837890625
17.3473639562021	2.59368896484375
17.3573639561769	2.59368896484375
17.3673639561516	2.59307861328125
17.3773639561264	2.59246826171875
17.3873639561011	2.5927734375
17.3973639560759	2.5927734375
17.4073639560506	2.59246826171875
17.4173639560254	2.591552734375
17.4273639560001	2.591552734375
17.4373639559749	2.5927734375
17.4473639559496	2.59246826171875
17.4573639559244	2.591552734375
17.4673639558991	2.59185791015625
17.4773639558739	2.5921630859375
17.4873639558487	2.59185791015625
17.4973639558234	2.59185791015625
17.5073639557982	2.5927734375
17.5173639557729	2.5921630859375
17.5273639557477	2.59033203125
17.5373639557224	2.59002685546875
17.5473639556972	2.5909423828125
17.5573639556719	2.59124755859375
17.5673639556467	2.59185791015625
17.5773639556214	2.591552734375
17.5873639555962	2.59246826171875
17.5973639555709	2.5933837890625
17.6073639555457	2.5927734375
17.6173639555204	2.5927734375
17.6273639554952	2.59246826171875
17.6373639554699	2.5927734375
17.6473639554447	2.59307861328125
17.6573639554194	2.59307861328125
17.6673639553942	2.5933837890625
17.6773639553689	2.59307861328125
17.6873639553437	2.59246826171875
17.6973639553185	2.5921630859375
17.7073639552932	2.59246826171875
17.717363955268	2.59185791015625
17.7273639552427	2.59246826171875
17.7373639552175	2.59307861328125
17.7473639551922	2.59368896484375
17.757363955167	2.5933837890625
17.7673639551417	2.5921630859375
17.7773639551165	2.59246826171875
17.7873639550912	2.59246826171875
17.797363955066	2.5927734375
17.8073639550407	2.5927734375
17.8173639550155	2.59307861328125
17.8273639549902	2.59368896484375
17.837363954965	2.5946044921875
17.8473639549397	2.59490966796875
17.8573639549145	2.59429931640625
17.8673639548892	2.59368896484375
17.877363954864	2.59429931640625
17.8873639548387	2.59490966796875
17.8973639548135	2.59521484375
17.9073639547883	2.59521484375
17.917363954763	2.59552001953125
17.9273639547378	2.59552001953125
17.9373639547125	2.59490966796875
17.9473639546873	2.59552001953125
17.957363954662	2.5958251953125
17.9673639546368	2.59613037109375
17.9773639546115	2.59552001953125
17.9873639545863	2.59521484375
17.997363954561	2.59552001953125
18.0073639545358	2.5946044921875
18.0173639545105	2.59429931640625
18.0273639544853	2.593994140625
18.03736395446	2.593994140625
18.0473639544348	2.59521484375
18.0573639544095	2.59521484375
18.0673639543843	2.5958251953125
18.077363954359	2.59674072265625
18.0873639543338	2.59674072265625
18.0973639543085	2.59613037109375
18.1073639542833	2.59613037109375
18.1173639542581	2.59613037109375
18.1273639542328	2.59674072265625
18.1373639542076	2.596435546875
18.1473639541823	2.59674072265625
18.1573639541571	2.59735107421875
18.1673639541318	2.5970458984375
18.1773639541066	2.59735107421875
18.1873639540813	2.59765625
18.1973639540561	2.59735107421875
18.2073639540308	2.59765625
18.2173639540056	2.5994873046875
18.2273639539803	2.59918212890625
18.2373639539551	2.59918212890625
18.2473639539298	2.5994873046875
18.2573639539046	2.5994873046875
18.2673639538793	2.6007080078125
18.2773639538541	2.60009765625
18.2873639538288	2.59979248046875
18.2973639538036	2.59979248046875
18.3073639537783	2.59918212890625
18.3173639537531	2.59857177734375
18.3273639537279	2.598876953125
18.3373639537026	2.59796142578125
18.3473639536774	2.598876953125
18.3573639536521	2.59918212890625
18.3673639536269	2.5994873046875
18.3773639536016	2.60009765625
18.3873639535764	2.60101318359375
18.3973639535511	2.6007080078125
18.4073639535259	2.59979248046875
18.4173639535006	2.60101318359375
18.4273639534754	2.60162353515625
18.4373639534501	2.601318359375
18.4473639534249	2.601318359375
18.4573639533996	2.6025390625
18.4673639533744	2.6025390625
18.4773639533491	2.6019287109375
18.4873639533239	2.6019287109375
18.4973639532986	2.60223388671875
18.5073639532734	2.60223388671875
18.5173639532482	2.6019287109375
18.5273639532229	2.6025390625
18.5373639531977	2.6025390625
18.5473639531724	2.6031494140625
18.5573639531472	2.60345458984375
18.5673639531219	2.6043701171875
18.5773639530967	2.603759765625
18.5873639530714	2.60345458984375
18.5973639530462	2.603759765625
18.6073639530209	2.6031494140625
18.6173639529957	2.603759765625
18.6273639529704	2.603759765625
18.6373639529452	2.60406494140625
18.6473639529199	2.603759765625
18.6573639528947	2.60284423828125
18.6673639528694	2.60284423828125
18.6773639528442	2.60284423828125
18.6873639528189	2.603759765625
18.6973639527937	2.6031494140625
18.7073639527684	2.60284423828125
18.7173639527432	2.60345458984375
18.727363952718	2.60345458984375
18.7373639526927	2.60284423828125
18.7473639526675	2.603759765625
18.7573639526422	2.60406494140625
18.767363952617	2.60284423828125
18.7773639525917	2.60162353515625
18.7873639525665	2.60162353515625
18.7973639525412	2.6007080078125
18.807363952516	2.60162353515625
18.8173639524907	2.60162353515625
18.8273639524655	2.60040283203125
18.8373639524402	2.60009765625
18.847363952415	2.6007080078125
18.8573639523897	2.601318359375
18.8673639523645	2.60162353515625
18.8773639523392	2.6019287109375
18.887363952314	2.60162353515625
18.8973639522887	2.60162353515625
18.9073639522635	2.60101318359375
18.9173639522382	2.60040283203125
18.927363952213	2.60101318359375
18.9373639521878	2.60101318359375
18.9473639521625	2.601318359375
18.9573639521373	2.6019287109375
18.967363952112	2.60223388671875
18.9773639520868	2.60223388671875
18.9873639520615	2.60284423828125
18.9973639520363	2.60284423828125
19.007363952011	2.60284423828125
19.0173639519858	2.60284423828125
19.0273639519605	2.60345458984375
19.0373639519353	2.6031494140625
19.04736395191	2.6031494140625
19.0573639518848	2.603759765625
19.0673639518595	2.60406494140625
19.0773639518343	2.60406494140625
19.087363951809	2.60345458984375
19.0973639517838	2.60345458984375
19.1073639517585	2.603759765625
19.1173639517333	2.603759765625
19.127363951708	2.603759765625
19.1373639516828	2.6043701171875
19.1473639516576	2.60345458984375
19.1573639516323	2.6043701171875
19.1673639516071	2.6043701171875
19.1773639515818	2.60406494140625
19.1873639515566	2.6043701171875
19.1973639515313	2.60498046875
19.2073639515061	2.60498046875
19.2173639514808	2.606201171875
19.2273639514556	2.606201171875
19.2373639514303	2.60650634765625
19.2473639514051	2.6068115234375
19.2573639513798	2.60772705078125
19.2673639513546	2.60833740234375
19.2773639513293	2.60772705078125
19.2873639513041	2.60711669921875
19.2973639512788	2.607421875
19.3073639512536	2.607421875
19.3173639512283	2.60772705078125
19.3273639512031	2.6080322265625
19.3373639511778	2.60772705078125
19.3473639511526	2.60833740234375
19.3573639511274	2.607421875
19.3673639511021	2.60772705078125
19.3773639510769	2.607421875
19.3873639510516	2.60772705078125
19.3973639510264	2.60711669921875
19.4073639510011	2.6080322265625
19.4173639509759	2.60894775390625
19.4273639509506	2.60833740234375
19.4373639509254	2.60833740234375
19.4473639509001	2.6092529296875
19.4573639508749	2.61077880859375
19.4673639508496	2.61199951171875
19.4773639508244	2.6123046875
19.4873639507991	2.6123046875
19.4973639507739	2.61138916015625
19.5073639507486	2.611083984375
19.5173639507234	2.61138916015625
19.5273639506981	2.61138916015625
19.5373639506729	2.6116943359375
19.5473639506477	2.6123046875
19.5573639506224	2.61199951171875
19.5673639505972	2.61199951171875
19.5773639505719	2.6123046875
19.5873639505467	2.6123046875
19.5973639505214	2.6123046875
19.6073639504962	2.611083984375
19.6173639504709	2.6116943359375
19.6273639504457	2.6116943359375
19.6373639504204	2.6116943359375
19.6473639503952	2.6116943359375
19.6573639503699	2.6123046875
19.6673639503447	2.6123046875
19.6773639503194	2.6116943359375
19.6873639502942	2.61138916015625
19.6973639502689	2.6123046875
19.7073639502437	2.6123046875
19.7173639502184	2.6129150390625
19.7273639501932	2.6123046875
19.7373639501679	2.6116943359375
19.7473639501427	2.6116943359375
19.7573639501175	2.61138916015625
19.7673639500922	2.61199951171875
19.777363950067	2.61260986328125
19.7873639500417	2.61322021484375
19.7973639500165	2.61322021484375
19.8073639499912	2.61383056640625
19.817363949966	2.6141357421875
19.8273639499407	2.6141357421875
19.8373639499155	2.61383056640625
19.8473639498902	2.6141357421875
19.857363949865	2.61444091796875
19.8673639498397	2.61505126953125
19.8773639498145	2.615966796875
19.8873639497892	2.61566162109375
19.897363949764	2.61383056640625
19.9073639497387	2.613525390625
19.9173639497135	2.61322021484375
19.9273639496882	2.61383056640625
19.937363949663	2.6141357421875
19.9473639496377	2.6141357421875
19.9573639496125	2.61383056640625
19.9673639495873	2.61444091796875
19.977363949562	2.6141357421875
19.9873639495368	2.61444091796875
19.9973639495115	2.6141357421875
20.0073639494863	2.6141357421875
20.017363949461	2.61474609375
20.0273639494358	2.6153564453125
20.0373639494105	2.6153564453125
20.0473639493853	2.61444091796875
20.05736394936	2.6153564453125
20.0673639493348	2.61474609375
20.0773639493095	2.61474609375
20.0873639492843	2.61444091796875
20.097363949259	2.61474609375
20.1073639492338	2.61444091796875
20.1173639492085	2.61444091796875
20.1273639491833	2.61444091796875
20.137363949158	2.61474609375
20.1473639491328	2.61474609375
20.1573639491075	2.615966796875
20.1673639490823	2.615966796875
20.1773639490571	2.61566162109375
20.1873639490318	2.6153564453125
20.1973639490066	2.61474609375
20.2073639489813	2.61505126953125
20.2173639489561	2.615966796875
20.2273639489308	2.61627197265625
20.2373639489056	2.61688232421875
20.2473639488803	2.615966796875
20.2573639488551	2.61566162109375
20.2673639488298	2.61627197265625
20.2773639488046	2.61474609375
20.2873639487793	2.61474609375
20.2973639487541	2.6153564453125
20.3073639487288	2.61444091796875
20.3173639487036	2.6153564453125
20.3273639486783	2.61505126953125
20.3373639486531	2.61505126953125
20.3473639486278	2.61444091796875
20.3573639486026	2.61474609375
20.3673639485773	2.6153564453125
20.3773639485521	2.6153564453125
20.3873639485269	2.61505126953125
20.3973639485016	2.61505126953125
20.4073639484764	2.61474609375
20.4173639484511	2.61444091796875
20.4273639484259	2.61383056640625
20.4373639484006	2.61383056640625
20.4473639483754	2.61383056640625
20.4573639483501	2.6141357421875
20.4673639483249	2.613525390625
20.4773639482996	2.6141357421875
20.4873639482744	2.61383056640625
20.4973639482491	2.6141357421875
20.5073639482239	2.61444091796875
20.5173639481986	2.61505126953125
20.5273639481734	2.61505126953125
20.5373639481481	2.61474609375
20.5473639481229	2.6141357421875
20.5573639480976	2.6141357421875
20.5673639480724	2.61383056640625
20.5773639480472	2.61444091796875
20.5873639480219	2.613525390625
20.5973639479967	2.6116943359375
20.6073639479714	2.61322021484375
20.6173639479462	2.613525390625
20.6273639479209	2.61322021484375
20.6373639478957	2.6129150390625
20.6473639478704	2.61199951171875
20.6573639478452	2.61199951171875
20.6673639478199	2.61138916015625
20.6773639477947	2.61138916015625
20.6873639477694	2.61138916015625
20.6973639477442	2.611083984375
20.7073639477189	2.61077880859375
20.7173639476937	2.61138916015625
20.7273639476684	2.6116943359375
20.7373639476432	2.611083984375
20.7473639476179	2.61016845703125
20.7573639475927	2.61016845703125
20.7673639475674	2.61016845703125
20.7773639475422	2.61016845703125
20.787363947517	2.61016845703125
20.7973639474917	2.60955810546875
20.8073639474665	2.6092529296875
20.8173639474412	2.60955810546875
20.827363947416	2.6104736328125
20.8373639473907	2.61077880859375
20.8473639473655	2.61138916015625
20.8573639473402	2.61077880859375
20.867363947315	2.61077880859375
20.8773639472897	2.61077880859375
20.8873639472645	2.6104736328125
20.8973639472392	2.611083984375
20.907363947214	2.6116943359375
20.9173639471887	2.6116943359375
20.9273639471635	2.6116943359375
20.9373639471382	2.61138916015625
20.947363947113	2.611083984375
20.9573639470877	2.611083984375
20.9673639470625	2.611083984375
20.9773639470372	2.6116943359375
20.987363947012	2.6123046875
20.9973639469868	2.61322021484375
21.0073639469615	2.61260986328125
21.0173639469363	2.61138916015625
21.027363946911	2.611083984375
21.0373639468858	2.61077880859375
21.0473639468605	2.6104736328125
21.0573639468353	2.61016845703125
21.06736394681	2.61016845703125
21.0773639467848	2.6104736328125
21.0873639467595	2.611083984375
21.0973639467343	2.611083984375
21.107363946709	2.6116943359375
21.1173639466838	2.6116943359375
21.1273639466585	2.61138916015625
21.1373639466333	2.61138916015625
21.147363946608	2.61138916015625
21.1573639465828	2.6104736328125
21.1673639465575	2.6104736328125
21.1773639465323	2.61077880859375
21.187363946507	2.6104736328125
21.1973639464818	2.6104736328125
21.2073639464566	2.61016845703125
21.2173639464313	2.611083984375
21.2273639464061	2.611083984375
21.2373639463808	2.61077880859375
21.2473639463556	2.61138916015625
21.2573639463303	2.61138916015625
21.2673639463051	2.6123046875
21.2773639462798	2.6129150390625
21.2873639462546	2.61260986328125
21.2973639462293	2.6129150390625
21.3073639462041	2.61322021484375
21.3173639461788	2.6129150390625
21.3273639461536	2.61322021484375
21.3373639461283	2.61322021484375
21.3473639461031	2.613525390625
21.3573639460778	2.6141357421875
21.3673639460526	2.61474609375
21.3773639460273	2.61474609375
21.3873639460021	2.615966796875
21.3973639459768	2.615966796875
21.4073639459516	2.615966796875
21.4173639459264	2.6171875
21.4273639459011	2.615966796875
21.4373639458759	2.61566162109375
21.4473639458506	2.6165771484375
21.4573639458254	2.61688232421875
21.4673639458001	2.615966796875
21.4773639457749	2.61505126953125
21.4873639457496	2.6153564453125
21.4973639457244	2.61505126953125
21.5073639456991	2.61383056640625
21.5173639456739	2.61322021484375
21.5273639456486	2.613525390625
21.5373639456234	2.6141357421875
21.5473639455981	2.61444091796875
21.5573639455729	2.613525390625
21.5673639455476	2.61383056640625
21.5773639455224	2.61383056640625
21.5873639454971	2.6141357421875
21.5973639454719	2.6141357421875
21.6073639454467	2.613525390625
21.6173639454214	2.61260986328125
21.6273639453962	2.6129150390625
21.6373639453709	2.61383056640625
21.6473639453457	2.61322021484375
21.6573639453204	2.6129150390625
21.6673639452952	2.613525390625
21.6773639452699	2.61383056640625
21.6873639452447	2.6141357421875
21.6973639452194	2.61505126953125
21.7073639451942	2.615966796875
21.7173639451689	2.615966796875
21.7273639451437	2.6165771484375
21.7373639451184	2.61688232421875
21.7473639450932	2.61627197265625
21.7573639450679	2.61566162109375
21.7673639450427	2.615966796875
21.7773639450174	2.61688232421875
21.7873639449922	2.6171875
21.7973639449669	2.6171875
21.8073639449417	2.6165771484375
21.8173639449165	2.6165771484375
21.8273639448912	2.61688232421875
21.837363944866	2.61749267578125
21.8473639448407	2.6171875
21.8573639448155	2.6171875
21.8673639447902	2.61688232421875
21.877363944765	2.61688232421875
21.8873639447397	2.6171875
21.8973639447145	2.61627197265625
21.9073639446892	2.61627197265625
21.917363944664	2.6165771484375
21.9273639446387	2.6171875
21.9373639446135	2.61688232421875
21.9473639445882	2.61627197265625
21.957363944563	2.61566162109375
21.9673639445377	2.61505126953125
21.9773639445125	2.61627197265625
21.9873639444872	2.61566162109375
21.997363944462	2.61627197265625
22.0073639444367	2.6171875
22.0173639444115	2.61566162109375
22.0273639443863	2.61505126953125
22.037363944361	2.61627197265625
22.0473639443358	2.61627197265625
22.0573639443105	2.6165771484375
