Time (s)	WE(1).Potential (V)
80.7184957962054	2.63214111328125
80.7284957961801	2.63214111328125
80.7384957961549	2.63214111328125
80.7484957961296	2.6324462890625
80.7584957961044	2.63214111328125
80.7684957960792	2.63214111328125
80.7784957960539	2.6324462890625
80.7884957960287	2.63336181640625
80.7984957960034	2.633056640625
80.8084957959782	2.63275146484375
80.8184957959529	2.6324462890625
80.8284957959277	2.6318359375
80.8384957959024	2.63214111328125
80.8484957958772	2.63214111328125
80.8584957958519	2.63214111328125
80.8684957958267	2.63214111328125
80.8784957958014	2.63275146484375
80.8884957957762	2.63214111328125
80.8984957957509	2.6324462890625
80.9084957957257	2.6324462890625
80.9184957957004	2.633056640625
80.9284957956752	2.63275146484375
80.9384957956499	2.633056640625
80.9484957956247	2.633056640625
80.9584957955994	2.63275146484375
80.9684957955742	2.6324462890625
80.978495795549	2.6318359375
80.9884957955237	2.6318359375
80.9984957954985	2.63214111328125
81.0084957954732	2.6318359375
81.018495795448	2.63214111328125
81.0284957954227	2.6324462890625
81.0384957953975	2.63275146484375
81.0484957953722	2.63275146484375
81.058495795347	2.63275146484375
81.0684957953217	2.63275146484375
81.0784957952965	2.6324462890625
81.0884957952712	2.6318359375
81.098495795246	2.6318359375
81.1084957952207	2.63214111328125
81.1184957951955	2.6318359375
81.1284957951702	2.6318359375
81.138495795145	2.6318359375
81.1484957951197	2.63092041015625
81.1584957950945	2.6312255859375
81.1684957950692	2.6312255859375
81.178495795044	2.6312255859375
81.1884957950188	2.6324462890625
81.1984957949935	2.6318359375
81.2084957949683	2.6324462890625
81.218495794943	2.63214111328125
81.2284957949178	2.63214111328125
81.2384957948925	2.63214111328125
81.2484957948673	2.6324462890625
81.258495794842	2.63275146484375
81.2684957948168	2.63336181640625
81.2784957947915	2.63275146484375
81.2884957947663	2.63275146484375
81.298495794741	2.63336181640625
81.3084957947158	2.63397216796875
81.3184957946905	2.63458251953125
81.3284957946653	2.63427734375
81.33849579464	2.6336669921875
81.3484957946148	2.6336669921875
81.3584957945895	2.63336181640625
81.3684957945643	2.633056640625
81.378495794539	2.6336669921875
81.3884957945138	2.63427734375
81.3984957944886	2.63427734375
81.4084957944633	2.63397216796875
81.4184957944381	2.6336669921875
81.4284957944128	2.6336669921875
81.4384957943876	2.6336669921875
81.4484957943623	2.63336181640625
81.4584957943371	2.633056640625
81.4684957943118	2.63336181640625
81.4784957942866	2.6336669921875
81.4884957942613	2.633056640625
81.4984957942361	2.633056640625
81.5084957942108	2.63336181640625
81.5184957941856	2.63397216796875
81.5284957941603	2.63458251953125
81.5384957941351	2.63427734375
81.5484957941098	2.6348876953125
81.5584957940846	2.63519287109375
81.5684957940593	2.63458251953125
81.5784957940341	2.6348876953125
81.5884957940088	2.63519287109375
81.5984957939836	2.63580322265625
81.6084957939584	2.63519287109375
81.6184957939331	2.635498046875
81.6284957939079	2.6348876953125
81.6384957938826	2.6348876953125
81.6484957938574	2.63397216796875
81.6584957938321	2.63397216796875
81.6684957938069	2.63336181640625
81.6784957937816	2.6324462890625
81.6884957937564	2.6324462890625
81.6984957937311	2.6318359375
81.7084957937059	2.6318359375
81.7184957936806	2.63214111328125
81.7284957936554	2.63153076171875
81.7384957936301	2.6312255859375
81.7484957936049	2.6312255859375
81.7584957935796	2.63092041015625
81.7684957935544	2.6312255859375
81.7784957935291	2.6318359375
81.7884957935039	2.6318359375
81.7984957934787	2.63153076171875
81.8084957934534	2.6318359375
81.8184957934282	2.6318359375
81.8284957934029	2.63214111328125
81.8384957933777	2.63275146484375
81.8484957933524	2.63214111328125
81.8584957933272	2.63275146484375
81.8684957933019	2.63214111328125
81.8784957932767	2.63214111328125
81.8884957932514	2.63214111328125
81.8984957932262	2.63214111328125
81.9084957932009	2.63214111328125
81.9184957931757	2.63214111328125
81.9284957931504	2.6324462890625
81.9384957931252	2.633056640625
81.9484957930999	2.633056640625
81.9584957930747	2.63275146484375
81.9684957930494	2.6324462890625
81.9784957930242	2.6324462890625
81.9884957929989	2.633056640625
81.9984957929737	2.6324462890625
82.0084957929485	2.63214111328125
82.0184957929232	2.63214111328125
82.028495792898	2.6318359375
82.0384957928727	2.63336181640625
82.0484957928475	2.63336181640625
82.0584957928222	2.633056640625
82.068495792797	2.63275146484375
82.0784957927717	2.63214111328125
82.0884957927465	2.63153076171875
82.0984957927212	2.63214111328125
82.108495792696	2.6318359375
82.1184957926707	2.6318359375
82.1284957926455	2.6318359375
82.1384957926202	2.6318359375
82.148495792595	2.63214111328125
82.1584957925697	2.6318359375
82.1684957925445	2.6318359375
82.1784957925192	2.63153076171875
82.188495792494	2.6318359375
82.1984957924687	2.6318359375
82.2084957924435	2.63275146484375
82.2184957924183	2.63275146484375
82.228495792393	2.63275146484375
82.2384957923678	2.6336669921875
82.2484957923425	2.63336181640625
82.2584957923173	2.6336669921875
82.268495792292	2.63427734375
82.2784957922668	2.6336669921875
82.2884957922415	2.6336669921875
82.2984957922163	2.63397216796875
82.308495792191	2.6348876953125
82.3184957921658	2.63458251953125
82.3284957921405	2.63458251953125
82.3384957921153	2.63458251953125
82.34849579209	2.63427734375
82.3584957920648	2.63427734375
82.3684957920395	2.63427734375
82.3784957920143	2.63427734375
82.388495791989	2.63427734375
82.3984957919638	2.63427734375
82.4084957919385	2.63427734375
82.4184957919133	2.63427734375
82.4284957918881	2.63458251953125
82.4384957918628	2.63458251953125
82.4484957918376	2.63427734375
82.4584957918123	2.63336181640625
82.4684957917871	2.63275146484375
82.4784957917618	2.63275146484375
82.4884957917366	2.63275146484375
82.4984957917113	2.63275146484375
82.5084957916861	2.633056640625
82.5184957916608	2.63336181640625
82.5284957916356	2.63336181640625
82.5384957916103	2.63336181640625
82.5484957915851	2.63397216796875
82.5584957915598	2.63427734375
82.5684957915346	2.6336669921875
82.5784957915093	2.6336669921875
82.5884957914841	2.6336669921875
82.5984957914588	2.6336669921875
82.6084957914336	2.63397216796875
82.6184957914083	2.63427734375
82.6284957913831	2.63397216796875
82.6384957913579	2.63336181640625
82.6484957913326	2.63336181640625
82.6584957913074	2.6336669921875
82.6684957912821	2.63336181640625
82.6784957912569	2.6336669921875
82.6884957912316	2.63336181640625
82.6984957912064	2.63397216796875
82.7084957911811	2.63458251953125
82.7184957911559	2.63458251953125
82.7284957911306	2.6348876953125
82.7384957911054	2.63458251953125
82.7484957910801	2.6348876953125
82.7584957910549	2.6348876953125
82.7684957910296	2.63519287109375
82.7784957910044	2.63519287109375
82.7884957909791	2.6348876953125
82.7984957909539	2.6348876953125
82.8084957909286	2.6348876953125
82.8184957909034	2.63519287109375
82.8284957908782	2.63519287109375
82.8384957908529	2.6348876953125
82.8484957908277	2.63458251953125
82.8584957908024	2.63458251953125
82.8684957907772	2.6348876953125
82.8784957907519	2.63458251953125
82.8884957907267	2.63458251953125
82.8984957907014	2.63427734375
82.9084957906762	2.63427734375
82.9184957906509	2.63427734375
82.9284957906257	2.63427734375
82.9384957906004	2.6336669921875
82.9484957905752	2.63336181640625
82.9584957905499	2.63275146484375
82.9684957905247	2.63275146484375
82.9784957904994	2.63336181640625
82.9884957904742	2.63336181640625
82.9984957904489	2.633056640625
83.0084957904237	2.6336669921875
83.0184957903984	2.6336669921875
83.0284957903732	2.633056640625
83.038495790348	2.6336669921875
83.0484957903227	2.63397216796875
83.0584957902975	2.63336181640625
83.0684957902722	2.63336181640625
83.078495790247	2.63336181640625
83.0884957902217	2.633056640625
83.0984957901965	2.63336181640625
83.1084957901712	2.63336181640625
83.118495790146	2.63336181640625
83.1284957901207	2.6336669921875
83.1384957900955	2.63397216796875
83.1484957900702	2.63397216796875
83.158495790045	2.63336181640625
83.1684957900197	2.633056640625
83.1784957899945	2.63336181640625
83.1884957899692	2.63336181640625
83.198495789944	2.63336181640625
83.2084957899187	2.633056640625
83.2184957898935	2.63336181640625
83.2284957898682	2.63336181640625
83.238495789843	2.63336181640625
83.2484957898178	2.633056640625
83.2584957897925	2.63336181640625
83.2684957897673	2.63336181640625
83.278495789742	2.63397216796875
83.2884957897168	2.63397216796875
83.2984957896915	2.6336669921875
83.3084957896663	2.63397216796875
83.318495789641	2.63397216796875
83.3284957896158	2.63397216796875
83.3384957895905	2.63427734375
83.3484957895653	2.63397216796875
83.35849578954	2.6336669921875
83.3684957895148	2.6336669921875
83.3784957894895	2.63397216796875
83.3884957894643	2.6336669921875
83.398495789439	2.63336181640625
83.4084957894138	2.6336669921875
83.4184957893885	2.63397216796875
83.4284957893633	2.63427734375
83.438495789338	2.63397216796875
83.4484957893128	2.633056640625
83.4584957892876	2.633056640625
83.4684957892623	2.63336181640625
83.4784957892371	2.63336181640625
83.4884957892118	2.633056640625
83.4984957891866	2.63336181640625
83.5084957891613	2.6336669921875
83.5184957891361	2.63397216796875
83.5284957891108	2.6336669921875
83.5384957890856	2.63427734375
83.5484957890603	2.63427734375
83.5584957890351	2.63427734375
83.5684957890098	2.63458251953125
83.5784957889846	2.63427734375
83.5884957889593	2.63397216796875
83.5984957889341	2.63336181640625
83.6084957889088	2.6336669921875
83.6184957888836	2.63397216796875
83.6284957888583	2.63397216796875
83.6384957888331	2.63427734375
83.6484957888078	2.63427734375
83.6584957887826	2.6336669921875
83.6684957887574	2.63397216796875
83.6784957887321	2.63397216796875
83.6884957887069	2.63458251953125
83.6984957886816	2.63397216796875
83.7084957886564	2.6336669921875
83.7184957886311	2.63336181640625
83.7284957886059	2.6336669921875
83.7384957885806	2.63397216796875
83.7484957885554	2.63397216796875
83.7584957885301	2.63397216796875
83.7684957885049	2.63458251953125
83.7784957884796	2.6348876953125
83.7884957884544	2.6348876953125
83.7984957884291	2.63458251953125
83.8084957884039	2.63397216796875
83.8184957883786	2.63427734375
83.8284957883534	2.63427734375
83.8384957883281	2.63458251953125
83.8484957883029	2.63427734375
83.8584957882777	2.63427734375
83.8684957882524	2.63458251953125
83.8784957882272	2.63427734375
83.8884957882019	2.63458251953125
83.8984957881767	2.63427734375
83.9084957881514	2.63427734375
83.9184957881262	2.63397216796875
83.9284957881009	2.63336181640625
83.9384957880757	2.63336181640625
83.9484957880504	2.6324462890625
83.9584957880252	2.63214111328125
83.9684957879999	2.63275146484375
83.9784957879747	2.63336181640625
83.9884957879494	2.63336181640625
83.9984957879242	2.6336669921875
84.0084957878989	2.63458251953125
84.0184957878737	2.633056640625
84.0284957878484	2.6324462890625
84.0384957878232	2.63275146484375
84.0484957877979	2.63214111328125
84.0584957877727	2.63214111328125
84.0684957877475	2.6324462890625
84.0784957877222	2.63214111328125
84.088495787697	2.6324462890625
84.0984957876717	2.633056640625
84.1084957876465	2.633056640625
84.1184957876212	2.63427734375
84.128495787596	2.63458251953125
84.1384957875707	2.63458251953125
84.1484957875455	2.63427734375
84.1584957875202	2.63397216796875
84.168495787495	2.63336181640625
84.1784957874697	2.63336181640625
84.1884957874445	2.63336181640625
84.1984957874192	2.63397216796875
84.208495787394	2.633056640625
84.2184957873687	2.63275146484375
84.2284957873435	2.633056640625
84.2384957873182	2.6336669921875
84.248495787293	2.63458251953125
84.2584957872677	2.63397216796875
84.2684957872425	2.63427734375
84.2784957872173	2.63427734375
84.288495787192	2.6336669921875
84.2984957871668	2.633056640625
84.3084957871415	2.6336669921875
84.3184957871163	2.6336669921875
84.328495787091	2.6336669921875
84.3384957870658	2.63336181640625
84.3484957870405	2.6336669921875
84.3584957870153	2.63427734375
84.36849578699	2.63427734375
84.3784957869648	2.63427734375
84.3884957869395	2.63427734375
84.3984957869143	2.63427734375
84.408495786889	2.6348876953125
84.4184957868638	2.63458251953125
84.4284957868385	2.63458251953125
84.4384957868133	2.635498046875
84.448495786788	2.63519287109375
84.4584957867628	2.635498046875
84.4684957867375	2.63519287109375
84.4784957867123	2.6348876953125
84.4884957866871	2.635498046875
84.4984957866618	2.635498046875
84.5084957866366	2.635498046875
84.5184957866113	2.63519287109375
84.5284957865861	2.63458251953125
84.5384957865608	2.6336669921875
84.5484957865356	2.63397216796875
84.5584957865103	2.63397216796875
84.5684957864851	2.635498046875
84.5784957864598	2.635498046875
84.5884957864346	2.6361083984375
84.5984957864093	2.635498046875
84.6084957863841	2.63580322265625
84.6184957863588	2.63580322265625
84.6284957863336	2.63580322265625
84.6384957863083	2.63519287109375
84.6484957862831	2.63458251953125
84.6584957862578	2.63458251953125
84.6684957862326	2.63397216796875
84.6784957862073	2.6336669921875
84.6884957861821	2.63336181640625
84.6984957861569	2.63427734375
84.7084957861316	2.63427734375
84.7184957861064	2.63427734375
84.7284957860811	2.63397216796875
84.7384957860559	2.63427734375
84.7484957860306	2.63397216796875
84.7584957860054	2.63427734375
84.7684957859801	2.63458251953125
84.7784957859549	2.635498046875
84.7884957859296	2.635498046875
84.7984957859044	2.635498046875
84.8084957858791	2.63519287109375
84.8184957858539	2.635498046875
84.8284957858286	2.635498046875
84.8384957858034	2.63519287109375
84.8484957857781	2.63519287109375
84.8584957857529	2.63519287109375
84.8684957857276	2.63580322265625
84.8784957857024	2.6348876953125
84.8884957856772	2.6348876953125
84.8984957856519	2.63519287109375
84.9084957856267	2.63519287109375
84.9184957856014	2.63458251953125
84.9284957855762	2.63397216796875
84.9384957855509	2.63397216796875
84.9484957855257	2.63427734375
84.9584957855004	2.6348876953125
84.9684957854752	2.6348876953125
84.9784957854499	2.6348876953125
84.9884957854247	2.63519287109375
84.9984957853994	2.6348876953125
85.0084957853742	2.63427734375
85.0184957853489	2.63397216796875
85.0284957853237	2.63397216796875
85.0384957852984	2.6336669921875
85.0484957852732	2.63336181640625
85.0584957852479	2.63336181640625
85.0684957852227	2.63397216796875
85.0784957851974	2.63427734375
85.0884957851722	2.63336181640625
85.098495785147	2.6336669921875
85.1084957851217	2.6336669921875
85.1184957850965	2.6336669921875
85.1284957850712	2.6336669921875
85.138495785046	2.6336669921875
85.1484957850207	2.6336669921875
85.1584957849955	2.63458251953125
85.1684957849702	2.63458251953125
85.178495784945	2.63427734375
85.1884957849197	2.63397216796875
85.1984957848945	2.63397216796875
85.2084957848692	2.63427734375
85.218495784844	2.6336669921875
85.2284957848187	2.6336669921875
85.2384957847935	2.63397216796875
85.2484957847682	2.63397216796875
85.258495784743	2.63397216796875
85.2684957847177	2.63397216796875
85.2784957846925	2.63397216796875
85.2884957846672	2.63397216796875
85.298495784642	2.633056640625
85.3084957846168	2.6336669921875
85.3184957845915	2.633056640625
85.3284957845663	2.63275146484375
85.338495784541	2.63336181640625
85.3484957845158	2.63336181640625
85.3584957844905	2.63427734375
85.3684957844653	2.63397216796875
85.37849578444	2.63458251953125
85.3884957844148	2.63427734375
85.3984957843895	2.63427734375
85.4084957843643	2.63336181640625
85.418495784339	2.63336181640625
85.4284957843138	2.63427734375
85.4384957842885	2.6348876953125
85.4484957842633	2.6348876953125
85.458495784238	2.63519287109375
85.4684957842128	2.63519287109375
85.4784957841875	2.63519287109375
85.4884957841623	2.63458251953125
85.498495784137	2.63427734375
85.5084957841118	2.63427734375
85.5184957840866	2.63458251953125
85.5284957840613	2.63458251953125
85.5384957840361	2.63397216796875
85.5484957840108	2.63397216796875
85.5584957839856	2.6336669921875
85.5684957839603	2.63397216796875
85.5784957839351	2.63397216796875
85.5884957839098	2.63397216796875
85.5984957838846	2.63427734375
85.6084957838593	2.63458251953125
85.6184957838341	2.6348876953125
85.6284957838088	2.63458251953125
85.6384957837836	2.63458251953125
85.6484957837583	2.63427734375
85.6584957837331	2.63397216796875
85.6684957837078	2.6336669921875
85.6784957836826	2.633056640625
85.6884957836573	2.63275146484375
85.6984957836321	2.63275146484375
85.7084957836068	2.6324462890625
