Time (s)	WE(1).Potential (V)
128.620072675266	2.53265380859375
128.63007267524	2.53265380859375
128.640072675215	2.5323486328125
128.65007267519	2.5323486328125
128.660072675165	2.532958984375
128.670072675139	2.53204345703125
128.680072675114	2.53204345703125
128.690072675089	2.53173828125
128.700072675064	2.53173828125
128.710072675038	2.53204345703125
128.720072675013	2.5323486328125
128.730072674988	2.5323486328125
128.740072674963	2.5323486328125
128.750072674937	2.53173828125
128.760072674912	2.53173828125
128.770072674887	2.5323486328125
128.780072674862	2.53143310546875
128.790072674836	2.53265380859375
128.800072674811	2.53204345703125
128.810072674786	2.53143310546875
128.820072674761	2.5323486328125
128.830072674735	2.5323486328125
128.84007267471	2.53265380859375
128.850072674685	2.53265380859375
128.86007267466	2.53082275390625
128.870072674634	2.5311279296875
128.880072674609	2.530517578125
128.890072674584	2.5311279296875
128.900072674559	2.53082275390625
128.910072674533	2.530517578125
128.920072674508	2.530517578125
128.930072674483	2.53082275390625
128.940072674458	2.530517578125
128.950072674432	2.530517578125
128.960072674407	2.53021240234375
128.970072674382	2.52960205078125
128.980072674357	2.53021240234375
128.990072674331	2.530517578125
129.000072674306	2.53021240234375
129.010072674281	2.530517578125
129.020072674256	2.53082275390625
129.03007267423	2.53021240234375
129.040072674205	2.5299072265625
129.05007267418	2.529296875
129.060072674155	2.52960205078125
129.070072674129	2.5299072265625
129.080072674104	2.53021240234375
129.090072674079	2.53021240234375
129.100072674054	2.53021240234375
129.110072674028	2.53021240234375
129.120072674003	2.52960205078125
129.130072673978	2.52960205078125
129.140072673953	2.5299072265625
129.150072673927	2.53021240234375
129.160072673902	2.5299072265625
129.170072673877	2.5299072265625
129.180072673852	2.52960205078125
129.190072673826	2.5299072265625
129.200072673801	2.52960205078125
129.210072673776	2.5299072265625
129.220072673751	2.5299072265625
129.230072673725	2.5299072265625
129.2400726737	2.52960205078125
129.250072673675	2.529296875
129.26007267365	2.53021240234375
129.270072673624	2.530517578125
129.280072673599	2.530517578125
129.290072673574	2.530517578125
129.300072673549	2.530517578125
129.310072673523	2.530517578125
129.320072673498	2.530517578125
129.330072673473	2.5299072265625
129.340072673448	2.53021240234375
129.350072673422	2.53021240234375
129.360072673397	2.530517578125
129.370072673372	2.53021240234375
129.380072673347	2.530517578125
129.390072673321	2.5311279296875
129.400072673296	2.5323486328125
129.410072673271	2.53387451171875
129.420072673246	2.53509521484375
129.43007267322	2.53387451171875
129.440072673195	2.53326416015625
129.45007267317	2.5335693359375
129.460072673145	2.53387451171875
129.470072673119	2.5341796875
129.480072673094	2.53387451171875
129.490072673069	2.53387451171875
129.500072673044	2.53387451171875
129.510072673018	2.5335693359375
129.520072672993	2.5335693359375
129.530072672968	2.5335693359375
129.540072672943	2.53387451171875
129.550072672918	2.5335693359375
129.560072672892	2.53387451171875
129.570072672867	2.5341796875
129.580072672842	2.53387451171875
129.590072672817	2.53387451171875
129.600072672791	2.53448486328125
129.610072672766	2.5341796875
129.620072672741	2.53448486328125
129.630072672716	2.532958984375
129.64007267269	2.53265380859375
129.650072672665	2.53326416015625
129.66007267264	2.53570556640625
129.670072672615	2.53631591796875
129.680072672589	2.535400390625
129.690072672564	2.53509521484375
129.700072672539	2.53509521484375
129.710072672514	2.53448486328125
129.720072672488	2.53448486328125
129.730072672463	2.53448486328125
129.740072672438	2.53448486328125
129.750072672413	2.5335693359375
129.760072672387	2.53326416015625
129.770072672362	2.532958984375
129.780072672337	2.5323486328125
129.790072672312	2.53143310546875
129.800072672286	2.5311279296875
129.810072672261	2.53021240234375
129.820072672236	2.53021240234375
129.830072672211	2.530517578125
129.840072672185	2.53082275390625
129.85007267216	2.53143310546875
129.860072672135	2.530517578125
129.87007267211	2.53021240234375
129.880072672084	2.53021240234375
129.890072672059	2.53021240234375
129.900072672034	2.530517578125
129.910072672009	2.530517578125
129.920072671983	2.53082275390625
129.930072671958	2.53082275390625
129.940072671933	2.5311279296875
129.950072671908	2.53082275390625
129.960072671882	2.5311279296875
129.970072671857	2.53143310546875
129.980072671832	2.5311279296875
129.990072671807	2.5311279296875
130.000072671781	2.5311279296875
130.010072671756	2.53143310546875
130.020072671731	2.5311279296875
130.030072671706	2.53143310546875
130.04007267168	2.53173828125
130.050072671655	2.53143310546875
130.06007267163	2.53143310546875
130.070072671605	2.5311279296875
130.080072671579	2.53082275390625
130.090072671554	2.530517578125
130.100072671529	2.5299072265625
130.110072671504	2.5311279296875
130.120072671478	2.53082275390625
130.130072671453	2.530517578125
130.140072671428	2.52838134765625
130.150072671403	2.5286865234375
130.160072671377	2.52899169921875
130.170072671352	2.52838134765625
130.180072671327	2.529296875
130.190072671302	2.5286865234375
130.200072671276	2.52777099609375
130.210072671251	2.52716064453125
130.220072671226	2.52777099609375
130.230072671201	2.52899169921875
130.240072671175	2.53173828125
130.25007267115	2.53387451171875
130.260072671125	2.5335693359375
130.2700726711	2.53265380859375
130.280072671074	2.532958984375
130.290072671049	2.53265380859375
130.300072671024	2.532958984375
130.310072670999	2.53326416015625
130.320072670973	2.53387451171875
130.330072670948	2.53448486328125
130.340072670923	2.5341796875
130.350072670898	2.5341796875
130.360072670872	2.53448486328125
130.370072670847	2.53448486328125
130.380072670822	2.5341796875
130.390072670797	2.5341796875
130.400072670771	2.5341796875
130.410072670746	2.5335693359375
130.420072670721	2.5335693359375
130.430072670696	2.53387451171875
130.44007267067	2.53326416015625
130.450072670645	2.53265380859375
130.46007267062	2.53265380859375
130.470072670595	2.5323486328125
130.480072670569	2.53326416015625
130.490072670544	2.5323486328125
130.500072670519	2.53204345703125
130.510072670494	2.5323486328125
130.520072670468	2.5323486328125
130.530072670443	2.5323486328125
130.540072670418	2.53265380859375
130.550072670393	2.532958984375
130.560072670368	2.53265380859375
130.570072670342	2.5323486328125
130.580072670317	2.53265380859375
130.590072670292	2.5323486328125
130.600072670267	2.5323486328125
130.610072670241	2.53265380859375
130.620072670216	2.53204345703125
130.630072670191	2.53265380859375
130.640072670166	2.5323486328125
130.65007267014	2.53204345703125
130.660072670115	2.53204345703125
130.67007267009	2.5323486328125
130.680072670065	2.532958984375
130.690072670039	2.532958984375
130.700072670014	2.532958984375
130.710072669989	2.5335693359375
130.720072669964	2.5335693359375
130.730072669938	2.5335693359375
130.740072669913	2.53387451171875
130.750072669888	2.5341796875
130.760072669863	2.53448486328125
130.770072669837	2.53387451171875
130.780072669812	2.53326416015625
130.790072669787	2.53326416015625
130.800072669762	2.5335693359375
130.810072669736	2.53326416015625
130.820072669711	2.5341796875
130.830072669686	2.5335693359375
130.840072669661	2.532958984375
130.850072669635	2.53326416015625
130.86007266961	2.53326416015625
130.870072669585	2.53326416015625
130.88007266956	2.53326416015625
130.890072669534	2.5335693359375
130.900072669509	2.53204345703125
130.910072669484	2.53173828125
130.920072669459	2.53143310546875
130.930072669433	2.53204345703125
130.940072669408	2.53204345703125
130.950072669383	2.530517578125
130.960072669358	2.530517578125
130.970072669332	2.530517578125
130.980072669307	2.5299072265625
130.990072669282	2.530517578125
131.000072669257	2.530517578125
131.010072669231	2.530517578125
131.020072669206	2.530517578125
131.030072669181	2.53021240234375
131.040072669156	2.53082275390625
131.05007266913	2.5311279296875
131.060072669105	2.5311279296875
131.07007266908	2.53082275390625
131.080072669055	2.5311279296875
131.090072669029	2.53082275390625
131.100072669004	2.5311279296875
131.110072668979	2.5311279296875
131.120072668954	2.53082275390625
131.130072668928	2.5311279296875
131.140072668903	2.5311279296875
131.150072668878	2.532958984375
131.160072668853	2.5341796875
131.170072668827	2.53387451171875
131.180072668802	2.53448486328125
131.190072668777	2.5341796875
131.200072668752	2.5335693359375
131.210072668726	2.53448486328125
131.220072668701	2.5341796875
131.230072668676	2.53204345703125
131.240072668651	2.53021240234375
131.250072668625	2.530517578125
131.2600726686	2.52960205078125
131.270072668575	2.52899169921875
131.28007266855	2.5286865234375
131.290072668524	2.5274658203125
131.300072668499	2.52777099609375
131.310072668474	2.5286865234375
131.320072668449	2.5286865234375
131.330072668423	2.52838134765625
131.340072668398	2.52838134765625
131.350072668373	2.5286865234375
131.360072668348	2.5286865234375
131.370072668322	2.5286865234375
131.380072668297	2.5286865234375
131.390072668272	2.52899169921875
131.400072668247	2.5286865234375
131.410072668221	2.529296875
131.420072668196	2.5286865234375
131.430072668171	2.52899169921875
131.440072668146	2.529296875
131.45007266812	2.52838134765625
131.460072668095	2.52838134765625
131.47007266807	2.528076171875
131.480072668045	2.528076171875
131.490072668019	2.52777099609375
131.500072667994	2.52777099609375
131.510072667969	2.52777099609375
131.520072667944	2.5274658203125
131.530072667918	2.52777099609375
131.540072667893	2.5286865234375
131.550072667868	2.5286865234375
131.560072667843	2.52960205078125
131.570072667817	2.5286865234375
131.580072667792	2.52777099609375
131.590072667767	2.52777099609375
131.600072667742	2.5274658203125
131.610072667717	2.52716064453125
131.620072667691	2.528076171875
131.630072667666	2.52838134765625
131.640072667641	2.528076171875
131.650072667616	2.528076171875
131.66007266759	2.52685546875
131.670072667565	2.52685546875
131.68007266754	2.52685546875
131.690072667515	2.5262451171875
131.700072667489	2.52716064453125
131.710072667464	2.52532958984375
131.720072667439	2.5250244140625
131.730072667414	2.525634765625
131.740072667388	2.525634765625
131.750072667363	2.525634765625
131.760072667338	2.525634765625
131.770072667313	2.52532958984375
131.780072667287	2.5250244140625
131.790072667262	2.52716064453125
131.800072667237	2.5274658203125
131.810072667212	2.52838134765625
131.820072667186	2.5286865234375
131.830072667161	2.5286865234375
131.840072667136	2.53021240234375
131.850072667111	2.52960205078125
131.860072667085	2.52899169921875
131.87007266706	2.529296875
131.880072667035	2.52960205078125
131.89007266701	2.529296875
131.900072666984	2.52899169921875
131.910072666959	2.52899169921875
131.920072666934	2.52899169921875
131.930072666909	2.52838134765625
131.940072666883	2.52838134765625
131.950072666858	2.5286865234375
131.960072666833	2.528076171875
131.970072666808	2.52685546875
131.980072666782	2.525634765625
131.990072666757	2.525634765625
132.000072666732	2.5262451171875
132.010072666707	2.5262451171875
132.020072666681	2.5262451171875
132.030072666656	2.52685546875
132.040072666631	2.52655029296875
132.050072666606	2.525634765625
132.06007266658	2.525634765625
132.070072666555	2.5250244140625
132.08007266653	2.52532958984375
132.090072666505	2.5250244140625
132.100072666479	2.525634765625
132.110072666454	2.525634765625
132.120072666429	2.525634765625
132.130072666404	2.525634765625
132.140072666378	2.52532958984375
132.150072666353	2.525634765625
132.160072666328	2.52593994140625
132.170072666303	2.5262451171875
132.180072666277	2.52838134765625
132.190072666252	2.5286865234375
132.200072666227	2.52838134765625
132.210072666202	2.52838134765625
132.220072666176	2.528076171875
132.230072666151	2.52838134765625
132.240072666126	2.52838134765625
132.250072666101	2.52838134765625
132.260072666075	2.52838134765625
132.27007266605	2.52838134765625
132.280072666025	2.52899169921875
132.290072666	2.529296875
132.300072665974	2.5286865234375
132.310072665949	2.52899169921875
132.320072665924	2.5299072265625
132.330072665899	2.530517578125
132.340072665873	2.53082275390625
132.350072665848	2.5311279296875
132.360072665823	2.5311279296875
132.370072665798	2.53143310546875
132.380072665772	2.53143310546875
132.390072665747	2.53143310546875
132.400072665722	2.53143310546875
132.410072665697	2.5311279296875
132.420072665671	2.53143310546875
132.430072665646	2.53204345703125
132.440072665621	2.53204345703125
132.450072665596	2.53204345703125
132.46007266557	2.53173828125
132.470072665545	2.5323486328125
132.48007266552	2.532958984375
132.490072665495	2.53204345703125
132.500072665469	2.53173828125
132.510072665444	2.53173828125
132.520072665419	2.53173828125
132.530072665394	2.53173828125
132.540072665368	2.53173828125
132.550072665343	2.53143310546875
132.560072665318	2.53173828125
132.570072665293	2.5311279296875
132.580072665267	2.530517578125
132.590072665242	2.5311279296875
132.600072665217	2.5311279296875
132.610072665192	2.53143310546875
132.620072665167	2.53173828125
132.630072665141	2.530517578125
132.640072665116	2.530517578125
132.650072665091	2.530517578125
132.660072665066	2.530517578125
132.67007266504	2.53143310546875
132.680072665015	2.53143310546875
132.69007266499	2.53173828125
132.700072664965	2.53173828125
132.710072664939	2.53082275390625
132.720072664914	2.53082275390625
132.730072664889	2.5311279296875
132.740072664864	2.530517578125
132.750072664838	2.53143310546875
132.760072664813	2.53143310546875
132.770072664788	2.53143310546875
132.780072664763	2.53173828125
132.790072664737	2.53204345703125
132.800072664712	2.5323486328125
132.810072664687	2.5335693359375
132.820072664662	2.5341796875
132.830072664636	2.53387451171875
132.840072664611	2.5335693359375
132.850072664586	2.53387451171875
132.860072664561	2.53387451171875
132.870072664535	2.5335693359375
132.88007266451	2.53387451171875
132.890072664485	2.53509521484375
132.90007266446	2.53509521484375
132.910072664434	2.53570556640625
132.920072664409	2.535400390625
132.930072664384	2.5341796875
132.940072664359	2.5341796875
132.950072664333	2.53509521484375
132.960072664308	2.535400390625
132.970072664283	2.53387451171875
132.980072664258	2.5335693359375
132.990072664232	2.5341796875
133.000072664207	2.53387451171875
133.010072664182	2.53265380859375
133.020072664157	2.5323486328125
133.030072664131	2.5323486328125
133.040072664106	2.5335693359375
133.050072664081	2.5335693359375
133.060072664056	2.53387451171875
133.07007266403	2.53326416015625
133.080072664005	2.53326416015625
133.09007266398	2.532958984375
133.100072663955	2.53265380859375
133.110072663929	2.5335693359375
133.120072663904	2.53448486328125
133.130072663879	2.53509521484375
133.140072663854	2.53509521484375
133.150072663828	2.5341796875
133.160072663803	2.5335693359375
133.170072663778	2.53265380859375
133.180072663753	2.53143310546875
133.190072663727	2.53082275390625
133.200072663702	2.53082275390625
133.210072663677	2.530517578125
133.220072663652	2.53082275390625
133.230072663626	2.53082275390625
133.240072663601	2.53082275390625
133.250072663576	2.530517578125
133.260072663551	2.53143310546875
133.270072663525	2.530517578125
133.2800726635	2.53021240234375
133.290072663475	2.5299072265625
133.30007266345	2.53143310546875
133.310072663424	2.530517578125
133.320072663399	2.53021240234375
133.330072663374	2.5299072265625
133.340072663349	2.5299072265625
133.350072663323	2.529296875
133.360072663298	2.5299072265625
133.370072663273	2.530517578125
133.380072663248	2.52838134765625
133.390072663222	2.52838134765625
133.400072663197	2.52899169921875
133.410072663172	2.52899169921875
133.420072663147	2.52899169921875
133.430072663121	2.52899169921875
133.440072663096	2.5286865234375
133.450072663071	2.5286865234375
133.460072663046	2.528076171875
133.47007266302	2.52777099609375
133.480072662995	2.52777099609375
133.49007266297	2.52899169921875
133.500072662945	2.5274658203125
133.510072662919	2.5274658203125
133.520072662894	2.52716064453125
133.530072662869	2.52685546875
133.540072662844	2.52655029296875
133.550072662818	2.525634765625
133.560072662793	2.525634765625
133.570072662768	2.52532958984375
133.580072662743	2.52532958984375
133.590072662717	2.52471923828125
133.600072662692	2.52471923828125
133.610072662667	2.52471923828125
