Potential applied (V)	WE(1).Current (A)	Time (s)
0.004425048828125	-0.0776336669921875	5212.43038783988
0.00885009765625	-0.0701995849609375	5212.51888883966
0.013275146484375	-0.064178466796875	5212.60738983943
0.0177001953125	-0.0590087890625	5212.69589083921
0.022125244140625	-0.054437255859375	5212.78439183898
0.02655029296875	-0.050347900390625	5212.87289283876
0.030975341796875	-0.0466552734375	5212.96139383854
0.035400390625	-0.043304443359375	5213.04989483831
0.039825439453125	-0.0402496337890625	5213.13839583809
0.04425048828125	-0.037451171875	5213.22689683787
0.048675537109375	-0.0348846435546875	5213.31539783764
0.0531005859375	-0.0325225830078125	5213.40389883742
0.057525634765625	-0.0303375244140625	5213.4923998372
0.06195068359375	-0.0283172607421875	5213.58090083697
0.066375732421875	-0.026446533203125	5213.66940183675
0.07080078125	-0.0247039794921875	5213.75790283653
0.075225830078125	-0.023077392578125	5213.8464038363
0.07965087890625	-0.0215606689453125	5213.93490483608
0.084075927734375	-0.0201446533203125	5214.02340583586
0.0885009765625	-0.01881103515625	5214.11190683563
0.092926025390625	-0.01756591796875	5214.20040783541
0.09735107421875	-0.0163970947265625	5214.28890883519
0.101776123046875	-0.0152984619140625	5214.37740983496
0.106201171875	-0.014263916015625	5214.46591083474
0.110626220703125	-0.0132904052734375	5214.55441183452
0.11505126953125	-0.0123748779296875	5214.64291283429
0.119476318359375	-0.01151123046875	5214.73141383407
0.1239013671875	-0.0106964111328125	5214.81991483385
0.128326416015625	-0.0099273681640625	5214.90841583362
0.13275146484375	-0.009197998046875	5214.9969168334
0.137176513671875	-0.0085113525390625	5215.08541783317
0.1416015625	-0.0078582763671875	5215.17391883295
0.146026611328125	-0.007244873046875	5215.26241983273
0.15045166015625	-0.0066619873046875	5215.3509208325
0.154876708984375	-0.006109619140625	5215.43942183228
0.1593017578125	-0.005584716796875	5215.52792283206
0.163726806640625	-0.00509033203125	5215.61642383183
0.16815185546875	-0.0046209716796875	5215.70492483161
0.172576904296875	-0.00417388916015625	5215.79342583139
0.177001953125	-0.00374969482421875	5215.88192683116
0.181427001953125	-0.00334686279296875	5215.97042783094
0.18585205078125	-0.0029638671875	5216.05892883072
0.190277099609375	-0.00261016845703125	5216.14742983049
0.1947021484375	-0.00226318359375	5216.23593083027
0.199127197265625	-0.00193328857421875	5216.32443183005
0.20355224609375	-0.0016192626953125	5216.41293282982
0.207977294921875	-0.00132049560546875	5216.5014338296
0.21240234375	-0.0010357666015625	5216.58993482938
0.216827392578125	-0.00076507568359375	5216.67843582915
0.22125244140625	-0.00050628662109375	5216.76693682893
0.225677490234375	-0.00026043701171875	5216.85543782871
0.2301025390625	-2.52410888671875E-05	5216.94393882848
0.234527587890625	0.00019757080078125	5217.03243982826
0.23895263671875	0.00041143798828125	5217.12094082804
0.243377685546875	0.00061553955078125	5217.20944182781
0.247802734375	0.00081024169921875	5217.29794282759
0.252227783203125	0.00099609375	5217.38644382737
0.25665283203125	0.00117401123046875	5217.47494482714
0.261077880859375	0.001343994140625	5217.56344582692
0.2655029296875	0.00150634765625	5217.6519468267
0.269927978515625	0.0016619873046875	5217.74044782647
0.27435302734375	0.00180999755859375	5217.82894882625
0.278778076171875	0.00195220947265625	5217.91744982602
0.283203125	0.0020880126953125	5218.0059508258
0.287628173828125	0.0022186279296875	5218.09445182558
0.29205322265625	0.00234344482421875	5218.18295282535
0.296478271484375	0.00246337890625	5218.27145382513
0.3009033203125	0.00257781982421875	5218.35995482491
0.305328369140625	0.00268768310546875	5218.44845582468
0.30975341796875	0.0027935791015625	5218.53695682446
0.314178466796875	0.00289794921875	5218.62545782424
0.318603515625	0.002994384765625	5218.71395882401
0.323028564453125	0.00308807373046875	5218.80245982379
0.32745361328125	0.00317718505859375	5218.89096082357
0.331878662109375	0.003262939453125	5218.97946182334
0.3363037109375	0.00334564208984375	5219.06796282312
0.340728759765625	0.00342681884765625	5219.1564638229
0.34515380859375	0.00350372314453125	5219.24496482267
0.349578857421875	0.0035784912109375	5219.33346582245
0.35400390625	0.00364776611328125	5219.42196682223
0.358428955078125	0.003717041015625	5219.510467822
0.36285400390625	0.00378387451171875	5219.59896882178
0.367279052734375	0.0038482666015625	5219.68746982156
0.3717041015625	0.0039111328125	5219.77597082133
0.376129150390625	0.00397186279296875	5219.86447182111
0.38055419921875	0.0040301513671875	5219.95297282089
0.384979248046875	0.00408782958984375	5220.04147382066
0.389404296875	0.00414306640625	5220.12997482044
0.393829345703125	0.0041949462890625	5220.21847582022
0.39825439453125	0.0042462158203125	5220.30697681999
0.402679443359375	0.004295654296875	5220.39547781977
0.4071044921875	0.00434356689453125	5220.48397881954
0.411529541015625	0.00438995361328125	5220.57247981932
0.41595458984375	0.00443511962890625	5220.6609808191
0.420379638671875	0.00447845458984375	5220.74948181887
0.4248046875	0.00452178955078125	5220.83798281865
0.429229736328125	0.00456329345703125	5220.92648381843
0.43365478515625	0.0046026611328125	5221.0149848182
0.438079833984375	0.00464324951171875	5221.10348581798
0.4425048828125	0.00468231201171875	5221.19198681776
0.446929931640625	0.00471923828125	5221.28048781753
0.45135498046875	0.0047552490234375	5221.36898881731
0.455780029296875	0.004791259765625	5221.45748981709
0.460205078125	0.00482635498046875	5221.54599081686
0.464630126953125	0.0048602294921875	5221.63449181664
0.46905517578125	0.00489288330078125	5221.72299281642
0.473480224609375	0.0049249267578125	5221.81149381619
0.4779052734375	0.00495635986328125	5221.89999481597
0.482330322265625	0.00498687744140625	5221.98849581575
0.48675537109375	0.00501678466796875	5222.07699681552
0.491180419921875	0.0050457763671875	5222.1654978153
0.49560546875	0.005074462890625	5222.25399881508
0.500030517578125	0.00510223388671875	5222.34249981485
0.50445556640625	0.00512939453125	5222.43100081463
0.508880615234375	0.00515533447265625	5222.51950181441
0.5133056640625	0.00518096923828125	5222.60800281418
0.517730712890625	0.00520599365234375	5222.69650381396
0.52215576171875	0.00523040771484375	5222.78500481374
0.526580810546875	0.0052545166015625	5222.87350581351
0.531005859375	0.005277099609375	5222.96200681329
0.535430908203125	0.0052996826171875	5223.05050781307
0.53985595703125	0.0053216552734375	5223.13900881284
0.544281005859375	0.0053424072265625	5223.22750981262
0.5487060546875	0.0053619384765625	5223.31601081239
0.553131103515625	0.0053814697265625	5223.40451181217
0.55755615234375	0.00540069580078125	5223.49301281195
0.561981201171875	0.00541900634765625	5223.58151381172
0.56640625	0.00543670654296875	5223.6700148115
0.570831298828125	0.00545379638671875	5223.75851581128
0.57525634765625	0.00547027587890625	5223.84701681105
0.579681396484375	0.00548583984375	5223.93551781083
0.5841064453125	0.0055010986328125	5224.02401881061
0.588531494140625	0.005513916015625	5224.11251981038
0.59295654296875	0.00552764892578125	5224.20102081016
0.597381591796875	0.0055413818359375	5224.28952180994
0.601806640625	0.0055535888671875	5224.37802280971
0.606231689453125	0.0055657958984375	5224.46652380949
0.61065673828125	0.005577392578125	5224.55502480927
0.615081787109375	0.00558837890625	5224.64352580904
0.6195068359375	0.00559814453125	5224.73202680882
0.623931884765625	0.0056085205078125	5224.8205278086
0.62835693359375	0.00562164306640625	5224.90902880837
0.632781982421875	0.00563018798828125	5224.99752980815
0.63720703125	0.00563812255859375	5225.08603080793
0.641632080078125	0.00564605712890625	5225.1745318077
0.64605712890625	0.00565338134765625	5225.26303280748
0.650482177734375	0.0056597900390625	5225.35153380726
0.6549072265625	0.00566680908203125	5225.44003480703
0.659332275390625	0.005673828125	5225.52853580681
0.66375732421875	0.0056793212890625	5225.61703680659
0.668182373046875	0.0056854248046875	5225.70553780636
0.672607421875	0.00569091796875	5225.79403880614
0.677032470703125	0.00569671630859375	5225.88253980592
0.68145751953125	0.005701904296875	5225.97104080569
0.685882568359375	0.00570709228515625	5226.05954180547
0.6903076171875	0.00571197509765625	5226.14804280524
0.694732666015625	0.00571746826171875	5226.23654380502
0.69915771484375	0.00572296142578125	5226.3250448048
0.703582763671875	0.0057269287109375	5226.41354580457
0.7080078125	0.0057318115234375	5226.50204680435
0.712432861328125	0.0057373046875	5226.59054780413
0.71685791015625	0.00574249267578125	5226.6790488039
0.721282958984375	0.005748291015625	5226.76754980368
0.7257080078125	0.00575408935546875	5226.85605080346
0.730133056640625	0.00575927734375	5226.94455180323
0.73455810546875	0.005765380859375	5227.03305280301
0.738983154296875	0.00577178955078125	5227.12155380279
0.743408203125	0.0057763671875	5227.21005480256
0.747833251953125	0.00578338623046875	5227.29855580234
0.75225830078125	0.0057904052734375	5227.38705680212
0.756683349609375	0.0057977294921875	5227.47555780189
0.7611083984375	0.0058056640625	5227.56405880167
0.765533447265625	0.00581390380859375	5227.65255980145
0.76995849609375	0.00582244873046875	5227.74106080122
0.774383544921875	0.00583160400390625	5227.829561801
0.77880859375	0.00584075927734375	5227.91806280078
0.783233642578125	0.00585052490234375	5228.00656380055
0.78765869140625	0.00586090087890625	5228.09506480033
0.792083740234375	0.00587188720703125	5228.18356580011
0.7965087890625	0.00588348388671875	5228.27206679988
0.800933837890625	0.0058953857421875	5228.36056779966
0.80535888671875	0.005908203125	5228.44906879943
0.809783935546875	0.0059210205078125	5228.53756979921
0.814208984375	0.00593536376953125	5228.62607079899
0.818634033203125	0.00594970703125	5228.71457179877
0.82305908203125	0.005965576171875	5228.80307279854
0.827484130859375	0.00598175048828125	5228.89157379832
0.8319091796875	0.0059991455078125	5228.98007479809
0.836334228515625	0.0060174560546875	5229.06857579787
0.84075927734375	0.0060272216796875	5229.15707679765
0.845184326171875	0.006048583984375	5229.24557779742
0.849609375	0.00606689453125	5229.3340787972
0.854034423828125	0.0060882568359375	5229.42257979698
0.85845947265625	0.0061126708984375	5229.51108079675
0.862884521484375	0.006134033203125	5229.59958179653
0.8673095703125	0.0061614990234375	5229.68808279631
0.871734619140625	0.0061859130859375	5229.77658379608
0.87615966796875	0.0062164306640625	5229.86508479586
0.880584716796875	0.006243896484375	5229.95358579564
0.885009765625	0.0062744140625	5230.04208679541
0.889434814453125	0.006304931640625	5230.13058779519
0.89385986328125	0.0063385009765625	5230.21908879497
0.898284912109375	0.0063751220703125	5230.30758979474
0.9027099609375	0.0064117431640625	5230.39609079452
0.907135009765625	0.006451416015625	5230.4845917943
0.91156005859375	0.0064910888671875	5230.57309279407
0.915985107421875	0.0065338134765625	5230.66159379385
0.92041015625	0.0065765380859375	5230.75009479363
0.924835205078125	0.0066192626953125	5230.8385957934
0.92926025390625	0.0066680908203125	5230.92709679318
0.933685302734375	0.0067169189453125	5231.01559779296
0.9381103515625	0.006768798828125	5231.10409879273
0.942535400390625	0.0068206787109375	5231.19259979251
0.94696044921875	0.00687255859375	5231.28110079228
0.951385498046875	0.0069305419921875	5231.36960179206
0.955810546875	0.0069854736328125	5231.45810279184
0.960235595703125	0.00704345703125	5231.54660379161
0.96466064453125	0.0071044921875	5231.63510479139
0.969085693359375	0.0071624755859375	5231.72360579117
0.9735107421875	0.0072265625	5231.81210679094
0.977935791015625	0.00728759765625	5231.90060779072
0.98236083984375	0.007354736328125	5231.9891087905
0.986785888671875	0.0074188232421875	5232.07760979027
0.9912109375	0.007489013671875	5232.16611079005
0.995635986328125	0.00755615234375	5232.25461178983
1.00006103515625	0.0076263427734375	5232.3431127896
0.995635986328125	0.0069610595703125	5232.43161378938
0.9912109375	0.00635986328125	5232.52011478916
0.986785888671875	0.0058074951171875	5232.60861578893
0.98236083984375	0.0052886962890625	5232.69711678871
0.977935791015625	0.0048040771484375	5232.78561778849
0.9735107421875	0.00434783935546875	5232.87411878826
0.969085693359375	0.00391387939453125	5232.96261978804
0.96466064453125	0.003502197265625	5233.05112078782
0.960235595703125	0.0031103515625	5233.13962178759
0.955810546875	0.002738037109375	5233.22812278737
0.951385498046875	0.0023797607421875	5233.31662378715
0.94696044921875	0.00203765869140625	5233.40512478692
0.942535400390625	0.001710205078125	5233.4936257867
0.9381103515625	0.00139617919921875	5233.58212678648
0.933685302734375	0.00109222412109375	5233.67062778625
0.92926025390625	0.00080352783203125	5233.75912878603
0.924835205078125	0.000526123046875	5233.84762978581
0.92041015625	0.000259185791015625	5233.93613078558
0.915985107421875	2.899169921875E-06	5234.02463178536
0.91156005859375	-0.000243408203125	5234.11313278513
0.907135009765625	-0.0004801025390625	5234.20163378491
0.9027099609375	-0.0007080078125	5234.29013478469
0.898284912109375	-0.00092681884765625	5234.37863578446
0.89385986328125	-0.0011383056640625	5234.46713678424
0.889434814453125	-0.001341552734375	5234.55563778402
0.885009765625	-0.00153656005859375	5234.64413878379
0.880584716796875	-0.0017242431640625	5234.73263978357
0.87615966796875	-0.00190521240234375	5234.82114078335
0.871734619140625	-0.0020794677734375	5234.90964178312
0.8673095703125	-0.00224700927734375	5234.9981427829
0.862884521484375	-0.0024078369140625	5235.08664378268
0.85845947265625	-0.0025616455078125	5235.17514478245
0.854034423828125	-0.00271087646484375	5235.26364578223
0.849609375	-0.00285430908203125	5235.35214678201
0.845184326171875	-0.0029913330078125	5235.44064778178
0.84075927734375	-0.00312408447265625	5235.52914878156
0.836334228515625	-0.00325103759765625	5235.61764978134
0.8319091796875	-0.003372802734375	5235.70615078111
0.827484130859375	-0.003489990234375	5235.79465178089
0.82305908203125	-0.003602294921875	5235.88315278067
0.818634033203125	-0.00371002197265625	5235.97165378044
0.814208984375	-0.00381317138671875	5236.06015478022
0.809783935546875	-0.00391143798828125	5236.14865578
0.80535888671875	-0.00400634765625	5236.23715677977
0.800933837890625	-0.0040972900390625	5236.32565777955
0.7965087890625	-0.004183349609375	5236.41415877933
0.792083740234375	-0.00426666259765625	5236.5026597791
0.78765869140625	-0.00434539794921875	5236.59116077888
0.783233642578125	-0.00442108154296875	5236.67966177865
0.77880859375	-0.004493408203125	5236.76816277843
0.774383544921875	-0.00456146240234375	5236.85666377821
0.76995849609375	-0.00462738037109375	5236.94516477798
0.765533447265625	-0.0046905517578125	5237.03366577776
0.7611083984375	-0.00475006103515625	5237.12216677754
0.756683349609375	-0.0048065185546875	5237.21066777731
0.75225830078125	-0.00486053466796875	5237.29916877709
0.747833251953125	-0.004912109375	5237.38766977687
0.743408203125	-0.0049609375	5237.47617077664
0.738983154296875	-0.00500518798828125	5237.56467177642
0.73455810546875	-0.005048828125	5237.6531727762
0.730133056640625	-0.00509063720703125	5237.74167377597
0.7257080078125	-0.005130615234375	5237.83017477575
0.721282958984375	-0.00516845703125	5237.91867577553
0.71685791015625	-0.00520416259765625	5238.0071767753
0.712432861328125	-0.0052374267578125	5238.09567777508
0.7080078125	-0.00526885986328125	5238.18417877486
0.703582763671875	-0.00529876708984375	5238.27267977463
0.69915771484375	-0.0053271484375	5238.36118077441
0.694732666015625	-0.00535400390625	5238.44968177419
0.6903076171875	-0.005379638671875	5238.53818277396
0.685882568359375	-0.00540435791015625	5238.62668377374
0.68145751953125	-0.00542572021484375	5238.71518477352
0.677032470703125	-0.00544708251953125	5238.80368577329
0.672607421875	-0.00546630859375	5238.89218677307
0.668182373046875	-0.0054852294921875	5238.98068777285
0.66375732421875	-0.00550384521484375	5239.06918877262
0.659332275390625	-0.0055206298828125	5239.1576897724
0.6549072265625	-0.00553680419921875	5239.24619077218
0.650482177734375	-0.0055517578125	5239.33469177195
0.64605712890625	-0.00556610107421875	5239.42319277173
0.641632080078125	-0.00557952880859375	5239.5116937715
0.63720703125	-0.00559295654296875	5239.60019477128
0.632781982421875	-0.00560516357421875	5239.68869577106
0.62835693359375	-0.00561737060546875	5239.77719677083
0.623931884765625	-0.0056329345703125	5239.86569777061
0.6195068359375	-0.00564361572265625	5239.95419877039
0.615081787109375	-0.00565338134765625	5240.04269977016
0.61065673828125	-0.00566375732421875	5240.13120076994
0.606231689453125	-0.0056732177734375	5240.21970176972
0.601806640625	-0.00568267822265625	5240.30820276949
0.597381591796875	-0.00569183349609375	5240.39670376927
0.59295654296875	-0.00570037841796875	5240.48520476905
0.588531494140625	-0.00570953369140625	5240.57370576882
0.5841064453125	-0.005716552734375	5240.6622067686
0.579681396484375	-0.00572540283203125	5240.75070776838
0.57525634765625	-0.0057342529296875	5240.83920876815
0.570831298828125	-0.00574310302734375	5240.92770976793
0.56640625	-0.005751953125	5241.01621076771
0.561981201171875	-0.005760498046875	5241.10471176748
0.55755615234375	-0.0057696533203125	5241.19321276726
0.553131103515625	-0.00577850341796875	5241.28171376704
0.5487060546875	-0.005787353515625	5241.37021476681
0.544281005859375	-0.0057952880859375	5241.45871576659
0.53985595703125	-0.00580474853515625	5241.54721676637
0.535430908203125	-0.00581390380859375	5241.63571776614
0.531005859375	-0.00582366943359375	5241.72421876592
0.526580810546875	-0.00583343505859375	5241.81271976569
0.52215576171875	-0.00584381103515625	5241.90122076547
0.517730712890625	-0.0058538818359375	5241.98972176525
0.5133056640625	-0.00586456298828125	5242.07822276503
0.508880615234375	-0.00587554931640625	5242.1667237648
0.50445556640625	-0.00588592529296875	5242.25522476458
0.500030517578125	-0.005897216796875	5242.34372576435
0.49560546875	-0.0059088134765625	5242.43222676413
0.491180419921875	-0.00592071533203125	5242.52072776391
0.48675537109375	-0.00593292236328125	5242.60922876368
0.482330322265625	-0.0059454345703125	5242.69772976346
0.4779052734375	-0.005958251953125	5242.78623076324
0.473480224609375	-0.0059710693359375	5242.87473176301
0.46905517578125	-0.0059844970703125	5242.96323276279
0.464630126953125	-0.0059979248046875	5243.05173376257
0.460205078125	-0.00601226806640625	5243.14023476234
0.455780029296875	-0.006005859375	5243.22873576212
0.45135498046875	-0.0060211181640625	5243.3172367619
0.446929931640625	-0.006036376953125	5243.40573776167
0.4425048828125	-0.0060516357421875	5243.49423876145
0.438079833984375	-0.00606689453125	5243.58273976123
0.43365478515625	-0.0060821533203125	5243.671240761
0.429229736328125	-0.006097412109375	5243.75974176078
0.4248046875	-0.00611572265625	5243.84824276056
0.420379638671875	-0.0061309814453125	5243.93674376033
0.41595458984375	-0.006146240234375	5244.02524476011
0.411529541015625	-0.00616455078125	5244.11374575989
0.4071044921875	-0.006182861328125	5244.20224675966
0.402679443359375	-0.0061981201171875	5244.29074775944
0.39825439453125	-0.0062164306640625	5244.37924875922
0.393829345703125	-0.006231689453125	5244.46774975899
0.389404296875	-0.0062469482421875	5244.55625075877
0.384979248046875	-0.0062652587890625	5244.64475175854
0.38055419921875	-0.006280517578125	5244.73325275832
0.376129150390625	-0.006298828125	5244.8217537581
0.3717041015625	-0.0063140869140625	5244.91025475788
0.367279052734375	-0.0063323974609375	5244.99875575765
0.36285400390625	-0.00634765625	5245.08725675743
0.358428955078125	-0.006365966796875	5245.1757577572
0.35400390625	-0.0063812255859375	5245.26425875698
0.349578857421875	-0.006396484375	5245.35275975676
0.34515380859375	-0.0064117431640625	5245.44126075653
0.340728759765625	-0.006427001953125	5245.52976175631
0.3363037109375	-0.0064422607421875	5245.61826275609
0.331878662109375	-0.00645751953125	5245.70676375586
0.32745361328125	-0.0064697265625	5245.79526475564
0.323028564453125	-0.0064849853515625	5245.88376575542
0.318603515625	-0.0064971923828125	5245.97226675519
0.314178466796875	-0.006512451171875	5246.06076775497
0.30975341796875	-0.0065277099609375	5246.14926875475
0.305328369140625	-0.0065399169921875	5246.23776975452
0.3009033203125	-0.0065521240234375	5246.3262707543
0.296478271484375	-0.0065643310546875	5246.41477175408
0.29205322265625	-0.006573486328125	5246.50327275385
0.287628173828125	-0.006585693359375	5246.59177375363
0.283203125	-0.0065948486328125	5246.68027475341
0.278778076171875	-0.0066070556640625	5246.76877575318
0.27435302734375	-0.0066162109375	5246.85727675296
0.269927978515625	-0.0066253662109375	5246.94577775274
0.2655029296875	-0.006634521484375	5247.03427875251
0.261077880859375	-0.0066436767578125	5247.12277975229
0.25665283203125	-0.00665283203125	5247.21128075207
0.252227783203125	-0.0066619873046875	5247.29978175184
0.247802734375	-0.0066680908203125	5247.38828275162
0.243377685546875	-0.00667724609375	5247.47678375139
0.23895263671875	-0.006683349609375	5247.56528475117
0.234527587890625	-0.0066925048828125	5247.65378575095
0.2301025390625	-0.0066986083984375	5247.74228675072
0.225677490234375	-0.0067047119140625	5247.8307877505
0.22125244140625	-0.0067108154296875	5247.91928875028
0.216827392578125	-0.006719970703125	5248.00778975005
0.21240234375	-0.00672607421875	5248.09629074983
0.207977294921875	-0.006732177734375	5248.18479174961
0.20355224609375	-0.00673828125	5248.27329274938
0.199127197265625	-0.006744384765625	5248.36179374916
0.1947021484375	-0.00675048828125	5248.45029474894
0.190277099609375	-0.006756591796875	5248.53879574871
0.18585205078125	-0.0067657470703125	5248.62729674849
0.181427001953125	-0.0067718505859375	5248.71579774827
0.177001953125	-0.0067779541015625	5248.80429874804
0.172576904296875	-0.0067840576171875	5248.89279974782
0.16815185546875	-0.0067901611328125	5248.9813007476
0.163726806640625	-0.0067962646484375	5249.06980174737
0.1593017578125	-0.0068023681640625	5249.15830274715
0.154876708984375	-0.0068115234375	5249.24680374693
0.15045166015625	-0.006817626953125	5249.3353047467
0.146026611328125	-0.00682373046875	5249.42380574648
0.1416015625	-0.006829833984375	5249.51230674626
0.137176513671875	-0.0068389892578125	5249.60080774603
0.13275146484375	-0.0068450927734375	5249.68930874581
0.128326416015625	-0.0068511962890625	5249.77780974558
0.1239013671875	-0.0068603515625	5249.86631074536
0.119476318359375	-0.0068695068359375	5249.95481174514
0.11505126953125	-0.0068756103515625	5250.04331274492
0.110626220703125	-0.006884765625	5250.13181374469
0.106201171875	-0.006890869140625	5250.22031474447
0.101776123046875	-0.0069000244140625	5250.30881574424
0.09735107421875	-0.0069122314453125	5250.39731674402
0.092926025390625	-0.00692138671875	5250.4858177438
0.0885009765625	-0.0069305419921875	5250.57431874357
0.084075927734375	-0.0069427490234375	5250.66281974335
0.07965087890625	-0.006951904296875	5250.75132074313
0.075225830078125	-0.0069610595703125	5250.8398217429
0.07080078125	-0.0069732666015625	5250.92832274268
0.066375732421875	-0.0069854736328125	5251.01682374246
0.06195068359375	-0.0069976806640625	5251.10532474223
0.057525634765625	-0.0070098876953125	5251.19382574201
0.0531005859375	-0.0070220947265625	5251.28232674179
0.048675537109375	-0.007037353515625	5251.37082774156
0.04425048828125	-0.007049560546875	5251.45932874134
0.039825439453125	-0.0070648193359375	5251.54782974112
0.035400390625	-0.007080078125	5251.63633074089
0.030975341796875	-0.0070953369140625	5251.72483174067
0.02655029296875	-0.007110595703125	5251.81333274045
0.022125244140625	-0.00712890625	5251.90183374022
0.0177001953125	-0.0071441650390625	5251.99033474
0.013275146484375	-0.0071624755859375	5252.07883573978
0.00885009765625	-0.0071807861328125	5252.16733673955
0.004425048828125	-0.0071990966796875	5252.25583773933
0	-0.0072174072265625	5252.34433873911
0.004425048828125	-0.0065185546875	5252.43283973888
0.00885009765625	-0.0058837890625	5252.52134073866
0.013275146484375	-0.0053009033203125	5252.60984173843
0.0177001953125	-0.00475860595703125	5252.69834273821
0.022125244140625	-0.0042523193359375	5252.78684373799
0.02655029296875	-0.0037786865234375	5252.87534473776
0.030975341796875	-0.00333404541015625	5252.96384573754
0.035400390625	-0.0029150390625	5253.05234673732
0.039825439453125	-0.00253021240234375	5253.14084773709
0.04425048828125	-0.0021563720703125	5253.22934873687
0.048675537109375	-0.0018017578125	5253.31784973665
0.0531005859375	-0.0014666748046875	5253.40635073642
0.057525634765625	-0.00114898681640625	5253.4948517362
0.06195068359375	-0.0008477783203125	5253.58335273598
0.066375732421875	-0.00056121826171875	5253.67185373575
0.07080078125	-0.000289459228515625	5253.76035473553
0.075225830078125	-3.06732177734375E-05	5253.84885573531
0.07965087890625	0.000214599609375	5253.93735673508
0.084075927734375	0.00044891357421875	5254.02585773486
0.0885009765625	0.0006719970703125	5254.11435873464
0.092926025390625	0.0008843994140625	5254.20285973441
0.09735107421875	0.0010870361328125	5254.29136073419
0.101776123046875	0.00127960205078125	5254.37986173397
0.106201171875	0.00146331787109375	5254.46836273374
0.110626220703125	0.0016387939453125	5254.55686373352
0.11505126953125	0.00180633544921875	5254.6453647333
0.119476318359375	0.0019647216796875	5254.73386573307
0.1239013671875	0.00211700439453125	5254.82236673285
0.128326416015625	0.0022625732421875	5254.91086773263
0.13275146484375	0.00240142822265625	5254.9993687324
0.137176513671875	0.00253448486328125	5255.08786973218
0.1416015625	0.0026611328125	5255.17637073196
0.146026611328125	0.0027825927734375	5255.26487173173
0.15045166015625	0.00289825439453125	5255.35337273151
0.154876708984375	0.00300933837890625	5255.44187373128
0.1593017578125	0.0031146240234375	5255.53037473106
0.163726806640625	0.0032159423828125	5255.61887573084
0.16815185546875	0.00331298828125	5255.70737673061
0.172576904296875	0.00340606689453125	5255.79587773039
0.177001953125	0.00349456787109375	5255.88437873017
0.181427001953125	0.0035797119140625	5255.97287972994
0.18585205078125	0.003660888671875	5256.06138072972
0.190277099609375	0.0037396240234375	5256.1498817295
0.1947021484375	0.00381500244140625	5256.23838272927
0.199127197265625	0.00388702392578125	5256.32688372905
0.20355224609375	0.003956298828125	5256.41538472883
0.207977294921875	0.00402252197265625	5256.5038857286
0.21240234375	0.00408599853515625	5256.59238672838
0.216827392578125	0.00414794921875	5256.68088772816
0.22125244140625	0.00420684814453125	5256.76938872793
0.225677490234375	0.004263916015625	5256.85788972771
0.2301025390625	0.00431884765625	5256.94639072749
0.234527587890625	0.00437103271484375	5257.03489172726
0.23895263671875	0.00442230224609375	5257.12339272704
0.243377685546875	0.00447174072265625	5257.21189372682
0.247802734375	0.00451934814453125	5257.30039472659
0.252227783203125	0.00456512451171875	5257.38889572637
0.25665283203125	0.00460968017578125	5257.47739672615
0.261077880859375	0.00465301513671875	5257.56589772592
0.2655029296875	0.00469451904296875	5257.6543987257
0.269927978515625	0.00473480224609375	5257.74289972548
0.27435302734375	0.004774169921875	5257.83140072525
0.278778076171875	0.00481201171875	5257.91990172503
0.283203125	0.0048486328125	5258.0084027248
0.287628173828125	0.0048846435546875	5258.09690372458
0.29205322265625	0.0049200439453125	5258.18540472436
0.296478271484375	0.00495361328125	5258.27390572413
0.3009033203125	0.0049871826171875	5258.36240672391
0.305328369140625	0.00501922607421875	5258.45090772369
0.30975341796875	0.00505096435546875	5258.53940872346
0.314178466796875	0.00508453369140625	5258.62790972324
0.318603515625	0.00511383056640625	5258.71641072302
0.323028564453125	0.0051434326171875	5258.80491172279
0.32745361328125	0.005172119140625	5258.89341272257
0.331878662109375	0.0052001953125	5258.98191372235
0.3363037109375	0.005228271484375	5259.07041472212
0.340728759765625	0.00525482177734375	5259.1589157219
0.34515380859375	0.00528106689453125	5259.24741672168
0.349578857421875	0.00530670166015625	5259.33591772145
0.35400390625	0.00533050537109375	5259.42441872123
0.358428955078125	0.005355224609375	5259.51291972101
0.36285400390625	0.0053802490234375	5259.60142072078
0.367279052734375	0.00540618896484375	5259.68992172056
0.3717041015625	0.00543121337890625	5259.77842272034
0.376129150390625	0.005455322265625	5259.86692372011
0.38055419921875	0.0054779052734375	5259.95542471989
0.384979248046875	0.00550079345703125	5260.04392571967
0.389404296875	0.0055224609375	5260.13242671944
0.393829345703125	0.00554290771484375	5260.22092771922
0.39825439453125	0.0055645751953125	5260.309428719
0.402679443359375	0.0055859375	5260.39792971877
0.4071044921875	0.005606689453125	5260.48643071855
0.411529541015625	0.00562774658203125	5260.57493171833
0.41595458984375	0.00564910888671875	5260.6634327181
0.420379638671875	0.00567047119140625	5260.75193371788
0.4248046875	0.00569122314453125	5260.84043471765
0.429229736328125	0.005711669921875	5260.92893571743
0.43365478515625	0.005731201171875	5261.01743671721
0.438079833984375	0.00575103759765625	5261.10593771698
0.4425048828125	0.0057696533203125	5261.19443871676
0.446929931640625	0.00578857421875	5261.28293971654
0.45135498046875	0.0058074951171875	5261.37144071631
0.455780029296875	0.00582550048828125	5261.45994171609
0.460205078125	0.00584320068359375	5261.54844271587
0.464630126953125	0.0058612060546875	5261.63694371564
0.46905517578125	0.00587738037109375	5261.72544471542
0.473480224609375	0.005894775390625	5261.8139457152
0.4779052734375	0.0059112548828125	5261.90244671497
0.482330322265625	0.0059271240234375	5261.99094771475
0.48675537109375	0.00594329833984375	5262.07944871453
0.491180419921875	0.00595916748046875	5262.1679497143
0.49560546875	0.00597442626953125	5262.25645071408
0.500030517578125	0.0059893798828125	5262.34495171386
0.50445556640625	0.006004638671875	5262.43345271363
0.508880615234375	0.0060089111328125	5262.52195371341
0.5133056640625	0.006024169921875	5262.61045471319
0.517730712890625	0.006036376953125	5262.69895571296
0.52215576171875	0.006048583984375	5262.78745671274
0.526580810546875	0.006060791015625	5262.87595771252
0.531005859375	0.006072998046875	5262.96445871229
0.535430908203125	0.006085205078125	5263.05295971207
0.53985595703125	0.006097412109375	5263.14146071184
0.544281005859375	0.0061065673828125	5263.22996171162
0.5487060546875	0.00611572265625	5263.3184627114
0.553131103515625	0.0061279296875	5263.40696371118
0.55755615234375	0.0061370849609375	5263.49546471095
0.561981201171875	0.006146240234375	5263.58396571073
0.56640625	0.0061553955078125	5263.6724667105
0.570831298828125	0.00616455078125	5263.76096771028
0.57525634765625	0.006170654296875	5263.84946871006
0.579681396484375	0.0061798095703125	5263.93796970983
0.5841064453125	0.0061859130859375	5264.02647070961
0.588531494140625	0.0061920166015625	5264.11497170939
0.59295654296875	0.0061981201171875	5264.20347270916
0.597381591796875	0.0062042236328125	5264.29197370894
0.601806640625	0.006207275390625	5264.38047470872
0.606231689453125	0.00621337890625	5264.46897570849
0.61065673828125	0.0062164306640625	5264.55747670827
0.615081787109375	0.0062225341796875	5264.64597770805
0.6195068359375	0.0062255859375	5264.73447870782
0.623931884765625	0.0062286376953125	5264.8229797076
0.62835693359375	0.0062347412109375	5264.91148070738
0.632781982421875	0.00623779296875	5264.99998170715
0.63720703125	0.0062408447265625	5265.08848270693
0.641632080078125	0.0062408447265625	5265.17698370671
0.64605712890625	0.006243896484375	5265.26548470648
0.650482177734375	0.006243896484375	5265.35398570626
0.6549072265625	0.006243896484375	5265.44248670604
0.659332275390625	0.0062469482421875	5265.53098770581
0.66375732421875	0.0062469482421875	5265.61948870559
0.668182373046875	0.0062469482421875	5265.70798970537
0.672607421875	0.0062469482421875	5265.79649070514
0.677032470703125	0.0062469482421875	5265.88499170492
0.68145751953125	0.0062469482421875	5265.97349270469
0.685882568359375	0.00625	5266.06199370447
0.6903076171875	0.00625	5266.15049470425
0.694732666015625	0.00625	5266.23899570403
0.69915771484375	0.00625	5266.3274967038
0.703582763671875	0.00625	5266.41599770358
0.7080078125	0.00625	5266.50449870335
0.712432861328125	0.0062530517578125	5266.59299970313
0.71685791015625	0.0062530517578125	5266.68150070291
0.721282958984375	0.0062530517578125	5266.77000170268
0.7257080078125	0.006256103515625	5266.85850270246
0.730133056640625	0.0062591552734375	5266.94700370224
0.73455810546875	0.0062591552734375	5267.03550470201
0.738983154296875	0.00626220703125	5267.12400570179
0.743408203125	0.0062652587890625	5267.21250670157
0.747833251953125	0.006268310546875	5267.30100770134
0.75225830078125	0.0062713623046875	5267.38950870112
0.756683349609375	0.0062744140625	5267.4780097009
0.7611083984375	0.006280517578125	5267.56651070067
0.765533447265625	0.0062835693359375	5267.65501170045
0.76995849609375	0.0062896728515625	5267.74351270023
0.774383544921875	0.0062957763671875	5267.8320137
0.77880859375	0.0063018798828125	5267.92051469978
0.783233642578125	0.0063079833984375	5268.00901569956
0.78765869140625	0.006317138671875	5268.09751669933
0.792083740234375	0.0063232421875	5268.18601769911
0.7965087890625	0.0063323974609375	5268.27451869889
0.800933837890625	0.006341552734375	5268.36301969866
0.80535888671875	0.006353759765625	5268.45152069844
0.809783935546875	0.0063629150390625	5268.54002169822
0.814208984375	0.0063751220703125	5268.62852269799
0.818634033203125	0.0063873291015625	5268.71702369777
0.82305908203125	0.0063995361328125	5268.80552469754
0.827484130859375	0.006414794921875	5268.89402569732
0.8319091796875	0.0064300537109375	5268.9825266971
0.836334228515625	0.0064453125	5269.07102769687
0.84075927734375	0.006463623046875	5269.15952869665
0.845184326171875	0.00648193359375	5269.24802969643
0.849609375	0.006500244140625	5269.3365306962
0.854034423828125	0.0065185546875	5269.42503169598
0.85845947265625	0.0065399169921875	5269.51353269576
0.862884521484375	0.006561279296875	5269.60203369553
0.8673095703125	0.006585693359375	5269.69053469531
0.871734619140625	0.006610107421875	5269.77903569509
0.87615966796875	0.006634521484375	5269.86753669486
0.880584716796875	0.0066619873046875	5269.95603769464
0.885009765625	0.0066925048828125	5270.04453869442
0.889434814453125	0.006719970703125	5270.13303969419
0.89385986328125	0.0067535400390625	5270.22154069397
0.898284912109375	0.0067840576171875	5270.31004169375
0.9027099609375	0.0068206787109375	5270.39854269352
0.907135009765625	0.006854248046875	5270.4870436933
0.91156005859375	0.0068939208984375	5270.57554469308
0.915985107421875	0.0069305419921875	5270.66404569285
0.92041015625	0.0069732666015625	5270.75254669263
0.924835205078125	0.0070159912109375	5270.84104769241
0.92926025390625	0.0070587158203125	5270.92954869218
0.933685302734375	0.0071014404296875	5271.01804969196
0.9381103515625	0.0071533203125	5271.10655069173
0.942535400390625	0.0072021484375	5271.19505169151
0.94696044921875	0.0072509765625	5271.28355269129
0.951385498046875	0.0073028564453125	5271.37205369107
0.955810546875	0.0073577880859375	5271.46055469084
0.960235595703125	0.00740966796875	5271.54905569062
0.96466064453125	0.0074676513671875	5271.63755669039
0.969085693359375	0.007525634765625	5271.72605769017
0.9735107421875	0.0075836181640625	5271.81455868995
0.977935791015625	0.0076416015625	5271.90305968972
0.98236083984375	0.0077056884765625	5271.9915606895
0.986785888671875	0.007769775390625	5272.08006168928
0.9912109375	0.0078277587890625	5272.16856268905
0.995635986328125	0.007891845703125	5272.25706368883
1.00006103515625	0.007958984375	5272.34556468861
0.995635986328125	0.007293701171875	5272.43406568838
0.9912109375	0.0066925048828125	5272.52256668816
0.986785888671875	0.006134033203125	5272.61106768794
0.98236083984375	0.0056121826171875	5272.69956868771
0.977935791015625	0.0051239013671875	5272.78806968749
0.9735107421875	0.004664306640625	5272.87657068727
0.969085693359375	0.00422607421875	5272.96507168704
0.96466064453125	0.00381011962890625	5273.05357268682
0.960235595703125	0.00341400146484375	5273.1420736866
0.955810546875	0.00303497314453125	5273.23057468637
0.951385498046875	0.00267547607421875	5273.31907568615
0.94696044921875	0.0023284912109375	5273.40757668593
0.942535400390625	0.0019964599609375	5273.4960776857
0.9381103515625	0.00167755126953125	5273.58457868548
0.933685302734375	0.0013690185546875	5273.67307968526
0.92926025390625	0.001075439453125	5273.76158068503
0.924835205078125	0.00079315185546875	5273.85008168481
0.92041015625	0.00052154541015625	5273.93858268458
0.915985107421875	0.00026092529296875	5274.02708368436
0.91156005859375	9.918212890625E-06	5274.11558468414
0.907135009765625	-0.0002315673828125	5274.20408568391
0.9027099609375	-0.000464447021484375	5274.29258668369
0.898284912109375	-0.0006878662109375	5274.38108768347
0.89385986328125	-0.00090362548828125	5274.46958868324
0.889434814453125	-0.00111053466796875	5274.55808968302
0.885009765625	-0.00131072998046875	5274.6465906828
0.880584716796875	-0.001502685546875	5274.73509168257
0.87615966796875	-0.00168792724609375	5274.82359268235
0.871734619140625	-0.001866455078125	5274.91209368213
0.8673095703125	-0.00203765869140625	5275.0005946819
0.862884521484375	-0.00220245361328125	5275.08909568168
0.85845947265625	-0.0023602294921875	5275.17759668146
0.854034423828125	-0.00251312255859375	5275.26609768123
0.849609375	-0.002659912109375	5275.35459868101
0.845184326171875	-0.00280059814453125	5275.44309968079
0.84075927734375	-0.00293670654296875	5275.53160068056
0.836334228515625	-0.00306671142578125	5275.62010168034
0.8319091796875	-0.00319183349609375	5275.70860268012
0.827484130859375	-0.003311767578125	5275.79710367989
0.82305908203125	-0.00342742919921875	5275.88560467967
0.818634033203125	-0.00353759765625	5275.97410567945
0.814208984375	-0.003643798828125	5276.06260667922
0.809783935546875	-0.0037451171875	5276.151107679
0.80535888671875	-0.00384246826171875	5276.23960867878
0.800933837890625	-0.00393585205078125	5276.32810967855
0.7965087890625	-0.004024658203125	5276.41661067833
0.792083740234375	-0.004110107421875	5276.50511167811
0.78765869140625	-0.0041912841796875	5276.59361267788
0.783233642578125	-0.0042694091796875	5276.68211367766
0.77880859375	-0.00434326171875	5276.77061467743
0.774383544921875	-0.00441436767578125	5276.85911567721
0.76995849609375	-0.00448211669921875	5276.94761667699
0.765533447265625	-0.00454681396484375	5277.03611767676
0.7611083984375	-0.004608154296875	5277.12461867654
0.756683349609375	-0.00466705322265625	5277.21311967632
0.75225830078125	-0.004722900390625	5277.30162067609
0.747833251953125	-0.00477630615234375	5277.39012167587
0.743408203125	-0.00482696533203125	5277.47862267565
0.738983154296875	-0.004873046875	5277.56712367542
0.73455810546875	-0.00491912841796875	5277.6556246752
0.730133056640625	-0.004962158203125	5277.74412567498
0.7257080078125	-0.005003662109375	5277.83262667475
0.721282958984375	-0.00504302978515625	5277.92112767453
0.71685791015625	-0.00508026123046875	5278.00962867431
0.712432861328125	-0.00511505126953125	5278.09812967408
0.7080078125	-0.00514862060546875	5278.18663067386
0.703582763671875	-0.00518035888671875	5278.27513167364
0.69915771484375	-0.00520904541015625	5278.36363267341
0.694732666015625	-0.005238037109375	5278.45213367319
0.6903076171875	-0.00526519775390625	5278.54063467297
0.685882568359375	-0.00529083251953125	5278.62913567274
0.68145751953125	-0.00531494140625	5278.71763667252
0.677032470703125	-0.0053375244140625	5278.8061376723
0.672607421875	-0.00535858154296875	5278.89463867207
0.668182373046875	-0.0053802490234375	5278.98313967185
0.66375732421875	-0.005400390625	5279.07164067163
0.659332275390625	-0.00541961669921875	5279.1601416714
0.6549072265625	-0.0054376220703125	5279.24864267118
0.650482177734375	-0.00545440673828125	5279.33714367095
0.64605712890625	-0.005469970703125	5279.42564467073
0.641632080078125	-0.0054852294921875	5279.51414567051
0.63720703125	-0.00549957275390625	5279.60264667028
0.632781982421875	-0.00551361083984375	5279.69114767006
0.62835693359375	-0.00552734375	5279.77964866984
0.623931884765625	-0.00554443359375	5279.86814966961
0.6195068359375	-0.00555633544921875	5279.95665066939
0.615081787109375	-0.00556854248046875	5280.04515166917
0.61065673828125	-0.005579833984375	5280.13365266894
0.606231689453125	-0.00559112548828125	5280.22215366872
0.601806640625	-0.0056024169921875	5280.3106546685
0.597381591796875	-0.0056134033203125	5280.39915566827
0.59295654296875	-0.005623779296875	5280.48765666805
0.588531494140625	-0.005634765625	5280.57615766783
0.5841064453125	-0.00564300537109375	5280.6646586676
0.579681396484375	-0.0056536865234375	5280.75315966738
0.57525634765625	-0.00566375732421875	5280.84166066716
0.570831298828125	-0.005673828125	5280.93016166693
0.56640625	-0.00568389892578125	5281.01866266671
0.561981201171875	-0.0056939697265625	5281.10716366649
0.55755615234375	-0.00570404052734375	5281.19566466626
0.553131103515625	-0.005714111328125	5281.28416566604
0.5487060546875	-0.00572418212890625	5281.37266666582
0.544281005859375	-0.005733642578125	5281.46116766559
0.53985595703125	-0.0057440185546875	5281.54966866537
0.535430908203125	-0.0057550048828125	5281.63816966515
0.531005859375	-0.00576568603515625	5281.72667066492
0.526580810546875	-0.0057769775390625	5281.8151716647
0.52215576171875	-0.0057879638671875	5281.90367266448
0.517730712890625	-0.0057989501953125	5281.99217366425
0.5133056640625	-0.0058099365234375	5282.08067466403
0.508880615234375	-0.0058221435546875	5282.1691756638
0.50445556640625	-0.005833740234375	5282.25767666358
0.500030517578125	-0.00584625244140625	5282.34617766336
0.49560546875	-0.00585906982421875	5282.43467866313
0.491180419921875	-0.00587127685546875	5282.52317966291
0.48675537109375	-0.0058843994140625	5282.61168066269
0.482330322265625	-0.00589813232421875	5282.70018166246
0.4779052734375	-0.0059112548828125	5282.78868266224
0.473480224609375	-0.00592559814453125	5282.87718366202
0.46905517578125	-0.00593994140625	5282.96568466179
0.464630126953125	-0.00595306396484375	5283.05418566157
0.460205078125	-0.00596832275390625	5283.14268666135
0.455780029296875	-0.0059832763671875	5283.23118766112
0.45135498046875	-0.00599853515625	5283.3196886609
0.446929931640625	-0.00601409912109375	5283.40818966068
0.4425048828125	-0.0060089111328125	5283.49669066045
0.438079833984375	-0.006024169921875	5283.58519166023
0.43365478515625	-0.00604248046875	5283.67369266001
0.429229736328125	-0.0060577392578125	5283.76219365978
0.4248046875	-0.0060760498046875	5283.85069465956
0.420379638671875	-0.0060943603515625	5283.93919565934
0.41595458984375	-0.006109619140625	5284.02769665911
0.411529541015625	-0.0061279296875	5284.11619765889
0.4071044921875	-0.006146240234375	5284.20469865867
0.402679443359375	-0.0061614990234375	5284.29319965844
0.39825439453125	-0.0061798095703125	5284.38170065822
0.393829345703125	-0.0061981201171875	5284.47020165799
0.389404296875	-0.00621337890625	5284.55870265777
0.384979248046875	-0.006231689453125	5284.64720365755
0.38055419921875	-0.0062469482421875	5284.73570465733
0.376129150390625	-0.0062652587890625	5284.8242056571
0.3717041015625	-0.006280517578125	5284.91270665688
0.367279052734375	-0.006298828125	5285.00120765665
0.36285400390625	-0.0063140869140625	5285.08970865643
0.358428955078125	-0.0063323974609375	5285.17820965621
0.35400390625	-0.00634765625	5285.26671065598
0.349578857421875	-0.0063629150390625	5285.35521165576
0.34515380859375	-0.006378173828125	5285.44371265554
0.340728759765625	-0.0063934326171875	5285.53221365531
0.3363037109375	-0.00640869140625	5285.62071465509
0.331878662109375	-0.0064239501953125	5285.70921565487
0.32745361328125	-0.006439208984375	5285.79771665464
0.323028564453125	-0.006451416015625	5285.88621765442
0.318603515625	-0.0064666748046875	5285.9747186542
0.314178466796875	-0.0064788818359375	5286.06321965397
0.30975341796875	-0.006494140625	5286.15172065375
0.305328369140625	-0.00650634765625	5286.24022165353
0.3009033203125	-0.0065185546875	5286.3287226533
0.296478271484375	-0.00653076171875	5286.41722365308
0.29205322265625	-0.0065399169921875	5286.50572465286
0.287628173828125	-0.0065521240234375	5286.59422565263
0.283203125	-0.006561279296875	5286.68272665241
0.278778076171875	-0.006573486328125	5286.77122765219
0.27435302734375	-0.0065826416015625	5286.85972865196
0.269927978515625	-0.006591796875	5286.94822965174
0.2655029296875	-0.0066009521484375	5287.03673065152
0.261077880859375	-0.006610107421875	5287.12523165129
0.25665283203125	-0.0066162109375	5287.21373265107
0.252227783203125	-0.0066253662109375	5287.30223365084
0.247802734375	-0.006634521484375	5287.39073465062
0.243377685546875	-0.006640625	5287.4792356504
0.23895263671875	-0.0066497802734375	5287.56773665017
0.234527587890625	-0.0066558837890625	5287.65623764995
0.2301025390625	-0.0066619873046875	5287.74473864973
0.225677490234375	-0.0066680908203125	5287.8332396495
0.22125244140625	-0.0066741943359375	5287.92174064928
0.216827392578125	-0.006683349609375	5288.01024164906
0.21240234375	-0.006689453125	5288.09874264883
0.207977294921875	-0.006695556640625	5288.18724364861
0.20355224609375	-0.00670166015625	5288.27574464839
0.199127197265625	-0.006707763671875	5288.36424564816
0.1947021484375	-0.0067138671875	5288.45274664794
0.190277099609375	-0.0067169189453125	5288.54124764772
0.18585205078125	-0.0067230224609375	5288.62974864749
0.181427001953125	-0.0067291259765625	5288.71824964727
0.177001953125	-0.0067352294921875	5288.80675064705
0.172576904296875	-0.0067413330078125	5288.89525164682
0.16815185546875	-0.0067474365234375	5288.9837526466
0.163726806640625	-0.0067535400390625	5289.07225364638
0.1593017578125	-0.0067596435546875	5289.16075464615
0.154876708984375	-0.0067626953125	5289.24925564593
0.15045166015625	-0.006768798828125	5289.33775664571
0.146026611328125	-0.00677490234375	5289.42625764548
0.1416015625	-0.006781005859375	5289.51475864526
0.137176513671875	-0.006787109375	5289.60325964504
0.13275146484375	-0.006793212890625	5289.69176064481
0.128326416015625	-0.00679931640625	5289.78026164459
0.1239013671875	-0.006805419921875	5289.86876264437
0.119476318359375	-0.0068115234375	5289.95726364414
0.11505126953125	-0.006817626953125	5290.04576464392
0.110626220703125	-0.00682373046875	5290.13426564369
0.106201171875	-0.0068328857421875	5290.22276664347
0.101776123046875	-0.0068389892578125	5290.31126764325
0.09735107421875	-0.00684814453125	5290.39976864302
0.092926025390625	-0.006854248046875	5290.4882696428
0.0885009765625	-0.0068634033203125	5290.57677064258
0.084075927734375	-0.00687255859375	5290.66527164235
0.07965087890625	-0.0068817138671875	5290.75377264213
0.075225830078125	-0.006890869140625	5290.84227364191
0.07080078125	-0.0069000244140625	5290.93077464168
0.066375732421875	-0.0069091796875	5291.01927564146
0.06195068359375	-0.00692138671875	5291.10777664124
0.057525634765625	-0.00693359375	5291.19627764101
0.0531005859375	-0.00694580078125	5291.28477864079
0.048675537109375	-0.0069549560546875	5291.37327964057
0.04425048828125	-0.00697021484375	5291.46178064034
0.039825439453125	-0.006982421875	5291.55028164012
0.035400390625	-0.00699462890625	5291.6387826399
0.030975341796875	-0.0070098876953125	5291.72728363967
0.02655029296875	-0.007025146484375	5291.81578463945
0.022125244140625	-0.0070404052734375	5291.90428563923
0.0177001953125	-0.0070556640625	5291.992786639
0.013275146484375	-0.0070709228515625	5292.08128763878
0.00885009765625	-0.0070892333984375	5292.16978863856
0.004425048828125	-0.0071075439453125	5292.25828963833
0	-0.0071258544921875	5292.34679063811
0.004425048828125	-0.006427001953125	5292.43529163789
0.00885009765625	-0.005792236328125	5292.52379263766
0.013275146484375	-0.0052093505859375	5292.61229363744
0.0177001953125	-0.00467010498046875	5292.70079463722
0.022125244140625	-0.00416473388671875	5292.78929563699
0.02655029296875	-0.00369232177734375	5292.87779663677
0.030975341796875	-0.0032489013671875	5292.96629763654
0.035400390625	-0.0028314208984375	5293.05479863632
0.039825439453125	-0.00244781494140625	5293.1432996361
0.04425048828125	-0.0020751953125	5293.23180063587
0.048675537109375	-0.00172271728515625	5293.32030163565
0.0531005859375	-0.00138946533203125	5293.40880263543
0.057525634765625	-0.001072998046875	5293.4973036352
0.06195068359375	-0.00077362060546875	5293.58580463498
0.066375732421875	-0.00048858642578125	5293.67430563476
0.07080078125	-0.000219268798828125	5293.76280663453
0.075225830078125	3.778076171875E-05	5293.85130763431
0.07965087890625	0.00028131103515625	5293.93980863409
0.084075927734375	0.000513916015625	5294.02830963386
0.0885009765625	0.00073516845703125	5294.11681063364
0.092926025390625	0.00094573974609375	5294.20531163342
0.09735107421875	0.001146240234375	5294.29381263319
0.101776123046875	0.001337890625	5294.38231363297
0.106201171875	0.001519775390625	5294.47081463275
0.110626220703125	0.001693115234375	5294.55931563252
0.11505126953125	0.00185943603515625	5294.6478166323
0.119476318359375	0.0020159912109375	5294.73631763208
0.1239013671875	0.00216705322265625	5294.82481863185
0.128326416015625	0.00231048583984375	5294.91331963163
0.13275146484375	0.0024481201171875	5295.00182063141
0.137176513671875	0.00257965087890625	5295.09032163118
0.1416015625	0.002705078125	5295.17882263096
0.146026611328125	0.00282501220703125	5295.26732363074
0.15045166015625	0.00293975830078125	5295.35582463051
0.154876708984375	0.00304901123046875	5295.44432563029
0.1593017578125	0.00315338134765625	5295.53282663006
0.163726806640625	0.00325347900390625	5295.62132762984
0.16815185546875	0.0033489990234375	5295.70982862962
0.172576904296875	0.003441162109375	5295.79832962939
0.177001953125	0.00352813720703125	5295.88683062917
0.181427001953125	0.003612060546875	5295.97533162895
0.18585205078125	0.00369293212890625	5296.06383262872
0.190277099609375	0.00377044677734375	5296.1523336285
0.1947021484375	0.00384490966796875	5296.24083462828
0.199127197265625	0.00391571044921875	5296.32933562805
0.20355224609375	0.00398406982421875	5296.41783662783
0.207977294921875	0.0040496826171875	5296.50633762761
0.21240234375	0.00411285400390625	5296.59483862738
0.216827392578125	0.004173583984375	5296.68333962716
0.22125244140625	0.004232177734375	5296.77184062694
0.225677490234375	0.00428802490234375	5296.86034162671
0.2301025390625	0.00434234619140625	5296.94884262649
0.234527587890625	0.004393310546875	5297.03734362627
0.23895263671875	0.00444427490234375	5297.12584462604
0.243377685546875	0.0044927978515625	5297.21434562582
0.247802734375	0.00453948974609375	5297.3028466256
0.252227783203125	0.00458465576171875	5297.39134762537
0.25665283203125	0.00462890625	5297.47984862515
0.261077880859375	0.00467132568359375	5297.56834962493
0.2655029296875	0.0047125244140625	5297.6568506247
0.269927978515625	0.004752197265625	5297.74535162448
0.27435302734375	0.004791259765625	5297.83385262426
0.278778076171875	0.0048284912109375	5297.92235362403
0.283203125	0.004864501953125	5298.01085462381
0.287628173828125	0.0049005126953125	5298.09935562359
0.29205322265625	0.0049346923828125	5298.18785662336
0.296478271484375	0.00496826171875	5298.27635762314
0.3009033203125	0.00500152587890625	5298.36485862291
0.305328369140625	0.00503326416015625	5298.45335962269
0.30975341796875	0.00506439208984375	5298.54186062247
0.314178466796875	0.0050970458984375	5298.63036162224
0.318603515625	0.005126953125	5298.71886262202
0.323028564453125	0.00515655517578125	5298.8073636218
0.32745361328125	0.005184326171875	5298.89586462157
0.331878662109375	0.00521209716796875	5298.98436562135
0.3363037109375	0.0052392578125	5299.07286662113
0.340728759765625	0.0052655029296875	5299.1613676209
0.34515380859375	0.00529144287109375	5299.24986862068
0.349578857421875	0.00531707763671875	5299.33836962046
0.35400390625	0.005341796875	5299.42687062023
0.358428955078125	0.00536834716796875	5299.51537162001
0.36285400390625	0.0053936767578125	5299.60387261979
0.367279052734375	0.00541717529296875	5299.69237361956
0.3717041015625	0.00544036865234375	5299.78087461934
0.376129150390625	0.00546295166015625	5299.86937561912
0.38055419921875	0.00548553466796875	5299.95787661889
0.384979248046875	0.0055072021484375	5300.04637761867
0.389404296875	0.00552886962890625	5300.13487861845
0.393829345703125	0.00554901123046875	5300.22337961822
0.39825439453125	0.0055712890625	5300.311880618
0.402679443359375	0.00559326171875	5300.40038161778
0.4071044921875	0.00561492919921875	5300.48888261755
0.411529541015625	0.00563629150390625	5300.57738361733
0.41595458984375	0.00565673828125	5300.6658846171
0.420379638671875	0.0056768798828125	5300.75438561688
0.4248046875	0.00569732666015625	5300.84288661666
0.429229736328125	0.0057171630859375	5300.93138761644
0.43365478515625	0.0057366943359375	5301.01988861621
0.438079833984375	0.0057562255859375	5301.10838961599
0.4425048828125	0.0057745361328125	5301.19689061576
0.446929931640625	0.00579315185546875	5301.28539161554
0.45135498046875	0.005811767578125	5301.37389261532
0.455780029296875	0.00582916259765625	5301.46239361509
0.460205078125	0.00584747314453125	5301.55089461487
0.464630126953125	0.0058648681640625	5301.63939561465
0.46905517578125	0.00588134765625	5301.72789661442
0.473480224609375	0.0058978271484375	5301.8163976142
0.4779052734375	0.00591400146484375	5301.90489861398
0.482330322265625	0.00593017578125	5301.99339961375
0.48675537109375	0.00594573974609375	5302.08190061353
0.491180419921875	0.0059613037109375	5302.17040161331
0.49560546875	0.0059765625	5302.25890261308
0.500030517578125	0.00599151611328125	5302.34740361286
0.50445556640625	0.00600616455078125	5302.43590461264
0.508880615234375	0.006011962890625	5302.52440561241
0.5133056640625	0.006024169921875	5302.61290661219
0.517730712890625	0.006036376953125	5302.70140761197
0.52215576171875	0.006048583984375	5302.78990861174
0.526580810546875	0.0060638427734375	5302.87840961152
0.531005859375	0.006072998046875	5302.9669106113
0.535430908203125	0.006085205078125	5303.05541161107
0.53985595703125	0.006097412109375	5303.14391261085
0.544281005859375	0.0061065673828125	5303.23241361063
0.5487060546875	0.00611572265625	5303.3209146104
0.553131103515625	0.0061279296875	5303.40941561018
0.55755615234375	0.0061370849609375	5303.49791660995
0.561981201171875	0.006146240234375	5303.58641760973
0.56640625	0.00615234375	5303.67491860951
0.570831298828125	0.0061614990234375	5303.76341960928
0.57525634765625	0.006170654296875	5303.85192060906
0.579681396484375	0.0061767578125	5303.94042160884
0.5841064453125	0.0061859130859375	5304.02892260861
0.588531494140625	0.00618896484375	5304.11742360839
0.59295654296875	0.006195068359375	5304.20592460817
0.597381591796875	0.006201171875	5304.29442560794
0.601806640625	0.006207275390625	5304.38292660772
0.606231689453125	0.0062103271484375	5304.4714276075
0.61065673828125	0.0062164306640625	5304.55992860727
0.615081787109375	0.006219482421875	5304.64842960705
0.6195068359375	0.0062225341796875	5304.73693060683
0.623931884765625	0.0062255859375	5304.8254316066
0.62835693359375	0.006231689453125	5304.91393260638
0.632781982421875	0.0062347412109375	5305.00243360616
0.63720703125	0.0062347412109375	5305.09093460593
0.641632080078125	0.00623779296875	5305.17943560571
0.64605712890625	0.00623779296875	5305.26793660549
0.650482177734375	0.0062408447265625	5305.35643760526
0.6549072265625	0.0062408447265625	5305.44493860504
0.659332275390625	0.0062408447265625	5305.53343960482
0.66375732421875	0.0062408447265625	5305.62194060459
0.668182373046875	0.0062408447265625	5305.71044160437
0.672607421875	0.0062408447265625	5305.79894260415
0.677032470703125	0.0062408447265625	5305.88744360392
0.68145751953125	0.006243896484375	5305.9759446037
0.685882568359375	0.006243896484375	5306.06444560348
0.6903076171875	0.006243896484375	5306.15294660325
0.694732666015625	0.006243896484375	5306.24144760303
0.69915771484375	0.006243896484375	5306.3299486028
0.703582763671875	0.006243896484375	5306.41844960258
0.7080078125	0.006243896484375	5306.50695060236
0.712432861328125	0.006243896484375	5306.59545160213
0.71685791015625	0.0062469482421875	5306.68395260191
0.721282958984375	0.0062469482421875	5306.77245360169
0.7257080078125	0.00625	5306.86095460146
0.730133056640625	0.00625	5306.94945560124
0.73455810546875	0.0062530517578125	5307.03795660102
0.738983154296875	0.006256103515625	5307.12645760079
0.743408203125	0.006256103515625	5307.21495860057
0.747833251953125	0.0062591552734375	5307.30345960035
0.75225830078125	0.00626220703125	5307.39196060012
0.756683349609375	0.0062652587890625	5307.4804615999
0.7611083984375	0.0062713623046875	5307.56896259968
0.765533447265625	0.0062774658203125	5307.65746359945
0.76995849609375	0.006280517578125	5307.74596459923
0.774383544921875	0.00628662109375	5307.83446559901
0.77880859375	0.006292724609375	5307.92296659878
0.783233642578125	0.006298828125	5308.01146759856
0.78765869140625	0.0063079833984375	5308.09996859834
0.792083740234375	0.0063140869140625	5308.18846959811
0.7965087890625	0.0063232421875	5308.27697059789
0.800933837890625	0.0063323974609375	5308.36547159767
0.80535888671875	0.0063446044921875	5308.45397259744
0.809783935546875	0.006353759765625	5308.54247359722
0.814208984375	0.006365966796875	5308.630974597
0.818634033203125	0.006378173828125	5308.71947559677
0.82305908203125	0.006390380859375	5308.80797659655
0.827484130859375	0.0064056396484375	5308.89647759632
0.8319091796875	0.0064208984375	5308.9849785961
0.836334228515625	0.0064361572265625	5309.07347959588
0.84075927734375	0.006451416015625	5309.16198059565
0.845184326171875	0.0064697265625	5309.25048159543
0.849609375	0.006488037109375	5309.33898259521
0.854034423828125	0.0065093994140625	5309.42748359498
0.85845947265625	0.00653076171875	5309.51598459476
0.862884521484375	0.0065521240234375	5309.60448559454
0.8673095703125	0.006573486328125	5309.69298659431
0.871734619140625	0.006597900390625	5309.78148759409
0.87615966796875	0.0066253662109375	5309.86998859387
0.880584716796875	0.00665283203125	5309.95848959364
0.885009765625	0.0066802978515625	5310.04699059342
0.889434814453125	0.0067108154296875	5310.1354915932
0.89385986328125	0.0067413330078125	5310.22399259297
0.898284912109375	0.00677490234375	5310.31249359275
0.9027099609375	0.0068084716796875	5310.40099459253
0.907135009765625	0.0068450927734375	5310.4894955923
0.91156005859375	0.0068817138671875	5310.57799659208
0.915985107421875	0.00692138671875	5310.66649759186
0.92041015625	0.0069610595703125	5310.75499859163
0.924835205078125	0.0070037841796875	5310.84349959141
0.92926025390625	0.0070465087890625	5310.93200059119
0.933685302734375	0.00709228515625	5311.02050159096
0.9381103515625	0.00714111328125	5311.10900259074
0.942535400390625	0.00718994140625	5311.19750359052
0.94696044921875	0.00723876953125	5311.28600459029
0.951385498046875	0.0072906494140625	5311.37450559007
0.955810546875	0.0073455810546875	5311.46300658985
0.960235595703125	0.0074005126953125	5311.55150758962
0.96466064453125	0.0074554443359375	5311.6400085894
0.969085693359375	0.007513427734375	5311.72850958917
0.9735107421875	0.007574462890625	5311.81701058895
0.977935791015625	0.0076324462890625	5311.90551158873
0.98236083984375	0.0076934814453125	5311.9940125885
0.986785888671875	0.007757568359375	5312.08251358828
0.9912109375	0.007818603515625	5312.17101458806
0.995635986328125	0.0078826904296875	5312.25951558783
1.00006103515625	0.00794677734375	5312.34801658761
0.995635986328125	0.0072845458984375	5312.43651758739
0.9912109375	0.0066802978515625	5312.52501858716
0.986785888671875	0.0061248779296875	5312.61351958694
0.98236083984375	0.00560302734375	5312.70202058672
0.977935791015625	0.00511474609375	5312.79052158649
0.9735107421875	0.0046563720703125	5312.87902258627
0.969085693359375	0.00421875	5312.96752358605
0.96466064453125	0.00380340576171875	5313.05602458582
0.960235595703125	0.0034075927734375	5313.1445255856
0.955810546875	0.00302947998046875	5313.23302658538
0.951385498046875	0.00267059326171875	5313.32152758515
0.94696044921875	0.00232421875	5313.41002858493
0.942535400390625	0.0019927978515625	5313.49852958471
0.9381103515625	0.00167449951171875	5313.58703058448
0.933685302734375	0.0013665771484375	5313.67553158426
0.92926025390625	0.00107391357421875	5313.76403258404
0.924835205078125	0.000792236328125	5313.85253358381
0.92041015625	0.00052093505859375	5313.94103458359
0.915985107421875	0.00026068115234375	5314.02953558337
0.91156005859375	1.03759765625E-05	5314.11803658314
0.907135009765625	-0.00023065185546875	5314.20653758292
0.9027099609375	-0.000462677001953125	5314.2950385827
0.898284912109375	-0.00068572998046875	5314.38353958247
0.89385986328125	-0.00090057373046875	5314.47204058225
0.889434814453125	-0.00110748291015625	5314.56054158202
0.885009765625	-0.0013067626953125	5314.6490425818
0.880584716796875	-0.0014984130859375	5314.73754358158
0.87615966796875	-0.00168304443359375	5314.82604458135
0.871734619140625	-0.00186065673828125	5314.91454558113
0.8673095703125	-0.00203125	5315.00304658091
0.862884521484375	-0.00219573974609375	5315.09154758068
0.85845947265625	-0.0023529052734375	5315.18004858046
0.854034423828125	-0.00250518798828125	5315.26854958024
0.849609375	-0.00265167236328125	5315.35705058001
0.845184326171875	-0.0027923583984375	5315.44555157979
0.84075927734375	-0.0029278564453125	5315.53405257957
0.836334228515625	-0.0030572509765625	5315.62255357934
0.8319091796875	-0.00318206787109375	5315.71105457912
0.827484130859375	-0.00330108642578125	5315.7995555789
0.82305908203125	-0.00341644287109375	5315.88805657867
0.818634033203125	-0.00352630615234375	5315.97655757845
0.814208984375	-0.003631591796875	5316.06505857823
0.809783935546875	-0.00373291015625	5316.153559578
0.80535888671875	-0.0038299560546875	5316.24206057778
0.800933837890625	-0.00392303466796875	5316.33056157756
0.7965087890625	-0.00401153564453125	5316.41906257733
0.792083740234375	-0.00409637451171875	5316.50756357711
0.78765869140625	-0.00417755126953125	5316.59606457689
0.783233642578125	-0.00425445556640625	5316.68456557666
0.77880859375	-0.00432861328125	5316.77306657644
0.774383544921875	-0.0043994140625	5316.86156757621
0.76995849609375	-0.00446685791015625	5316.95006857599
0.765533447265625	-0.00453094482421875	5317.03856957577
0.7611083984375	-0.00459259033203125	5317.12707057555
0.756683349609375	-0.00465118408203125	5317.21557157532
0.75225830078125	-0.00470672607421875	5317.3040725751
0.747833251953125	-0.004759521484375	5317.39257357487
0.743408203125	-0.00480987548828125	5317.48107457465
0.738983154296875	-0.00485595703125	5317.56957557443
0.73455810546875	-0.00490142822265625	5317.6580765742
0.730133056640625	-0.00494476318359375	5317.74657757398
0.7257080078125	-0.00498626708984375	5317.83507857376
0.721282958984375	-0.0050250244140625	5317.92357957353
0.71685791015625	-0.005062255859375	5318.01208057331
0.712432861328125	-0.00509735107421875	5318.10058157309
0.7080078125	-0.00513031005859375	5318.18908257286
0.703582763671875	-0.005162353515625	5318.27758357264
0.69915771484375	-0.00519134521484375	5318.36608457242
0.694732666015625	-0.0052197265625	5318.45458557219
0.6903076171875	-0.0052471923828125	5318.54308657197
0.685882568359375	-0.0052728271484375	5318.63158757175
0.68145751953125	-0.005296630859375	5318.72008857152
0.677032470703125	-0.00531982421875	5318.8085895713
0.672607421875	-0.0053411865234375	5318.89709057108
0.668182373046875	-0.0053619384765625	5318.98559157085
0.66375732421875	-0.00538116455078125	5319.07409257063
0.659332275390625	-0.00540069580078125	5319.16259357041
0.6549072265625	-0.00541900634765625	5319.25109457018
0.650482177734375	-0.00543609619140625	5319.33959556996
0.64605712890625	-0.00545257568359375	5319.42809656974
0.641632080078125	-0.00546783447265625	5319.51659756951
0.63720703125	-0.00548309326171875	5319.60509856929
0.632781982421875	-0.005496826171875	5319.69359956906
0.62835693359375	-0.00551055908203125	5319.78210056884
0.623931884765625	-0.005528564453125	5319.87060156862
0.6195068359375	-0.005540771484375	5319.95910256839
0.615081787109375	-0.005552978515625	5320.04760356817
0.61065673828125	-0.00556488037109375	5320.13610456795
0.606231689453125	-0.00557586669921875	5320.22460556772
0.601806640625	-0.005587158203125	5320.3131065675
0.597381591796875	-0.00559844970703125	5320.40160756728
0.59295654296875	-0.00560882568359375	5320.49010856705
0.588531494140625	-0.0056201171875	5320.57860956683
0.5841064453125	-0.00562957763671875	5320.66711056661
0.579681396484375	-0.0056396484375	5320.75561156638
0.57525634765625	-0.00565032958984375	5320.84411256616
0.570831298828125	-0.00566070556640625	5320.93261356594
0.56640625	-0.00567108154296875	5321.02111456571
0.561981201171875	-0.00568115234375	5321.10961556549
0.55755615234375	-0.0056915283203125	5321.19811656527
0.553131103515625	-0.00570159912109375	5321.28661756504
0.5487060546875	-0.0057122802734375	5321.37511856482
0.544281005859375	-0.00572174072265625	5321.4636195646
0.53985595703125	-0.005732421875	5321.55212056437
0.535430908203125	-0.00574310302734375	5321.64062156415
0.531005859375	-0.00575439453125	5321.72912256393
0.526580810546875	-0.00576507568359375	5321.8176235637
0.52215576171875	-0.0057769775390625	5321.90612456348
0.517730712890625	-0.00578826904296875	5321.99462556325
0.5133056640625	-0.005799560546875	5322.08312656303
0.508880615234375	-0.00581146240234375	5322.17162756281
0.50445556640625	-0.0058233642578125	5322.26012856259
0.500030517578125	-0.0058355712890625	5322.34862956236
0.49560546875	-0.00584869384765625	5322.43713056214
0.491180419921875	-0.0058612060546875	5322.52563156191
0.48675537109375	-0.0058746337890625	5322.61413256169
0.482330322265625	-0.00588775634765625	5322.70263356147
0.4779052734375	-0.00590179443359375	5322.79113456124
0.473480224609375	-0.00591552734375	5322.87963556102
0.46905517578125	-0.00593017578125	5322.9681365608
0.464630126953125	-0.00594390869140625	5323.05663756057
0.460205078125	-0.0059588623046875	5323.14513856035
0.455780029296875	-0.00597442626953125	5323.23363956013
0.45135498046875	-0.00598968505859375	5323.3221405599
0.446929931640625	-0.00600555419921875	5323.41064155968
0.4425048828125	-0.005999755859375	5323.49914255946
0.438079833984375	-0.00601806640625	5323.58764355923
0.43365478515625	-0.0060333251953125	5323.67614455901
0.429229736328125	-0.006048583984375	5323.76464555879
0.4248046875	-0.00606689453125	5323.85314655856
0.420379638671875	-0.006085205078125	5323.94164755834
0.41595458984375	-0.0061004638671875	5324.03014855812
0.411529541015625	-0.0061187744140625	5324.11864955789
0.4071044921875	-0.0061370849609375	5324.20715055767
0.402679443359375	-0.0061553955078125	5324.29565155745
0.39825439453125	-0.006170654296875	5324.38415255722
0.393829345703125	-0.00618896484375	5324.472653557
0.389404296875	-0.006207275390625	5324.56115455678
0.384979248046875	-0.0062225341796875	5324.64965555655
0.38055419921875	-0.0062408447265625	5324.73815655633
0.376129150390625	-0.006256103515625	5324.8266575561
0.3717041015625	-0.0062744140625	5324.91515855588
0.367279052734375	-0.006292724609375	5325.00365955566
0.36285400390625	-0.0063079833984375	5325.09216055543
0.358428955078125	-0.0063232421875	5325.18066155521
0.35400390625	-0.006341552734375	5325.26916255499
0.349578857421875	-0.006353759765625	5325.35766355476
0.34515380859375	-0.0063720703125	5325.44616455454
0.340728759765625	-0.0063873291015625	5325.53466555432
0.3363037109375	-0.006402587890625	5325.62316655409
0.331878662109375	-0.0064178466796875	5325.71166755387
0.32745361328125	-0.0064300537109375	5325.80016855365
0.323028564453125	-0.0064453125	5325.88866955342
0.318603515625	-0.00645751953125	5325.9771705532
0.314178466796875	-0.0064727783203125	5326.06567155298
0.30975341796875	-0.006488037109375	5326.15417255275
0.305328369140625	-0.006500244140625	5326.24267355253
0.3009033203125	-0.006512451171875	5326.33117455231
0.296478271484375	-0.0065216064453125	5326.41967555208
0.29205322265625	-0.0065338134765625	5326.50817655186
0.287628173828125	-0.00654296875	5326.59667755164
0.283203125	-0.00655517578125	5326.68517855141
0.278778076171875	-0.0065643310546875	5326.77367955119
0.27435302734375	-0.006573486328125	5326.86218055097
0.269927978515625	-0.0065826416015625	5326.95068155074
0.2655029296875	-0.006591796875	5327.03918255052
0.261077880859375	-0.0066009521484375	5327.1276835503
0.25665283203125	-0.006610107421875	5327.21618455007
0.252227783203125	-0.0066162109375	5327.30468554985
0.247802734375	-0.0066253662109375	5327.39318654963
0.243377685546875	-0.0066314697265625	5327.4816875494
0.23895263671875	-0.006640625	5327.57018854918
0.234527587890625	-0.006646728515625	5327.65868954895
0.2301025390625	-0.00665283203125	5327.74719054873
0.225677490234375	-0.006658935546875	5327.83569154851
0.22125244140625	-0.0066650390625	5327.92419254828
0.216827392578125	-0.006671142578125	5328.01269354806
0.21240234375	-0.00667724609375	5328.10119454784
0.207977294921875	-0.006683349609375	5328.18969554761
0.20355224609375	-0.006689453125	5328.27819654739
0.199127197265625	-0.006695556640625	5328.36669754717
0.1947021484375	-0.00670166015625	5328.45519854694
0.190277099609375	-0.006707763671875	5328.54369954672
0.18585205078125	-0.0067138671875	5328.6322005465
0.181427001953125	-0.0067169189453125	5328.72070154627
0.177001953125	-0.0067230224609375	5328.80920254605
0.172576904296875	-0.0067291259765625	5328.89770354583
0.16815185546875	-0.0067352294921875	5328.9862045456
0.163726806640625	-0.0067413330078125	5329.07470554538
0.1593017578125	-0.006744384765625	5329.16320654516
0.154876708984375	-0.00675048828125	5329.25170754493
0.15045166015625	-0.006756591796875	5329.34020854471
0.146026611328125	-0.0067626953125	5329.42870954449
0.1416015625	-0.006768798828125	5329.51721054426
0.137176513671875	-0.00677490234375	5329.60571154404
0.13275146484375	-0.006781005859375	5329.69421254382
0.128326416015625	-0.006787109375	5329.78271354359
0.1239013671875	-0.006793212890625	5329.87121454337
0.119476318359375	-0.00679931640625	5329.95971554315
0.11505126953125	-0.0068023681640625	5330.04821654292
0.110626220703125	-0.0068115234375	5330.1367175427
0.106201171875	-0.006817626953125	5330.22521854247
0.101776123046875	-0.00682373046875	5330.31371954225
0.09735107421875	-0.0068328857421875	5330.40222054203
0.092926025390625	-0.0068389892578125	5330.4907215418
0.0885009765625	-0.00684814453125	5330.57922254158
0.084075927734375	-0.0068572998046875	5330.66772354136
0.07965087890625	-0.006866455078125	5330.75622454113
0.075225830078125	-0.0068756103515625	5330.84472554091
0.07080078125	-0.006884765625	5330.93322654069
0.066375732421875	-0.0068939208984375	5331.02172754046
0.06195068359375	-0.006903076171875	5331.11022854024
0.057525634765625	-0.006915283203125	5331.19872954002
0.0531005859375	-0.006927490234375	5331.28723053979
0.048675537109375	-0.006939697265625	5331.37573153957
0.04425048828125	-0.006951904296875	5331.46423253935
0.039825439453125	-0.006964111328125	5331.55273353912
0.035400390625	-0.006976318359375	5331.6412345389
0.030975341796875	-0.0069915771484375	5331.72973553868
0.02655029296875	-0.0070068359375	5331.81823653845
0.022125244140625	-0.0070220947265625	5331.90673753823
0.0177001953125	-0.007037353515625	5331.99523853801
0.013275146484375	-0.0070526123046875	5332.08373953778
0.00885009765625	-0.0070709228515625	5332.17224053756
0.004425048828125	-0.0070892333984375	5332.26074153734
0	-0.0071075439453125	5332.34924253711
0.004425048828125	-0.00640869140625	5332.43774353689
0.00885009765625	-0.00577392578125	5332.52624453667
0.013275146484375	-0.0051910400390625	5332.61474553644
0.0177001953125	-0.004652099609375	5332.70324653622
0.022125244140625	-0.0041473388671875	5332.791747536
0.02655029296875	-0.0036749267578125	5332.88024853577
0.030975341796875	-0.003231201171875	5332.96874953555
0.035400390625	-0.002813720703125	5333.05725053532
0.039825439453125	-0.002430419921875	5333.1457515351
0.04425048828125	-0.00205780029296875	5333.23425253488
0.048675537109375	-0.00170623779296875	5333.32275353465
0.0531005859375	-0.00137298583984375	5333.41125453443
0.057525634765625	-0.00105712890625	5333.49975553421
0.06195068359375	-0.000758056640625	5333.58825653398
0.066375732421875	-0.000473602294921875	5333.67675753376
0.07080078125	-0.00020391845703125	5333.76525853354
0.075225830078125	5.279541015625E-05	5333.85375953331
0.07965087890625	0.000295562744140625	5333.94226053309
0.084075927734375	0.00052825927734375	5334.03076153287
0.0885009765625	0.0007489013671875	5334.11926253264
0.092926025390625	0.00095916748046875	5334.20776353242
0.09735107421875	0.00115936279296875	5334.2962645322
0.101776123046875	0.00135009765625	5334.38476553197
0.106201171875	0.00153167724609375	5334.47326653175
0.110626220703125	0.001705322265625	5334.56176753153
0.11505126953125	0.0018707275390625	5334.6502685313
0.119476318359375	0.0020269775390625	5334.73876953108
0.1239013671875	0.002177734375	5334.82727053086
0.128326416015625	0.00232147216796875	5334.91577153063
0.13275146484375	0.00245880126953125	5335.00427253041
0.137176513671875	0.00259002685546875	5335.09277353019
0.1416015625	0.00271484375	5335.18127452996
0.146026611328125	0.00283477783203125	5335.26977552974
0.15045166015625	0.00294891357421875	5335.35827652952
0.154876708984375	0.00305816650390625	5335.44677752929
0.1593017578125	0.0031622314453125	5335.53527852907
0.163726806640625	0.0032623291015625	5335.62377952885
0.16815185546875	0.0033575439453125	5335.71228052862
0.172576904296875	0.00344879150390625	5335.8007815284
0.177001953125	0.00353607177734375	5335.88928252817
0.181427001953125	0.0036199951171875	5335.97778352795
0.18585205078125	0.0037005615234375	5336.06628452773
0.190277099609375	0.00377777099609375	5336.1547855275
0.1947021484375	0.0038519287109375	5336.24328652728
0.199127197265625	0.0039227294921875	5336.33178752706
0.20355224609375	0.00399078369140625	5336.42028852683
0.207977294921875	0.004056396484375	5336.50878952661
0.21240234375	0.00411865234375	5336.59729052639
0.216827392578125	0.00417938232421875	5336.68579152616
0.22125244140625	0.00423736572265625	5336.77429252594
0.225677490234375	0.00429351806640625	5336.86279352572
0.2301025390625	0.00434783935546875	5336.95129452549
0.234527587890625	0.00439849853515625	5337.03979552527
0.23895263671875	0.00444915771484375	5337.12829652505
0.243377685546875	0.00449737548828125	5337.21679752482
0.247802734375	0.00454376220703125	5337.3052985246
0.252227783203125	0.00458892822265625	5337.39379952438
0.25665283203125	0.00463287353515625	5337.48230052415
0.261077880859375	0.00467498779296875	5337.57080152393
0.2655029296875	0.004715576171875	5337.65930252371
0.269927978515625	0.0047552490234375	5337.74780352348
0.27435302734375	0.004793701171875	5337.83630452326
0.278778076171875	0.00483062744140625	5337.92480552304
0.283203125	0.00486724853515625	5338.01330652281
0.287628173828125	0.00490234375	5338.10180752259
0.29205322265625	0.00493682861328125	5338.19030852236
0.296478271484375	0.00497039794921875	5338.27880952214
0.3009033203125	0.00500335693359375	5338.36731052192
0.305328369140625	0.0050347900390625	5338.4558115217
0.30975341796875	0.00506561279296875	5338.54431252147
0.314178466796875	0.00509857177734375	5338.63281352125
0.318603515625	0.00512786865234375	5338.72131452102
0.323028564453125	0.0051568603515625	5338.8098155208
0.32745361328125	0.0051849365234375	5338.89831652058
0.331878662109375	0.00521209716796875	5338.98681752035
0.3363037109375	0.0052392578125	5339.07531852013
0.340728759765625	0.0052655029296875	5339.16381951991
0.34515380859375	0.00529083251953125	5339.25232051968
0.349578857421875	0.0053173828125	5339.34082151946
0.35400390625	0.0053424072265625	5339.42932251924
0.358428955078125	0.005367431640625	5339.51782351901
0.36285400390625	0.005391845703125	5339.60632451879
0.367279052734375	0.0054156494140625	5339.69482551857
0.3717041015625	0.005438232421875	5339.78332651834
0.376129150390625	0.0054608154296875	5339.87182751812
0.38055419921875	0.00548248291015625	5339.9603285179
0.384979248046875	0.00550445556640625	5340.04882951767
0.389404296875	0.00552581787109375	5340.13733051745
0.393829345703125	0.005546875	5340.22583151723
0.39825439453125	0.00556854248046875	5340.314332517
0.402679443359375	0.0055908203125	5340.40283351678
0.4071044921875	0.00561126708984375	5340.49133451656
0.411529541015625	0.00563232421875	5340.57983551633
0.41595458984375	0.00565277099609375	5340.66833651611
0.420379638671875	0.00567291259765625	5340.75683751589
0.4248046875	0.00569244384765625	5340.84533851566
0.429229736328125	0.005712890625	5340.93383951544
0.43365478515625	0.0057318115234375	5341.02234051521
0.438079833984375	0.00575103759765625	5341.11084151499
0.4425048828125	0.005770263671875	5341.19934251477
0.446929931640625	0.0057879638671875	5341.28784351454
0.45135498046875	0.00580657958984375	5341.37634451432
0.455780029296875	0.0058245849609375	5341.4648455141
0.460205078125	0.00584197998046875	5341.55334651387
0.464630126953125	0.00585906982421875	5341.64184751365
0.46905517578125	0.0058758544921875	5341.73034851343
0.473480224609375	0.00589202880859375	5341.8188495132
0.4779052734375	0.005908203125	5341.90735051298
0.482330322265625	0.005924072265625	5341.99585151276
0.48675537109375	0.00593994140625	5342.08435251253
0.491180419921875	0.00595489501953125	5342.17285351231
0.49560546875	0.00597015380859375	5342.26135451209
0.500030517578125	0.00598480224609375	5342.34985551186
0.50445556640625	0.00599945068359375	5342.43835651164
0.508880615234375	0.00601348876953125	5342.52685751142
0.5133056640625	0.00601806640625	5342.61535851119
0.517730712890625	0.0060302734375	5342.70385951097
0.52215576171875	0.00604248046875	5342.79236051075
0.526580810546875	0.0060546875	5342.88086151052
0.531005859375	0.00606689453125	5342.9693625103
0.535430908203125	0.0060791015625	5343.05786351008
0.53985595703125	0.0060882568359375	5343.14636450985
0.544281005859375	0.0061004638671875	5343.23486550963
0.5487060546875	0.006109619140625	5343.3233665094
0.553131103515625	0.0061187744140625	5343.41186750918
0.55755615234375	0.0061279296875	5343.50036850896
0.561981201171875	0.0061370849609375	5343.58886950874
0.56640625	0.006146240234375	5343.67737050851
0.570831298828125	0.00615234375	5343.76587150829
0.57525634765625	0.0061614990234375	5343.85437250806
0.579681396484375	0.0061676025390625	5343.94287350784
0.5841064453125	0.0061767578125	5344.03137450762
0.588531494140625	0.0061798095703125	5344.11987550739
0.59295654296875	0.0061859130859375	5344.20837650717
0.597381591796875	0.0061920166015625	5344.29687750695
0.601806640625	0.0061981201171875	5344.38537850672
0.606231689453125	0.006201171875	5344.4738795065
0.61065673828125	0.006207275390625	5344.56238050628
0.615081787109375	0.0062103271484375	5344.65088150605
0.6195068359375	0.00621337890625	5344.73938250583
0.623931884765625	0.0062164306640625	5344.82788350561
0.62835693359375	0.0062225341796875	5344.91638450538
0.632781982421875	0.0062255859375	5345.00488550516
0.63720703125	0.0062255859375	5345.09338650494
0.641632080078125	0.0062286376953125	5345.18188750471
0.64605712890625	0.0062286376953125	5345.27038850449
0.650482177734375	0.0062286376953125	5345.35888950427
0.6549072265625	0.006231689453125	5345.44739050404
0.659332275390625	0.006231689453125	5345.53589150382
0.66375732421875	0.006231689453125	5345.6243925036
0.668182373046875	0.006231689453125	5345.71289350337
0.672607421875	0.006231689453125	5345.80139450315
0.677032470703125	0.006231689453125	5345.88989550293
0.68145751953125	0.006231689453125	5345.9783965027
0.685882568359375	0.006231689453125	5346.06689750248
0.6903076171875	0.006231689453125	5346.15539850225
0.694732666015625	0.006231689453125	5346.24389950203
0.69915771484375	0.0062347412109375	5346.33240050181
0.703582763671875	0.006231689453125	5346.42090150158
0.7080078125	0.0062347412109375	5346.50940250136
0.712432861328125	0.0062347412109375	5346.59790350114
0.71685791015625	0.0062347412109375	5346.68640450091
0.721282958984375	0.00623779296875	5346.77490550069
0.7257080078125	0.00623779296875	5346.86340650047
0.730133056640625	0.0062408447265625	5346.95190750024
0.73455810546875	0.0062408447265625	5347.04040850002
0.738983154296875	0.006243896484375	5347.1289094998
0.743408203125	0.006243896484375	5347.21741049957
0.747833251953125	0.0062469482421875	5347.30591149935
0.75225830078125	0.0062530517578125	5347.39441249913
0.756683349609375	0.006256103515625	5347.4829134989
0.7611083984375	0.0062591552734375	5347.57141449868
0.765533447265625	0.0062652587890625	5347.65991549846
0.76995849609375	0.0062713623046875	5347.74841649823
0.774383544921875	0.0062744140625	5347.83691749801
0.77880859375	0.006280517578125	5347.92541849779
0.783233642578125	0.00628662109375	5348.01391949756
0.78765869140625	0.0062957763671875	5348.10242049734
0.792083740234375	0.0063018798828125	5348.19092149712
0.7965087890625	0.00631103515625	5348.27942249689
0.800933837890625	0.0063201904296875	5348.36792349667
0.80535888671875	0.006329345703125	5348.45642449645
0.809783935546875	0.006341552734375	5348.54492549622
0.814208984375	0.006353759765625	5348.633426496
0.818634033203125	0.006365966796875	5348.72192749578
0.82305908203125	0.006378173828125	5348.81042849555
0.827484130859375	0.006390380859375	5348.89892949533
0.8319091796875	0.0064056396484375	5348.9874304951
0.836334228515625	0.0064208984375	5349.07593149488
0.84075927734375	0.006439208984375	5349.16443249466
0.845184326171875	0.0064544677734375	5349.25293349443
0.849609375	0.006475830078125	5349.34143449421
0.854034423828125	0.006494140625	5349.42993549399
0.85845947265625	0.0065155029296875	5349.51843649376
0.862884521484375	0.006536865234375	5349.60693749354
0.8673095703125	0.0065582275390625	5349.69543849332
0.871734619140625	0.0065826416015625	5349.78393949309
0.87615966796875	0.006610107421875	5349.87244049287
0.880584716796875	0.0066375732421875	5349.96094149265
0.885009765625	0.0066650390625	5350.04944249242
0.889434814453125	0.006695556640625	5350.1379434922
0.89385986328125	0.00672607421875	5350.22644449198
0.898284912109375	0.006756591796875	5350.31494549175
0.9027099609375	0.006793212890625	5350.40344649153
0.907135009765625	0.0068267822265625	5350.49194749131
0.91156005859375	0.006866455078125	5350.58044849108
0.915985107421875	0.006903076171875	5350.66894949086
0.92041015625	0.00694580078125	5350.75745049064
0.924835205078125	0.0069854736328125	5350.84595149041
0.92926025390625	0.0070281982421875	5350.93445249019
0.933685302734375	0.007073974609375	5351.02295348997
0.9381103515625	0.007122802734375	5351.11145448974
0.942535400390625	0.007171630859375	5351.19995548952
0.94696044921875	0.0072235107421875	5351.2884564893
0.951385498046875	0.0072723388671875	5351.37695748907
0.955810546875	0.0073272705078125	5351.46545848885
0.960235595703125	0.0073822021484375	5351.55395948862
0.96466064453125	0.0074371337890625	5351.6424604884
0.969085693359375	0.0074951171875	5351.73096148818
0.9735107421875	0.0075531005859375	5351.81946248795
0.977935791015625	0.007611083984375	5351.90796348773
0.98236083984375	0.007672119140625	5351.99646448751
0.986785888671875	0.0077362060546875	5352.08496548728
0.9912109375	0.00780029296875	5352.17346648706
