Time (s)	WE(1).Potential (V)
944.934178614271	0.00877990722656249
945.934178611746	0.0171478271484375
946.934178609221	0.0244720458984375
947.934178606696	0.031256103515625
948.934178604172	0.0376708984375
949.934178601647	0.0438140869140625
950.934178599122	0.0497406005859375
951.934178596597	0.05548095703125
952.934178594072	0.061126708984375
953.934178591548	0.06658935546875
954.934178589023	0.071929931640625
955.934178586498	0.07720947265625
956.934178583973	0.082366943359375
957.934178581449	0.08746337890625
958.934178578924	0.092498779296875
959.934178576399	0.097412109375
960.934178573874	0.102325439453125
961.93417857135	0.107147216796875
962.934178568825	0.111907958984375
963.9341785663	0.11663818359375
964.934178563775	0.121337890625
965.934178561251	0.125946044921875
966.934178558726	0.13055419921875
967.934178556201	0.135101318359375
968.934178553676	0.139617919921875
969.934178551152	0.144073486328125
970.934178548627	0.14849853515625
971.934178546102	0.15289306640625
972.934178543577	0.157257080078125
973.934178541053	0.161590576171875
974.934178538528	0.165863037109375
975.934178536003	0.170135498046875
976.934178533478	0.174346923828125
977.934178530954	0.178558349609375
978.934178528429	0.182708740234375
979.934178525904	0.186859130859375
980.934178523379	0.190948486328125
981.934178520855	0.195037841796875
982.93417851833	0.1990966796875
983.934178515805	0.203125
984.93417851328	0.207061767578125
985.934178510755	0.211029052734375
986.934178508231	0.2149658203125
987.934178505706	0.2188720703125
988.934178503181	0.222747802734375
989.934178500656	0.22662353515625
990.934178498132	0.230438232421875
991.934178495607	0.234283447265625
992.934178493082	0.238006591796875
993.934178490557	0.241790771484375
994.934178488033	0.245513916015625
995.934178485508	0.249237060546875
996.934178482983	0.25286865234375
997.934178480458	0.256561279296875
998.934178477934	0.260162353515625
999.934178475409	0.2637939453125
1000.93417847288	0.267364501953125
1001.93417847036	0.27093505859375
1002.93417846783	0.27447509765625
1003.93417846531	0.27801513671875
1004.93417846279	0.281494140625
1005.93417846026	0.28497314453125
1006.93417845774	0.288421630859375
1007.93417845521	0.2918701171875
1008.93417845269	0.2952880859375
1009.93417845016	0.298675537109375
1010.93417844764	0.30206298828125
1011.93417844511	0.305419921875
1012.93417844259	0.30877685546875
1013.93417844006	0.312103271484375
1014.93417843754	0.3154296875
1015.93417843501	0.3187255859375
1016.93417843249	0.322021484375
1017.93417842996	0.325286865234375
1018.93417842744	0.328521728515625
1019.93417842491	0.331756591796875
1020.93417842239	0.334991455078125
1021.93417841986	0.33819580078125
1022.93417841734	0.3414306640625
1023.93417841481	0.3446044921875
1024.93417841229	0.3477783203125
1025.93417840977	0.350982666015625
1026.93417840724	0.3541259765625
1027.93417840472	0.3572998046875
1028.93417840219	0.36041259765625
1029.93417839967	0.363555908203125
1030.93417839714	0.366729736328125
1031.93417839462	0.369842529296875
1032.93417839209	0.37298583984375
1033.93417838957	0.3760986328125
1034.93417838704	0.37921142578125
1035.93417838452	0.382354736328125
1036.93417838199	0.385467529296875
1037.93417837947	0.388580322265625
1038.93417837694	0.39166259765625
1039.93417837442	0.394775390625
1040.93417837189	0.39788818359375
1041.93417836937	0.4010009765625
1042.93417836684	0.40411376953125
1043.93417836432	0.4072265625
1044.93417836179	0.41033935546875
1045.93417835927	0.4134521484375
1046.93417835675	0.41656494140625
1047.93417835422	0.419677734375
1048.9341783517	0.422760009765625
1049.93417834917	0.4259033203125
1050.93417834665	0.42901611328125
1051.93417834412	0.43212890625
1052.9341783416	0.435272216796875
1053.93417833907	0.43841552734375
1054.93417833655	0.441558837890625
1055.93417833402	0.4447021484375
1056.9341783315	0.447845458984375
1057.93417832897	0.45098876953125
1058.93417832645	0.4541015625
1059.93417832392	0.457275390625
1060.9341783214	0.46044921875
1061.93417831887	0.463623046875
1062.93417831635	0.466796875
1063.93417831382	0.469970703125
1064.9341783113	0.473175048828125
1065.93417830877	0.476348876953125
1066.93417830625	0.47955322265625
1067.93417830373	0.482757568359375
1068.9341783012	0.485931396484375
1069.93417829868	0.4891357421875
1070.93417829615	0.492340087890625
1071.93417829363	0.495574951171875
1072.9341782911	0.498809814453125
1073.93417828858	0.50201416015625
1074.93417828605	0.50506591796875
1075.93417828353	0.5084228515625
1076.934178281	0.51177978515625
1077.93417827848	0.51483154296875
1078.93417827595	0.5181884765625
1079.93417827343	0.52154541015625
1080.9341782709	0.52459716796875
1081.93417826838	0.5279541015625
1082.93417826585	0.53131103515625
1083.93417826333	0.53436279296875
1084.9341782608	0.5377197265625
1085.93417825828	0.54107666015625
1086.93417825575	0.54412841796875
1087.93417825323	0.5474853515625
1088.93417825071	0.550537109375
1089.93417824818	0.55389404296875
1090.93417824566	0.5572509765625
1091.93417824313	0.560302734375
1092.93417824061	0.56365966796875
1093.93417823808	0.5670166015625
1094.93417823556	0.570068359375
1095.93417823303	0.57342529296875
1096.93417823051	0.5767822265625
1097.93417822798	0.579833984375
1098.93417822546	0.58319091796875
1099.93417822293	0.5865478515625
1100.93417822041	0.589599609375
1101.93417821788	0.59295654296875
1102.93417821536	0.5963134765625
1103.93417821283	0.599365234375
1104.93417821031	0.60272216796875
1105.93417820778	0.60577392578125
1106.93417820526	0.609130859375
1107.93417820273	0.6121826171875
1108.93417820021	0.61553955078125
1109.93417819769	0.61859130859375
1110.93417819516	0.6219482421875
1111.93417819264	0.625
1112.93417819011	0.6280517578125
1113.93417818759	0.631103515625
1114.93417818506	0.63446044921875
1115.93417818254	0.63751220703125
1116.93417818001	0.64056396484375
1117.93417817749	0.6439208984375
1118.93417817496	0.64697265625
1119.93417817244	0.6500244140625
1120.93417816991	0.653076171875
1121.93417816739	0.6561279296875
1122.93417816486	0.6591796875
1123.93417816234	0.6622314453125
1124.93417815981	0.665283203125
1125.93417815729	0.6683349609375
1126.93417815476	0.67138671875
1127.93417815224	0.6744384765625
1128.93417814972	0.677490234375
1129.93417814719	0.6805419921875
1130.93417814467	0.68328857421875
1131.93417814214	0.68634033203125
1132.93417813962	0.6890869140625
1133.93417813709	0.692138671875
1134.93417813457	0.69488525390625
1135.93417813204	0.69793701171875
1136.93417812952	0.70068359375
1137.93417812699	0.70343017578125
1138.93417812447	0.7061767578125
1139.93417812194	0.70892333984375
1140.93417811942	0.711669921875
1141.93417811689	0.714111328125
1142.93417811437	0.71685791015625
1143.93417811184	0.7196044921875
1144.93417810932	0.72235107421875
1145.93417810679	0.72479248046875
1146.93417810427	0.72723388671875
1147.93417810174	0.72998046875
1148.93417809922	0.732421875
1149.9341780967	0.73486328125
1150.93417809417	0.7373046875
1151.93417809165	0.73974609375
1152.93417808912	0.7421875
1153.9341780866	0.74462890625
1154.93417808407	0.74676513671875
1155.93417808155	0.74920654296875
1156.93417807902	0.7513427734375
1157.9341780765	0.7537841796875
1158.93417807397	0.75592041015625
1159.93417807145	0.758056640625
1160.93417806892	0.76019287109375
1161.9341780664	0.7623291015625
1162.93417806387	0.76416015625
1163.93417806135	0.76629638671875
1164.93417805882	0.7684326171875
1165.9341780563	0.770263671875
1166.93417805377	0.77239990234375
1167.93417805125	0.77423095703125
1168.93417804872	0.77606201171875
1169.9341780462	0.77789306640625
1170.93417804368	0.77972412109375
1171.93417804115	0.78125
1172.93417803863	0.78277587890625
1173.9341780361	0.78460693359375
1174.93417803358	0.7861328125
1175.93417803105	0.7879638671875
1176.93417802853	0.78948974609375
1177.934178026	0.791015625
1178.93417802348	0.7928466796875
1179.93417802095	0.79437255859375
1180.93417801843	0.7958984375
1181.9341780159	0.797119140625
1182.93417801338	0.79864501953125
1183.93417801085	0.8001708984375
1184.93417800833	0.80169677734375
1185.9341780058	0.80291748046875
1186.93417800328	0.804443359375
