Potential applied (V)	WE(1).Current (A)	Time (s)
0.004425048828125	-0.081884765625	5425.48761030196
0.00885009765625	-0.078472900390625	5425.5097353019
0.013275146484375	-0.0755615234375	5425.53186030185
0.0177001953125	-0.07296142578125	5425.55398530179
0.022125244140625	-0.0705841064453125	5425.57611030174
0.02655029296875	-0.0683807373046875	5425.59823530168
0.030975341796875	-0.0662933349609375	5425.62036030163
0.035400390625	-0.06431884765625	5425.64248530157
0.039825439453125	-0.0624481201171875	5425.66461030151
0.04425048828125	-0.0606475830078125	5425.68673530146
0.048675537109375	-0.0589141845703125	5425.7088603014
0.0531005859375	-0.0572509765625	5425.73098530135
0.057525634765625	-0.0556427001953125	5425.75311030129
0.06195068359375	-0.0540924072265625	5425.77523530123
0.066375732421875	-0.0525909423828125	5425.79736030118
0.07080078125	-0.0511383056640625	5425.81948530112
0.075225830078125	-0.0497344970703125	5425.84161030107
0.07965087890625	-0.0483673095703125	5425.86373530101
0.084075927734375	-0.047039794921875	5425.88586030095
0.0885009765625	-0.0457550048828125	5425.9079853009
0.092926025390625	-0.044500732421875	5425.93011030084
0.09735107421875	-0.0432769775390625	5425.95223530079
0.101776123046875	-0.04208984375	5425.97436030073
0.106201171875	-0.04093017578125	5425.99648530068
0.110626220703125	-0.039801025390625	5426.01861030062
0.11505126953125	-0.0387054443359375	5426.04073530056
0.119476318359375	-0.0376312255859375	5426.06286030051
0.1239013671875	-0.0365875244140625	5426.08498530045
0.128326416015625	-0.035565185546875	5426.1071103004
0.13275146484375	-0.0345672607421875	5426.12923530034
0.137176513671875	-0.03359375	5426.15136030028
0.1416015625	-0.0326446533203125	5426.17348530023
0.146026611328125	-0.0317108154296875	5426.19561030017
0.15045166015625	-0.0308013916015625	5426.21773530012
0.154876708984375	-0.0299102783203125	5426.23986030006
0.1593017578125	-0.0290435791015625	5426.26198530001
0.163726806640625	-0.028192138671875	5426.28411029995
0.16815185546875	-0.0273590087890625	5426.30623529989
0.172576904296875	-0.0265472412109375	5426.32836029984
0.177001953125	-0.025750732421875	5426.35048529978
0.181427001953125	-0.024969482421875	5426.37261029973
0.18585205078125	-0.0242034912109375	5426.39473529967
0.190277099609375	-0.023455810546875	5426.41686029961
0.1947021484375	-0.022723388671875	5426.43898529956
0.199127197265625	-0.022003173828125	5426.4611102995
0.20355224609375	-0.0212982177734375	5426.48323529945
0.207977294921875	-0.0206085205078125	5426.50536029939
0.21240234375	-0.0199310302734375	5426.52748529934
0.216827392578125	-0.0192657470703125	5426.54961029928
0.22125244140625	-0.01861572265625	5426.57173529922
0.225677490234375	-0.017974853515625	5426.59386029917
0.2301025390625	-0.0173492431640625	5426.61598529911
0.234527587890625	-0.01673583984375	5426.63811029906
0.23895263671875	-0.016131591796875	5426.660235299
0.243377685546875	-0.01553955078125	5426.68236029894
0.247802734375	-0.0149566650390625	5426.70448529889
0.252227783203125	-0.014385986328125	5426.72661029883
0.25665283203125	-0.0138275146484375	5426.74873529878
0.261077880859375	-0.013275146484375	5426.77086029872
0.2655029296875	-0.01273193359375	5426.79298529866
0.269927978515625	-0.012200927734375	5426.81511029861
0.27435302734375	-0.0116790771484375	5426.83723529855
0.278778076171875	-0.0111663818359375	5426.8593602985
0.283203125	-0.0106658935546875	5426.88148529844
0.287628173828125	-0.01016845703125	5426.90361029839
0.29205322265625	-0.00968017578125	5426.92573529833
0.296478271484375	-0.0092041015625	5426.94786029827
0.3009033203125	-0.0087310791015625	5426.96998529822
0.305328369140625	-0.008270263671875	5426.99211029816
0.30975341796875	-0.0078155517578125	5427.01423529811
0.314178466796875	-0.007366943359375	5427.03636029805
0.318603515625	-0.0069305419921875	5427.05848529799
0.323028564453125	-0.0064971923828125	5427.08061029794
0.32745361328125	-0.006072998046875	5427.10273529788
0.331878662109375	-0.00565185546875	5427.12486029783
0.3363037109375	-0.005242919921875	5427.14698529777
0.340728759765625	-0.00484039306640625	5427.16911029771
0.34515380859375	-0.004443359375	5427.19123529766
0.349578857421875	-0.004052734375	5427.2133602976
0.35400390625	-0.00367034912109375	5427.23548529755
0.358428955078125	-0.0032916259765625	5427.25761029749
0.36285400390625	-0.00293121337890625	5427.27973529744
0.367279052734375	-0.00256317138671875	5427.30186029738
0.3717041015625	-0.0022021484375	5427.32398529732
0.376129150390625	-0.00184661865234375	5427.34611029727
0.38055419921875	-0.00149658203125	5427.36823529721
0.384979248046875	-0.00115264892578125	5427.39036029716
0.389404296875	-0.00081390380859375	5427.4124852971
0.393829345703125	-0.00048248291015625	5427.43461029704
0.39825439453125	-0.000154449462890625	5427.45673529699
0.402679443359375	0.000167999267578125	5427.47886029693
0.4071044921875	0.0004852294921875	5427.50098529688
0.411529541015625	0.0007977294921875	5427.52311029682
0.41595458984375	0.00110565185546875	5427.54523529677
0.420379638671875	0.00140869140625	5427.56736029671
0.4248046875	0.001707763671875	5427.58948529665
0.429229736328125	0.0020013427734375	5427.6116102966
0.43365478515625	0.00229034423828125	5427.63373529654
0.438079833984375	0.00257476806640625	5427.65586029649
0.4425048828125	0.0028546142578125	5427.67798529643
0.446929931640625	0.00313018798828125	5427.70011029637
0.45135498046875	0.0034014892578125	5427.72223529632
0.455780029296875	0.00366851806640625	5427.74436029626
0.460205078125	0.0039324951171875	5427.76648529621
0.464630126953125	0.00419189453125	5427.78861029615
0.46905517578125	0.00444671630859375	5427.8107352961
0.473480224609375	0.00469757080078125	5427.83286029604
0.4779052734375	0.00494537353515625	5427.85498529598
0.482330322265625	0.00518890380859375	5427.87711029593
0.48675537109375	0.0054290771484375	5427.89923529587
0.491180419921875	0.00566558837890625	5427.92136029582
0.49560546875	0.00589874267578125	5427.94348529576
0.500030517578125	0.0061279296875	5427.9656102957
0.50445556640625	0.006341552734375	5427.98773529565
0.508880615234375	0.0065643310546875	5428.00986029559
0.5133056640625	0.0067840576171875	5428.03198529554
0.517730712890625	0.007000732421875	5428.05411029548
0.52215576171875	0.0072113037109375	5428.07623529543
0.526580810546875	0.0074188232421875	5428.09836029537
0.531005859375	0.0076263427734375	5428.12048529531
0.535430908203125	0.0078277587890625	5428.14261029526
0.53985595703125	0.008026123046875	5428.1647352952
0.544281005859375	0.008221435546875	5428.18686029515
0.5487060546875	0.0084136962890625	5428.20898529509
0.553131103515625	0.0086029052734375	5428.23111029503
0.55755615234375	0.0087921142578125	5428.25323529498
0.561981201171875	0.008978271484375	5428.27536029492
0.56640625	0.0091583251953125	5428.29748529487
0.570831298828125	0.00933837890625	5428.31961029481
0.57525634765625	0.009515380859375	5428.34173529475
0.579681396484375	0.0096893310546875	5428.3638602947
0.5841064453125	0.0098602294921875	5428.38598529464
0.588531494140625	0.0100250244140625	5428.40811029459
0.59295654296875	0.0101898193359375	5428.43023529453
0.597381591796875	0.0103546142578125	5428.45236029448
0.601806640625	0.0105133056640625	5428.47448529442
0.606231689453125	0.010675048828125	5428.49661029436
0.61065673828125	0.01082763671875	5428.51873529431
0.615081787109375	0.010980224609375	5428.54086029425
0.6195068359375	0.0111328125	5428.5629852942
0.623931884765625	0.0112823486328125	5428.58511029414
0.62835693359375	0.0114349365234375	5428.60723529408
0.632781982421875	0.011578369140625	5428.62936029403
0.63720703125	0.01171875	5428.65148529397
0.641632080078125	0.011859130859375	5428.67361029392
0.64605712890625	0.0119964599609375	5428.69573529386
0.650482177734375	0.0121307373046875	5428.7178602938
0.6549072265625	0.0122650146484375	5428.73998529375
0.659332275390625	0.012396240234375	5428.76211029369
0.66375732421875	0.0125244140625	5428.78423529364
0.668182373046875	0.012652587890625	5428.80636029358
0.672607421875	0.0127777099609375	5428.82848529353
0.677032470703125	0.0128997802734375	5428.85061029347
0.68145751953125	0.01302490234375	5428.87273529341
0.685882568359375	0.0131439208984375	5428.89486029336
0.6903076171875	0.0132598876953125	5428.9169852933
0.694732666015625	0.0133758544921875	5428.93911029325
0.69915771484375	0.0134857177734375	5428.96123529319
0.703582763671875	0.0135955810546875	5428.98336029313
0.7080078125	0.01370849609375	5429.00548529308
0.712432861328125	0.013818359375	5429.02761029302
0.71685791015625	0.0139251708984375	5429.04973529297
0.721282958984375	0.014031982421875	5429.07186029291
0.7257080078125	0.014129638671875	5429.09398529285
0.730133056640625	0.0142303466796875	5429.1161102928
0.73455810546875	0.0143310546875	5429.13823529274
0.738983154296875	0.0144287109375	5429.16036029269
0.743408203125	0.0145233154296875	5429.18248529263
0.747833251953125	0.014617919921875	5429.20461029258
0.75225830078125	0.01470947265625	5429.22673529252
0.756683349609375	0.014801025390625	5429.24886029246
0.7611083984375	0.0148895263671875	5429.27098529241
0.765533447265625	0.01497802734375	5429.29311029235
0.76995849609375	0.0150665283203125	5429.3152352923
0.774383544921875	0.0151519775390625	5429.33736029224
0.77880859375	0.015234375	5429.35948529219
0.783233642578125	0.0153167724609375	5429.38161029213
0.78765869140625	0.015399169921875	5429.40373529207
0.792083740234375	0.015478515625	5429.42586029202
0.7965087890625	0.015557861328125	5429.44798529196
0.800933837890625	0.0156341552734375	5429.47011029191
0.80535888671875	0.01571044921875	5429.49223529185
0.809783935546875	0.01578369140625	5429.51436029179
0.814208984375	0.0158599853515625	5429.53648529174
0.818634033203125	0.0159332275390625	5429.55861029168
0.82305908203125	0.01600341796875	5429.58073529163
0.827484130859375	0.0160736083984375	5429.60286029157
0.8319091796875	0.016143798828125	5429.62498529151
0.836334228515625	0.0162139892578125	5429.64711029146
0.84075927734375	0.0162811279296875	5429.6692352914
0.845184326171875	0.0163482666015625	5429.69136029135
0.849609375	0.016412353515625	5429.71348529129
0.854034423828125	0.0164794921875	5429.73561029124
0.85845947265625	0.0165435791015625	5429.75773529118
0.862884521484375	0.0166046142578125	5429.77986029112
0.8673095703125	0.016668701171875	5429.80198529107
0.871734619140625	0.016729736328125	5429.82411029101
0.87615966796875	0.0167938232421875	5429.84623529096
0.880584716796875	0.016851806640625	5429.8683602909
0.885009765625	0.016912841796875	5429.89048529084
0.889434814453125	0.016973876953125	5429.91261029079
0.89385986328125	0.017034912109375	5429.93473529073
0.898284912109375	0.0170928955078125	5429.95686029068
0.9027099609375	0.01715087890625	5429.97898529062
0.907135009765625	0.017205810546875	5430.00111029056
0.91156005859375	0.0172607421875	5430.02323529051
0.915985107421875	0.0173187255859375	5430.04536029045
0.92041015625	0.017376708984375	5430.0674852904
0.924835205078125	0.0174346923828125	5430.08961029034
0.92926025390625	0.0174896240234375	5430.11173529029
0.933685302734375	0.017547607421875	5430.13386029023
0.9381103515625	0.017608642578125	5430.15598529017
0.942535400390625	0.01766357421875	5430.17811029012
0.94696044921875	0.017718505859375	5430.20023529006
0.951385498046875	0.0177764892578125	5430.22236029001
0.955810546875	0.0178314208984375	5430.24448528995
0.960235595703125	0.017889404296875	5430.26661028989
0.96466064453125	0.0179473876953125	5430.28873528984
0.969085693359375	0.0180023193359375	5430.31086028978
0.9735107421875	0.018060302734375	5430.33298528973
0.977935791015625	0.018115234375	5430.35511028967
0.98236083984375	0.0181732177734375	5430.37723528962
0.986785888671875	0.018231201171875	5430.39936028956
0.9912109375	0.018292236328125	5430.4214852895
0.995635986328125	0.0183502197265625	5430.44361028945
1.00006103515625	0.0184112548828125	5430.46573528939
0.995635986328125	0.0176666259765625	5430.48786028934
0.9912109375	0.016961669921875	5430.50998528928
0.986785888671875	0.0162841796875	5430.53211028922
0.98236083984375	0.0156280517578125	5430.55423528917
0.977935791015625	0.014990234375	5430.57636028911
0.9735107421875	0.014373779296875	5430.59848528906
0.969085693359375	0.0137786865234375	5430.620610289
0.96466064453125	0.0131927490234375	5430.64273528895
0.960235595703125	0.0126190185546875	5430.66486028889
0.955810546875	0.0120635986328125	5430.68698528883
0.951385498046875	0.0115234375	5430.70911028878
0.94696044921875	0.0109893798828125	5430.73123528872
0.942535400390625	0.0104736328125	5430.75336028867
0.9381103515625	0.0099639892578125	5430.77548528861
0.933685302734375	0.0094635009765625	5430.79761028855
0.92926025390625	0.008978271484375	5430.8197352885
0.924835205078125	0.008502197265625	5430.84186028844
0.92041015625	0.0080352783203125	5430.86398528839
0.915985107421875	0.00758056640625	5430.88611028833
0.91156005859375	0.00712890625	5430.90823528828
0.907135009765625	0.006689453125	5430.93036028822
0.9027099609375	0.006256103515625	5430.95248528816
0.898284912109375	0.0058319091796875	5430.97461028811
0.89385986328125	0.005413818359375	5430.99673528805
0.889434814453125	0.0050048828125	5431.018860288
0.885009765625	0.00460357666015625	5431.04098528794
0.880584716796875	0.00420928955078125	5431.06311028788
0.87615966796875	0.0038214111328125	5431.08523528783
0.871734619140625	0.00344024658203125	5431.10736028777
0.8673095703125	0.00306549072265625	5431.12948528772
0.862884521484375	0.0027001953125	5431.15161028766
0.85845947265625	0.00233795166015625	5431.1737352876
0.854034423828125	0.001981201171875	5431.19586028755
0.849609375	0.00162994384765625	5431.21798528749
0.845184326171875	0.001285400390625	5431.24011028744
0.84075927734375	0.00094573974609375	5431.26223528738
0.836334228515625	0.00061248779296875	5431.28436028733
0.8319091796875	0.0002835693359375	5431.30648528727
0.827484130859375	-3.955078125E-05	5431.32861028721
0.82305908203125	-0.000357574462890625	5431.35073528716
0.818634033203125	-0.00067047119140625	5431.3728602871
0.814208984375	-0.00097869873046875	5431.39498528705
0.809783935546875	-0.00128082275390625	5431.41711028699
0.80535888671875	-0.00157958984375	5431.43923528693
0.800933837890625	-0.00187347412109375	5431.46136028688
0.7965087890625	-0.00216217041015625	5431.48348528682
0.792083740234375	-0.00244659423828125	5431.50561028677
0.78765869140625	-0.00272674560546875	5431.52773528671
0.783233642578125	-0.0030023193359375	5431.54986028665
0.77880859375	-0.00327362060546875	5431.5719852866
0.774383544921875	-0.00354034423828125	5431.59411028654
0.76995849609375	-0.0038037109375	5431.61623528649
0.765533447265625	-0.00406280517578125	5431.63836028643
0.7611083984375	-0.00431732177734375	5431.66048528638
0.756683349609375	-0.00456878662109375	5431.68261028632
0.75225830078125	-0.004815673828125	5431.70473528626
0.747833251953125	-0.00505950927734375	5431.72686028621
0.743408203125	-0.005299072265625	5431.74898528615
0.738983154296875	-0.0055328369140625	5431.7711102861
0.73455810546875	-0.005765380859375	5431.79323528604
0.730133056640625	-0.0059942626953125	5431.81536028598
0.7257080078125	-0.00621856689453125	5431.83748528593
0.721282958984375	-0.006414794921875	5431.85961028587
0.71685791015625	-0.006634521484375	5431.88173528582
0.712432861328125	-0.00684814453125	5431.90386028576
0.7080078125	-0.0070587158203125	5431.9259852857
0.703582763671875	-0.0072662353515625	5431.94811028565
0.69915771484375	-0.007470703125	5431.97023528559
0.694732666015625	-0.007672119140625	5431.99236028554
0.6903076171875	-0.007867431640625	5432.01448528548
0.685882568359375	-0.008062744140625	5432.03661028543
0.68145751953125	-0.008258056640625	5432.05873528537
0.677032470703125	-0.0084442138671875	5432.08086028531
0.672607421875	-0.00863037109375	5432.10298528526
0.668182373046875	-0.0088134765625	5432.1251102852
0.66375732421875	-0.00899658203125	5432.14723528515
0.659332275390625	-0.009173583984375	5432.16936028509
0.6549072265625	-0.0093475341796875	5432.19148528504
0.650482177734375	-0.0095184326171875	5432.21361028498
0.64605712890625	-0.0096893310546875	5432.23573528492
0.641632080078125	-0.009857177734375	5432.25786028487
0.63720703125	-0.01002197265625	5432.27998528481
0.632781982421875	-0.0101837158203125	5432.30211028476
0.62835693359375	-0.0103424072265625	5432.3242352847
0.623931884765625	-0.010504150390625	5432.34636028464
0.6195068359375	-0.0106597900390625	5432.36848528459
0.615081787109375	-0.0108123779296875	5432.39061028453
0.61065673828125	-0.0109588623046875	5432.41273528448
0.606231689453125	-0.0111053466796875	5432.43486028442
0.601806640625	-0.0112518310546875	5432.45698528436
0.597381591796875	-0.011395263671875	5432.47911028431
0.59295654296875	-0.0115386962890625	5432.50123528425
0.588531494140625	-0.0116790771484375	5432.5233602842
0.5841064453125	-0.0118133544921875	5432.54548528414
0.579681396484375	-0.0119476318359375	5432.56761028409
0.57525634765625	-0.0120819091796875	5432.58973528403
0.570831298828125	-0.012213134765625	5432.61186028397
0.56640625	-0.01234130859375	5432.63398528392
0.561981201171875	-0.012469482421875	5432.65611028386
0.55755615234375	-0.0125946044921875	5432.67823528381
0.553131103515625	-0.0127197265625	5432.70036028375
0.5487060546875	-0.0128448486328125	5432.72248528369
0.544281005859375	-0.0129638671875	5432.74461028364
0.53985595703125	-0.0130828857421875	5432.76673528358
0.535430908203125	-0.013201904296875	5432.78886028353
0.531005859375	-0.01331787109375	5432.81098528347
0.526580810546875	-0.013433837890625	5432.83311028341
0.52215576171875	-0.0135467529296875	5432.85523528336
0.517730712890625	-0.01365966796875	5432.8773602833
0.5133056640625	-0.01376953125	5432.89948528325
0.508880615234375	-0.0138763427734375	5432.92161028319
0.50445556640625	-0.013983154296875	5432.94373528314
0.500030517578125	-0.0140869140625	5432.96586028308
0.49560546875	-0.014190673828125	5432.98798528302
0.491180419921875	-0.0142913818359375	5433.01011028297
0.48675537109375	-0.0143951416015625	5433.03223528291
0.482330322265625	-0.014495849609375	5433.05436028286
0.4779052734375	-0.0145965576171875	5433.0764852828
0.473480224609375	-0.014697265625	5433.09861028274
0.46905517578125	-0.014794921875	5433.12073528269
0.464630126953125	-0.014886474609375	5433.14286028263
0.460205078125	-0.014984130859375	5433.16498528258
0.455780029296875	-0.01507568359375	5433.18711028252
0.45135498046875	-0.0151702880859375	5433.20923528247
0.446929931640625	-0.0152618408203125	5433.23136028241
0.4425048828125	-0.0153533935546875	5433.25348528235
0.438079833984375	-0.01544189453125	5433.2756102823
0.43365478515625	-0.0155303955078125	5433.29773528224
0.429229736328125	-0.015618896484375	5433.31986028219
0.4248046875	-0.015704345703125	5433.34198528213
0.420379638671875	-0.015789794921875	5433.36411028207
0.41595458984375	-0.0158721923828125	5433.38623528202
0.411529541015625	-0.0159576416015625	5433.40836028196
0.4071044921875	-0.0160400390625	5433.43048528191
0.402679443359375	-0.01612548828125	5433.45261028185
0.39825439453125	-0.016204833984375	5433.47473528179
0.393829345703125	-0.0162872314453125	5433.49686028174
0.389404296875	-0.0163665771484375	5433.51898528168
0.384979248046875	-0.0164459228515625	5433.54111028163
0.38055419921875	-0.0165252685546875	5433.56323528157
0.376129150390625	-0.0166046142578125	5433.58536028152
0.3717041015625	-0.016680908203125	5433.60748528146
0.367279052734375	-0.0167572021484375	5433.6296102814
0.36285400390625	-0.0168365478515625	5433.65173528135
0.358428955078125	-0.0169097900390625	5433.67386028129
0.35400390625	-0.016986083984375	5433.69598528124
0.349578857421875	-0.017059326171875	5433.71811028118
0.34515380859375	-0.017132568359375	5433.74023528113
0.340728759765625	-0.017205810546875	5433.76236028107
0.3363037109375	-0.017279052734375	5433.78448528101
0.331878662109375	-0.0173492431640625	5433.80661028096
0.32745361328125	-0.0174224853515625	5433.8287352809
0.323028564453125	-0.0174957275390625	5433.85086028085
0.318603515625	-0.01756591796875	5433.87298528079
0.314178466796875	-0.01763916015625	5433.89511028073
0.30975341796875	-0.01771240234375	5433.91723528068
0.305328369140625	-0.0177825927734375	5433.93936028062
0.3009033203125	-0.0178497314453125	5433.96148528057
0.296478271484375	-0.017919921875	5433.98361028051
0.29205322265625	-0.017987060546875	5434.00573528045
0.287628173828125	-0.0180572509765625	5434.0278602804
0.283203125	-0.01812744140625	5434.04998528034
0.278778076171875	-0.018194580078125	5434.07211028029
0.27435302734375	-0.01826171875	5434.09423528023
0.269927978515625	-0.018328857421875	5434.11636028018
0.2655029296875	-0.01839599609375	5434.13848528012
0.261077880859375	-0.018463134765625	5434.16061028006
0.25665283203125	-0.0185302734375	5434.18273528001
0.252227783203125	-0.0185943603515625	5434.20486027995
0.247802734375	-0.018658447265625	5434.2269852799
0.243377685546875	-0.0187255859375	5434.24911027984
0.23895263671875	-0.01878662109375	5434.27123527978
0.234527587890625	-0.0188507080078125	5434.29336027973
0.2301025390625	-0.018914794921875	5434.31548527967
0.225677490234375	-0.0189788818359375	5434.33761027962
0.22125244140625	-0.01904296875	5434.35973527956
0.216827392578125	-0.0191070556640625	5434.3818602795
0.21240234375	-0.0191680908203125	5434.40398527945
0.207977294921875	-0.0192291259765625	5434.42611027939
0.20355224609375	-0.019293212890625	5434.44823527934
0.199127197265625	-0.019354248046875	5434.47036027928
0.1947021484375	-0.0194122314453125	5434.49248527923
0.190277099609375	-0.0194732666015625	5434.51461027917
0.18585205078125	-0.0195343017578125	5434.53673527911
0.181427001953125	-0.0195953369140625	5434.55886027906
0.177001953125	-0.0196533203125	5434.580985279
0.172576904296875	-0.0197113037109375	5434.60311027895
0.16815185546875	-0.019769287109375	5434.62523527889
0.163726806640625	-0.0198272705078125	5434.64736027883
0.1593017578125	-0.01988525390625	5434.66948527878
0.154876708984375	-0.0199432373046875	5434.69161027872
0.15045166015625	-0.0199981689453125	5434.71373527867
0.146026611328125	-0.02005615234375	5434.73586027861
0.1416015625	-0.020111083984375	5434.75798527855
0.137176513671875	-0.020166015625	5434.7801102785
0.13275146484375	-0.020220947265625	5434.80223527844
0.128326416015625	-0.02027587890625	5434.82436027839
0.1239013671875	-0.0203277587890625	5434.84648527833
0.119476318359375	-0.020379638671875	5434.86861027828
0.11505126953125	-0.0204315185546875	5434.89073527822
0.110626220703125	-0.0204833984375	5434.91286027816
0.106201171875	-0.0205352783203125	5434.93498527811
0.101776123046875	-0.020587158203125	5434.95711027805
0.09735107421875	-0.0206390380859375	5434.979235278
0.092926025390625	-0.02069091796875	5435.00136027794
0.0885009765625	-0.02073974609375	5435.02348527788
0.084075927734375	-0.0207916259765625	5435.04561027783
0.07965087890625	-0.0208404541015625	5435.06773527777
0.075225830078125	-0.0208892822265625	5435.08986027772
0.07080078125	-0.0209381103515625	5435.11198527766
0.066375732421875	-0.0209869384765625	5435.13411027761
0.06195068359375	-0.0210357666015625	5435.15623527755
0.057525634765625	-0.02108154296875	5435.17836027749
0.0531005859375	-0.02113037109375	5435.20048527744
0.048675537109375	-0.0211761474609375	5435.22261027738
0.04425048828125	-0.021221923828125	5435.24473527733
0.039825439453125	-0.0212677001953125	5435.26686027727
0.035400390625	-0.0213134765625	5435.28898527721
0.030975341796875	-0.0213592529296875	5435.31111027716
0.02655029296875	-0.021405029296875	5435.3332352771
0.022125244140625	-0.02144775390625	5435.35536027705
0.0177001953125	-0.0214935302734375	5435.37748527699
0.013275146484375	-0.021539306640625	5435.39961027694
0.00885009765625	-0.02158203125	5435.42173527688
0.004425048828125	-0.021624755859375	5435.44386027682
0	-0.0216705322265625	5435.46598527677
0.004425048828125	-0.020904541015625	5435.48811027671
0.00885009765625	-0.0201751708984375	5435.51023527666
0.013275146484375	-0.01947021484375	5435.5323602766
0.0177001953125	-0.0187835693359375	5435.55448527654
0.022125244140625	-0.018121337890625	5435.57661027649
0.02655029296875	-0.017474365234375	5435.59873527643
0.030975341796875	-0.0168487548828125	5435.62086027638
0.035400390625	-0.0162322998046875	5435.64298527632
0.039825439453125	-0.015631103515625	5435.66511027626
0.04425048828125	-0.015045166015625	5435.68723527621
0.048675537109375	-0.014471435546875	5435.70936027615
0.0531005859375	-0.013909912109375	5435.7314852761
0.057525634765625	-0.0133575439453125	5435.75361027604
0.06195068359375	-0.0128173828125	5435.77573527599
0.066375732421875	-0.0122894287109375	5435.79786027593
0.07080078125	-0.011767578125	5435.81998527587
0.075225830078125	-0.0112579345703125	5435.84211027582
0.07965087890625	-0.0107635498046875	5435.86423527576
0.084075927734375	-0.0102691650390625	5435.88636027571
0.0885009765625	-0.0097869873046875	5435.90848527565
0.092926025390625	-0.00931396484375	5435.93061027559
0.09735107421875	-0.0088470458984375	5435.95273527554
0.101776123046875	-0.008392333984375	5435.97486027548
0.106201171875	-0.007940673828125	5435.99698527543
0.110626220703125	-0.007501220703125	5436.01911027537
0.11505126953125	-0.00706787109375	5436.04123527532
0.119476318359375	-0.0066436767578125	5436.06336027526
0.1239013671875	-0.0062225341796875	5436.0854852752
0.128326416015625	-0.005810546875	5436.10761027515
0.13275146484375	-0.0054046630859375	5436.12973527509
0.137176513671875	-0.0050048828125	5436.15186027504
0.1416015625	-0.00461395263671875	5436.17398527498
0.146026611328125	-0.00422760009765625	5436.19611027492
0.15045166015625	-0.00384765625	5436.21823527487
0.154876708984375	-0.00347381591796875	5436.24036027481
0.1593017578125	-0.003106689453125	5436.26248527476
0.163726806640625	-0.00275543212890625	5436.2846102747
0.16815185546875	-0.0023974609375	5436.30673527464
0.172576904296875	-0.0020452880859375	5436.32886027459
0.177001953125	-0.00170013427734375	5436.35098527453
0.181427001953125	-0.001358642578125	5436.37311027448
0.18585205078125	-0.00102325439453125	5436.39523527442
0.190277099609375	-0.00069305419921875	5436.41736027437
0.1947021484375	-0.000367645263671875	5436.43948527431
0.199127197265625	-4.730224609375E-05	5436.46161027425
0.20355224609375	0.000267333984375	5436.4837352742
0.207977294921875	0.000577392578125	5436.50586027414
0.21240234375	0.0008837890625	5436.52798527409
0.216827392578125	0.00118499755859375	5436.55011027403
0.22125244140625	0.00148193359375	5436.57223527397
0.225677490234375	0.00177459716796875	5436.59436027392
0.2301025390625	0.00206268310546875	5436.61648527386
0.234527587890625	0.002344970703125	5436.63861027381
0.23895263671875	0.00262451171875	5436.66073527375
0.243377685546875	0.0028997802734375	5436.6828602737
0.247802734375	0.00317047119140625	5436.70498527364
0.252227783203125	0.0034368896484375	5436.72711027358
0.25665283203125	0.0037005615234375	5436.74923527353
0.261077880859375	0.0039605712890625	5436.77136027347
0.2655029296875	0.00421630859375	5436.79348527342
0.269927978515625	0.0044683837890625	5436.81561027336
0.27435302734375	0.0047161865234375	5436.8377352733
0.278778076171875	0.0049609375	5436.85986027325
0.283203125	0.005201416015625	5436.88198527319
0.287628173828125	0.0054388427734375	5436.90411027314
0.29205322265625	0.0056732177734375	5436.92623527308
0.296478271484375	0.0059039306640625	5436.94836027303
0.3009033203125	0.006131591796875	5436.97048527297
0.305328369140625	0.006341552734375	5436.99261027291
0.30975341796875	0.0065643310546875	5437.01473527286
0.314178466796875	0.006787109375	5437.0368602728
0.318603515625	0.007000732421875	5437.05898527275
0.323028564453125	0.0072113037109375	5437.08111027269
0.32745361328125	0.0074188232421875	5437.10323527263
0.331878662109375	0.007623291015625	5437.12536027258
0.3363037109375	0.00782470703125	5437.14748527252
0.340728759765625	0.0080230712890625	5437.16961027247
0.34515380859375	0.0082183837890625	5437.19173527241
0.349578857421875	0.0084136962890625	5437.21386027235
0.35400390625	0.0086029052734375	5437.2359852723
0.358428955078125	0.0087890625	5437.25811027224
0.36285400390625	0.0089752197265625	5437.28023527219
0.367279052734375	0.0091583251953125	5437.30236027213
0.3717041015625	0.0093414306640625	5437.32448527208
0.376129150390625	0.009515380859375	5437.34661027202
0.38055419921875	0.0096923828125	5437.36873527196
0.384979248046875	0.0098663330078125	5437.39086027191
0.389404296875	0.0100372314453125	5437.41298527185
0.393829345703125	0.0102020263671875	5437.4351102718
0.39825439453125	0.010369873046875	5437.45723527174
0.402679443359375	0.0105316162109375	5437.47936027168
0.4071044921875	0.010693359375	5437.50148527163
0.411529541015625	0.0108551025390625	5437.52361027157
0.41595458984375	0.0110076904296875	5437.54573527152
0.420379638671875	0.0111602783203125	5437.56786027146
0.4248046875	0.01131591796875	5437.5899852714
0.429229736328125	0.0114654541015625	5437.61211027135
0.43365478515625	0.011614990234375	5437.63423527129
0.438079833984375	0.011761474609375	5437.65636027124
0.4425048828125	0.0119049072265625	5437.67848527118
0.446929931640625	0.01204833984375	5437.70061027113
0.45135498046875	0.012188720703125	5437.72273527107
0.455780029296875	0.0123291015625	5437.74486027101
0.460205078125	0.0124664306640625	5437.76698527096
0.464630126953125	0.01259765625	5437.7891102709
0.46905517578125	0.01273193359375	5437.81123527085
0.473480224609375	0.0128631591796875	5437.83336027079
0.4779052734375	0.012994384765625	5437.85548527073
0.482330322265625	0.01312255859375	5437.87761027068
0.48675537109375	0.0132476806640625	5437.89973527062
0.491180419921875	0.013372802734375	5437.92186027057
0.49560546875	0.0134979248046875	5437.94398527051
0.500030517578125	0.0136199951171875	5437.96611027046
0.50445556640625	0.013739013671875	5437.9882352704
0.508880615234375	0.01385498046875	5438.01036027034
0.5133056640625	0.0139739990234375	5438.03248527029
0.517730712890625	0.0140899658203125	5438.05461027023
0.52215576171875	0.014202880859375	5438.07673527018
0.526580810546875	0.0143157958984375	5438.09886027012
0.531005859375	0.0144287109375	5438.12098527006
0.535430908203125	0.01453857421875	5438.14311027001
0.53985595703125	0.0146453857421875	5438.16523526995
0.544281005859375	0.014752197265625	5438.1873602699
0.5487060546875	0.01485595703125	5438.20948526984
0.553131103515625	0.014959716796875	5438.23161026979
0.55755615234375	0.0150634765625	5438.25373526973
0.561981201171875	0.0151702880859375	5438.27586026967
0.56640625	0.01527099609375	5438.29798526962
0.570831298828125	0.01536865234375	5438.32011026956
0.57525634765625	0.01546630859375	5438.34223526951
0.579681396484375	0.01556396484375	5438.36436026945
0.5841064453125	0.0156585693359375	5438.38648526939
0.588531494140625	0.0157501220703125	5438.40861026934
0.59295654296875	0.0158416748046875	5438.43073526928
0.597381591796875	0.01593017578125	5438.45286026923
0.601806640625	0.016021728515625	5438.47498526917
0.606231689453125	0.01611328125	5438.49711026911
0.61065673828125	0.016204833984375	5438.51923526906
0.615081787109375	0.0162933349609375	5438.541360269
0.6195068359375	0.0163818359375	5438.56348526895
0.623931884765625	0.0164642333984375	5438.58561026889
0.62835693359375	0.016552734375	5438.60773526884
0.632781982421875	0.0166351318359375	5438.62986026878
0.63720703125	0.016717529296875	5438.65198526872
0.641632080078125	0.0167999267578125	5438.67411026867
0.64605712890625	0.0168792724609375	5438.69623526861
0.650482177734375	0.0169586181640625	5438.71836026856
0.6549072265625	0.017034912109375	5438.7404852685
0.659332275390625	0.0171142578125	5438.76261026844
0.66375732421875	0.0171875	5438.78473526839
0.668182373046875	0.0172607421875	5438.80686026833
0.672607421875	0.017333984375	5438.82898526828
0.677032470703125	0.0174072265625	5438.85111026822
0.68145751953125	0.0174774169921875	5438.87323526817
0.685882568359375	0.017547607421875	5438.89536026811
0.6903076171875	0.0176177978515625	5438.91748526805
0.694732666015625	0.01768798828125	5438.939610268
0.69915771484375	0.017755126953125	5438.96173526794
0.703582763671875	0.0178192138671875	5438.98386026789
0.7080078125	0.0178863525390625	5439.00598526783
0.712432861328125	0.017950439453125	5439.02811026777
0.71685791015625	0.0180145263671875	5439.05023526772
0.721282958984375	0.0180755615234375	5439.07236026766
0.7257080078125	0.0181365966796875	5439.09448526761
0.730133056640625	0.0181976318359375	5439.11661026755
0.73455810546875	0.0182586669921875	5439.13873526749
0.738983154296875	0.018316650390625	5439.16086026744
0.743408203125	0.01837158203125	5439.18298526738
0.747833251953125	0.018426513671875	5439.20511026733
0.75225830078125	0.0184814453125	5439.22723526727
0.756683349609375	0.018536376953125	5439.24936026722
0.7611083984375	0.01859130859375	5439.27148526716
0.765533447265625	0.0186431884765625	5439.2936102671
0.76995849609375	0.018695068359375	5439.31573526705
0.774383544921875	0.018743896484375	5439.33786026699
0.77880859375	0.018792724609375	5439.35998526694
0.783233642578125	0.018841552734375	5439.38211026688
0.78765869140625	0.0188873291015625	5439.40423526682
0.792083740234375	0.0189361572265625	5439.42636026677
0.7965087890625	0.0189788818359375	5439.44848526671
0.800933837890625	0.019024658203125	5439.47061026666
0.80535888671875	0.0190704345703125	5439.4927352666
0.809783935546875	0.0191131591796875	5439.51486026654
0.814208984375	0.0191558837890625	5439.53698526649
0.818634033203125	0.019195556640625	5439.55911026643
0.82305908203125	0.0192352294921875	5439.58123526638
0.827484130859375	0.01927490234375	5439.60336026632
0.8319091796875	0.0193145751953125	5439.62548526627
0.836334228515625	0.0193511962890625	5439.64761026621
0.84075927734375	0.019390869140625	5439.66973526615
0.845184326171875	0.0194244384765625	5439.6918602661
0.849609375	0.0194610595703125	5439.71398526604
0.854034423828125	0.0194976806640625	5439.73611026599
0.85845947265625	0.01953125	5439.75823526593
0.862884521484375	0.019561767578125	5439.78036026588
0.8673095703125	0.0195953369140625	5439.80248526582
0.871734619140625	0.01962890625	5439.82461026576
0.87615966796875	0.0196624755859375	5439.84673526571
0.880584716796875	0.0196929931640625	5439.86886026565
0.885009765625	0.0197265625	5439.8909852656
0.889434814453125	0.019757080078125	5439.91311026554
0.89385986328125	0.01978759765625	5439.93523526548
0.898284912109375	0.019818115234375	5439.95736026543
0.9027099609375	0.0198486328125	5439.97948526537
0.907135009765625	0.019879150390625	5440.00161026532
0.91156005859375	0.01990966796875	5440.02373526526
0.915985107421875	0.019940185546875	5440.0458602652
0.92041015625	0.019970703125	5440.06798526515
0.924835205078125	0.0199981689453125	5440.09011026509
0.92926025390625	0.0200286865234375	5440.11223526504
0.933685302734375	0.0200592041015625	5440.13436026498
0.9381103515625	0.0200897216796875	5440.15648526493
0.942535400390625	0.0201202392578125	5440.17861026487
0.94696044921875	0.0201507568359375	5440.20073526481
0.951385498046875	0.0201812744140625	5440.22286026476
0.955810546875	0.0202117919921875	5440.2449852647
0.960235595703125	0.020245361328125	5440.26711026465
0.96466064453125	0.0202728271484375	5440.28923526459
0.969085693359375	0.0203033447265625	5440.31136026453
0.9735107421875	0.0203338623046875	5440.33348526448
0.977935791015625	0.0203643798828125	5440.35561026442
0.98236083984375	0.0203948974609375	5440.37773526437
0.986785888671875	0.020428466796875	5440.39986026431
0.9912109375	0.0204620361328125	5440.42198526425
0.995635986328125	0.0204986572265625	5440.4441102642
1.00006103515625	0.0205352783203125	5440.46623526414
0.995635986328125	0.0197662353515625	5440.48836026409
0.9912109375	0.0190338134765625	5440.51048526403
0.986785888671875	0.018328857421875	5440.53261026398
0.98236083984375	0.017645263671875	5440.55473526392
0.977935791015625	0.016986083984375	5440.57686026386
0.9735107421875	0.01634521484375	5440.59898526381
0.969085693359375	0.0157196044921875	5440.62111026375
0.96466064453125	0.0151123046875	5440.6432352637
0.960235595703125	0.0145172119140625	5440.66536026364
0.955810546875	0.0139404296875	5440.68748526358
0.951385498046875	0.013372802734375	5440.70961026353
0.94696044921875	0.0128173828125	5440.73173526347
0.942535400390625	0.0122772216796875	5440.75386026342
0.9381103515625	0.0117462158203125	5440.77598526336
0.933685302734375	0.011224365234375	5440.79811026331
0.92926025390625	0.0107177734375	5440.82023526325
0.924835205078125	0.01021728515625	5440.84236026319
0.92041015625	0.00972900390625	5440.86448526314
0.915985107421875	0.0092529296875	5440.88661026308
0.91156005859375	0.008782958984375	5440.90873526303
0.907135009765625	0.008319091796875	5440.93086026297
0.9027099609375	0.007867431640625	5440.95298526291
0.898284912109375	0.007427978515625	5440.97511026286
0.89385986328125	0.0069915771484375	5440.9972352628
0.889434814453125	0.006561279296875	5441.01936026275
0.885009765625	0.0061431884765625	5441.04148526269
0.880584716796875	0.0057281494140625	5441.06361026263
0.87615966796875	0.005322265625	5441.08573526258
0.871734619140625	0.004921875	5441.10786026252
0.8673095703125	0.00452972412109375	5441.12998526247
0.862884521484375	0.00414459228515625	5441.15211026241
0.85845947265625	0.0037664794921875	5441.17423526236
0.854034423828125	0.0033941650390625	5441.1963602623
0.849609375	0.00303131103515625	5441.21848526224
0.845184326171875	0.002669677734375	5441.24061026219
0.84075927734375	0.00231475830078125	5441.26273526213
0.836334228515625	0.00196502685546875	5441.28486026208
0.8319091796875	0.00162109375	5441.30698526202
0.827484130859375	0.00128265380859375	5441.32911026196
0.82305908203125	0.00094970703125	5441.35123526191
0.818634033203125	0.00062255859375	5441.37336026185
0.814208984375	0.00029937744140625	5441.3954852618
0.809783935546875	-1.77825927734375E-05	5441.41761026174
0.80535888671875	-0.000329803466796875	5441.43973526169
0.800933837890625	-0.00063690185546875	5441.46186026163
0.7965087890625	-0.00093994140625	5441.48398526157
0.792083740234375	-0.0012371826171875	5441.50611026152
0.78765869140625	-0.00153045654296875	5441.52823526146
0.783233642578125	-0.00181915283203125	5441.55036026141
0.77880859375	-0.00210235595703125	5441.57248526135
0.774383544921875	-0.0023822021484375	5441.59461026129
0.76995849609375	-0.002657470703125	5441.61673526124
0.765533447265625	-0.00292877197265625	5441.63886026118
0.7611083984375	-0.00319580078125	5441.66098526113
0.756683349609375	-0.00345916748046875	5441.68311026107
0.75225830078125	-0.00371734619140625	5441.70523526102
0.747833251953125	-0.00397247314453125	5441.72736026096
0.743408203125	-0.0042230224609375	5441.7494852609
0.738983154296875	-0.0044683837890625	5441.77161026085
0.73455810546875	-0.0047119140625	5441.79373526079
0.730133056640625	-0.004951171875	5441.81586026074
0.7257080078125	-0.0051873779296875	5441.83798526068
0.721282958984375	-0.0054193115234375	5441.86011026062
0.71685791015625	-0.005648193359375	5441.88223526057
0.712432861328125	-0.00587310791015625	5441.90436026051
0.7080078125	-0.00609466552734375	5441.92648526046
0.703582763671875	-0.00628662109375	5441.9486102604
0.69915771484375	-0.0065032958984375	5441.97073526034
0.694732666015625	-0.0067138671875	5441.99286026029
0.6903076171875	-0.0069244384765625	5442.01498526023
0.685882568359375	-0.0071258544921875	5442.03711026018
0.68145751953125	-0.007330322265625	5442.05923526012
0.677032470703125	-0.0075286865234375	5442.08136026007
0.672607421875	-0.0077239990234375	5442.10348526001
0.668182373046875	-0.0079132080078125	5442.12561025995
0.66375732421875	-0.0081024169921875	5442.1477352599
0.659332275390625	-0.00828857421875	5442.16986025984
0.6549072265625	-0.0084747314453125	5442.19198525979
0.650482177734375	-0.00865478515625	5442.21411025973
0.64605712890625	-0.008831787109375	5442.23623525967
0.641632080078125	-0.0090087890625	5442.25836025962
0.63720703125	-0.0091827392578125	5442.28048525956
0.632781982421875	-0.0093505859375	5442.30261025951
0.62835693359375	-0.0095184326171875	5442.32473525945
0.623931884765625	-0.009686279296875	5442.34686025939
0.6195068359375	-0.00985107421875	5442.36898525934
0.615081787109375	-0.010009765625	5442.39111025928
0.61065673828125	-0.01016845703125	5442.41323525923
0.606231689453125	-0.0103240966796875	5442.43536025917
0.601806640625	-0.0104766845703125	5442.45748525912
0.597381591796875	-0.0106292724609375	5442.47961025906
0.59295654296875	-0.01077880859375	5442.501735259
0.588531494140625	-0.0109222412109375	5442.52386025895
0.5841064453125	-0.0110626220703125	5442.54598525889
0.579681396484375	-0.0112060546875	5442.56811025884
0.57525634765625	-0.011346435546875	5442.59023525878
0.570831298828125	-0.01148681640625	5442.61236025872
0.56640625	-0.0116241455078125	5442.63448525867
0.561981201171875	-0.0117584228515625	5442.65661025861
0.55755615234375	-0.0118896484375	5442.67873525856
0.553131103515625	-0.0120208740234375	5442.7008602585
0.5487060546875	-0.012152099609375	5442.72298525845
0.544281005859375	-0.0122772216796875	5442.74511025839
0.53985595703125	-0.01240234375	5442.76723525833
0.535430908203125	-0.0125244140625	5442.78936025828
0.531005859375	-0.012646484375	5442.81148525822
0.526580810546875	-0.0127685546875	5442.83361025817
0.52215576171875	-0.0128875732421875	5442.85573525811
0.517730712890625	-0.013006591796875	5442.87786025805
0.5133056640625	-0.01312255859375	5442.899985258
0.508880615234375	-0.013238525390625	5442.92211025794
0.50445556640625	-0.0133514404296875	5442.94423525789
0.500030517578125	-0.01346435546875	5442.96636025783
0.49560546875	-0.0135772705078125	5442.98848525778
0.491180419921875	-0.0136871337890625	5443.01061025772
0.48675537109375	-0.0137939453125	5443.03273525766
0.482330322265625	-0.0139007568359375	5443.05486025761
0.4779052734375	-0.0140045166015625	5443.07698525755
0.473480224609375	-0.014105224609375	5443.0991102575
0.46905517578125	-0.014208984375	5443.12123525744
0.464630126953125	-0.0143096923828125	5443.14336025738
0.460205078125	-0.014410400390625	5443.16548525733
0.455780029296875	-0.014508056640625	5443.18761025727
0.45135498046875	-0.014605712890625	5443.20973525722
0.446929931640625	-0.0147064208984375	5443.23186025716
0.4425048828125	-0.014801025390625	5443.2539852571
0.438079833984375	-0.0148956298828125	5443.27611025705
0.43365478515625	-0.014990234375	5443.29823525699
0.429229736328125	-0.0150848388671875	5443.32036025694
0.4248046875	-0.0151763916015625	5443.34248525688
0.420379638671875	-0.0152679443359375	5443.36461025683
0.41595458984375	-0.0153594970703125	5443.38673525677
0.411529541015625	-0.015447998046875	5443.40886025671
0.4071044921875	-0.0155364990234375	5443.43098525666
0.402679443359375	-0.0156219482421875	5443.4531102566
0.39825439453125	-0.0157073974609375	5443.47523525655
0.393829345703125	-0.0157928466796875	5443.49736025649
0.389404296875	-0.0158782958984375	5443.51948525643
0.384979248046875	-0.0159637451171875	5443.54161025638
0.38055419921875	-0.016046142578125	5443.56373525632
0.376129150390625	-0.0161285400390625	5443.58586025627
0.3717041015625	-0.0162109375	5443.60798525621
0.367279052734375	-0.0162933349609375	5443.63011025616
0.36285400390625	-0.016375732421875	5443.6522352561
0.358428955078125	-0.016455078125	5443.67436025604
0.35400390625	-0.016534423828125	5443.69648525599
0.349578857421875	-0.0166107177734375	5443.71861025593
0.34515380859375	-0.0166900634765625	5443.74073525588
0.340728759765625	-0.0167694091796875	5443.76286025582
0.3363037109375	-0.016845703125	5443.78498525576
0.331878662109375	-0.0169219970703125	5443.80711025571
0.32745361328125	-0.016998291015625	5443.82923525565
0.323028564453125	-0.01707763671875	5443.8513602556
0.318603515625	-0.01715087890625	5443.87348525554
0.314178466796875	-0.0172210693359375	5443.89561025548
0.30975341796875	-0.0173004150390625	5443.91773525543
0.305328369140625	-0.0173736572265625	5443.93986025537
0.3009033203125	-0.0174468994140625	5443.96198525532
0.296478271484375	-0.01751708984375	5443.98411025526
0.29205322265625	-0.0175933837890625	5444.00623525521
0.287628173828125	-0.01766357421875	5444.02836025515
0.283203125	-0.01773681640625	5444.05048525509
0.278778076171875	-0.0178070068359375	5444.07261025504
0.27435302734375	-0.0178802490234375	5444.09473525498
0.269927978515625	-0.0179473876953125	5444.11686025493
0.2655029296875	-0.018017578125	5444.13898525487
0.261077880859375	-0.018084716796875	5444.16111025481
0.25665283203125	-0.0181549072265625	5444.18323525476
0.252227783203125	-0.0182220458984375	5444.2053602547
0.247802734375	-0.018292236328125	5444.22748525465
0.243377685546875	-0.018359375	5444.24961025459
0.23895263671875	-0.018426513671875	5444.27173525454
0.234527587890625	-0.01849365234375	5444.29386025448
0.2301025390625	-0.0185577392578125	5444.31598525442
0.225677490234375	-0.0186248779296875	5444.33811025437
0.22125244140625	-0.0186920166015625	5444.36023525431
0.216827392578125	-0.0187530517578125	5444.38236025426
0.21240234375	-0.018817138671875	5444.4044852542
0.207977294921875	-0.0188812255859375	5444.42661025414
0.20355224609375	-0.0189453125	5444.44873525409
0.199127197265625	-0.0190093994140625	5444.47086025403
0.1947021484375	-0.0190704345703125	5444.49298525398
0.190277099609375	-0.0191314697265625	5444.51511025392
0.18585205078125	-0.019195556640625	5444.53723525387
0.181427001953125	-0.0192535400390625	5444.55936025381
0.177001953125	-0.0193145751953125	5444.58148525375
0.172576904296875	-0.0193756103515625	5444.6036102537
0.16815185546875	-0.01943359375	5444.62573525364
0.163726806640625	-0.01949462890625	5444.64786025359
0.1593017578125	-0.019549560546875	5444.66998525353
0.154876708984375	-0.0196075439453125	5444.69211025347
0.15045166015625	-0.0196624755859375	5444.71423525342
0.146026611328125	-0.019720458984375	5444.73636025336
0.1416015625	-0.019775390625	5444.75848525331
0.137176513671875	-0.0198333740234375	5444.78061025325
0.13275146484375	-0.0198883056640625	5444.80273525319
0.128326416015625	-0.0199432373046875	5444.82486025314
0.1239013671875	-0.0199951171875	5444.84698525308
0.119476318359375	-0.020050048828125	5444.86911025303
0.11505126953125	-0.020098876953125	5444.89123525297
0.110626220703125	-0.02015380859375	5444.91336025292
0.106201171875	-0.02020263671875	5444.93548525286
0.101776123046875	-0.020257568359375	5444.9576102528
0.09735107421875	-0.020306396484375	5444.97973525275
0.092926025390625	-0.020355224609375	5445.00186025269
0.0885009765625	-0.020404052734375	5445.02398525264
0.084075927734375	-0.020452880859375	5445.04611025258
0.07965087890625	-0.020501708984375	5445.06823525252
0.075225830078125	-0.0205474853515625	5445.09036025247
0.07080078125	-0.0205963134765625	5445.11248525241
0.066375732421875	-0.02064208984375	5445.13461025236
0.06195068359375	-0.02069091796875	5445.1567352523
0.057525634765625	-0.0207366943359375	5445.17886025224
0.0531005859375	-0.0207855224609375	5445.20098525219
0.048675537109375	-0.0208282470703125	5445.22311025213
0.04425048828125	-0.0208740234375	5445.24523525208
0.039825439453125	-0.0209197998046875	5445.26736025202
0.035400390625	-0.020965576171875	5445.28948525197
0.030975341796875	-0.02100830078125	5445.31161025191
0.02655029296875	-0.021051025390625	5445.33373525185
0.022125244140625	-0.0210968017578125	5445.3558602518
0.0177001953125	-0.0211395263671875	5445.37798525174
0.013275146484375	-0.0211822509765625	5445.40011025169
0.00885009765625	-0.0212249755859375	5445.42223525163
0.004425048828125	-0.021270751953125	5445.44436025157
0	-0.0213104248046875	5445.46648525152
0.004425048828125	-0.0205474853515625	5445.48861025146
0.00885009765625	-0.019818115234375	5445.51073525141
0.013275146484375	-0.0191131591796875	5445.53286025135
0.0177001953125	-0.0184295654296875	5445.55498525129
0.022125244140625	-0.017767333984375	5445.57711025124
0.02655029296875	-0.0171234130859375	5445.59923525118
0.030975341796875	-0.0164947509765625	5445.62136025113
0.035400390625	-0.0158782958984375	5445.64348525107
0.039825439453125	-0.0152801513671875	5445.66561025102
0.04425048828125	-0.0146942138671875	5445.68773525096
0.048675537109375	-0.0141204833984375	5445.7098602509
0.0531005859375	-0.01356201171875	5445.73198525085
0.057525634765625	-0.0130126953125	5445.75411025079
0.06195068359375	-0.0124755859375	5445.77623525074
0.066375732421875	-0.011944580078125	5445.79836025068
0.07080078125	-0.01142578125	5445.82048525063
0.075225830078125	-0.0109222412109375	5445.84261025057
0.07965087890625	-0.0104217529296875	5445.86473525051
0.084075927734375	-0.0099334716796875	5445.88686025046
0.0885009765625	-0.0094512939453125	5445.9089852504
0.092926025390625	-0.0089813232421875	5445.93111025035
0.09735107421875	-0.0085174560546875	5445.95323525029
0.101776123046875	-0.008062744140625	5445.97536025023
0.106201171875	-0.0076171875	5445.99748525018
0.110626220703125	-0.007177734375	5446.01961025012
0.11505126953125	-0.0067474365234375	5446.04173525007
0.119476318359375	-0.0063232421875	5446.06386025001
0.1239013671875	-0.0059051513671875	5446.08598524995
0.128326416015625	-0.0054962158203125	5446.1081102499
0.13275146484375	-0.00509033203125	5446.13023524984
0.137176513671875	-0.004697265625	5446.15236024979
0.1416015625	-0.0043072509765625	5446.17448524973
0.146026611328125	-0.00392333984375	5446.19661024968
0.15045166015625	-0.00354644775390625	5446.21873524962
0.154876708984375	-0.00317474365234375	5446.24086024956
0.1593017578125	-0.00282135009765625	5446.26298524951
0.163726806640625	-0.0024603271484375	5446.28511024945
0.16815185546875	-0.00210540771484375	5446.3072352494
0.172576904296875	-0.0017559814453125	5446.32936024934
0.177001953125	-0.0014129638671875	5446.35148524928
0.181427001953125	-0.0010748291015625	5446.37361024923
0.18585205078125	-0.0007415771484375	5446.39573524917
0.190277099609375	-0.0004140625	5446.41786024912
0.1947021484375	-9.1552734375E-05	5446.43998524906
0.199127197265625	0.000225799560546875	5446.46211024901
0.20355224609375	0.00053802490234375	5446.48423524895
0.207977294921875	0.000845947265625	5446.50636024889
0.21240234375	0.00114959716796875	5446.52848524884
0.216827392578125	0.0014483642578125	5446.55061024878
0.22125244140625	0.00174285888671875	5446.57273524873
0.225677490234375	0.0020330810546875	5446.59486024867
0.2301025390625	0.00231842041015625	5446.61698524861
0.234527587890625	0.00259796142578125	5446.63911024856
0.23895263671875	0.00287506103515625	5446.6612352485
0.243377685546875	0.00314727783203125	5446.68336024845
0.247802734375	0.00341552734375	5446.70548524839
0.252227783203125	0.00368011474609375	5446.72761024833
0.25665283203125	0.003941650390625	5446.74973524828
0.261077880859375	0.0041986083984375	5446.77186024822
0.2655029296875	0.00445159912109375	5446.79398524817
0.269927978515625	0.004700927734375	5446.81611024811
0.27435302734375	0.0049462890625	5446.83823524806
0.278778076171875	0.00518829345703125	5446.860360248
0.283203125	0.00542694091796875	5446.88248524794
0.287628173828125	0.00566192626953125	5446.90461024789
0.29205322265625	0.0058935546875	5446.92673524783
0.296478271484375	0.0061224365234375	5446.94886024778
0.3009033203125	0.00633544921875	5446.97098524772
0.305328369140625	0.0065582275390625	5446.99311024766
0.30975341796875	0.0067779541015625	5447.01523524761
0.314178466796875	0.00699462890625	5447.03736024755
0.318603515625	0.0072052001953125	5447.0594852475
0.323028564453125	0.007415771484375	5447.08161024744
0.32745361328125	0.0076202392578125	5447.10373524738
0.331878662109375	0.0078216552734375	5447.12586024733
0.3363037109375	0.00802001953125	5447.14798524727
0.340728759765625	0.0082183837890625	5447.17011024722
0.34515380859375	0.0084136962890625	5447.19223524716
0.349578857421875	0.0086029052734375	5447.21436024711
0.35400390625	0.0087921142578125	5447.23648524705
0.358428955078125	0.008978271484375	5447.25861024699
0.36285400390625	0.009161376953125	5447.28073524694
0.367279052734375	0.0093414306640625	5447.30286024688
0.3717041015625	0.0095184326171875	5447.32498524683
0.376129150390625	0.0096954345703125	5447.34711024677
0.38055419921875	0.009869384765625	5447.36923524672
0.384979248046875	0.010040283203125	5447.39136024666
0.389404296875	0.0102081298828125	5447.4134852466
0.393829345703125	0.0103729248046875	5447.43561024655
0.39825439453125	0.0105377197265625	5447.45773524649
0.402679443359375	0.010699462890625	5447.47986024644
0.4071044921875	0.010858154296875	5447.50198524638
0.411529541015625	0.0110137939453125	5447.52411024632
0.41595458984375	0.01116943359375	5447.54623524627
0.420379638671875	0.011322021484375	5447.56836024621
0.4248046875	0.0114715576171875	5447.59048524616
0.429229736328125	0.01162109375	5447.6126102461
0.43365478515625	0.011767578125	5447.63473524604
0.438079833984375	0.0119140625	5447.65686024599
0.4425048828125	0.012054443359375	5447.67898524593
0.446929931640625	0.0121978759765625	5447.70111024588
0.45135498046875	0.0123382568359375	5447.72323524582
0.455780029296875	0.0124755859375	5447.74536024577
0.460205078125	0.0126068115234375	5447.76748524571
0.464630126953125	0.0127410888671875	5447.78961024565
0.46905517578125	0.012872314453125	5447.8117352456
0.473480224609375	0.0130035400390625	5447.83386024554
0.4779052734375	0.0131317138671875	5447.85598524549
0.482330322265625	0.0132598876953125	5447.87811024543
0.48675537109375	0.013385009765625	5447.90023524537
0.491180419921875	0.0135101318359375	5447.92236024532
0.49560546875	0.013629150390625	5447.94448524526
0.500030517578125	0.0137481689453125	5447.96661024521
0.50445556640625	0.0138671875	5447.98873524515
0.508880615234375	0.0139892578125	5448.01086024509
0.5133056640625	0.01409912109375	5448.03298524504
0.517730712890625	0.014215087890625	5448.05511024498
0.52215576171875	0.0143280029296875	5448.07723524493
0.526580810546875	0.01444091796875	5448.09936024487
0.531005859375	0.01455078125	5448.12148524482
0.535430908203125	0.0146575927734375	5448.14361024476
0.53985595703125	0.014764404296875	5448.1657352447
0.544281005859375	0.0148712158203125	5448.18786024465
0.5487060546875	0.0149749755859375	5448.20998524459
0.553131103515625	0.0150787353515625	5448.23211024454
0.55755615234375	0.015185546875	5448.25423524448
0.561981201171875	0.0152862548828125	5448.27636024442
0.56640625	0.0153839111328125	5448.29848524437
0.570831298828125	0.015484619140625	5448.32061024431
0.57525634765625	0.015582275390625	5448.34273524426
0.579681396484375	0.015673828125	5448.3648602442
0.5841064453125	0.0157684326171875	5448.38698524414
0.588531494140625	0.01585693359375	5448.40911024409
0.59295654296875	0.015948486328125	5448.43123524403
0.597381591796875	0.0160400390625	5448.45336024398
0.601806640625	0.0161346435546875	5448.47548524392
0.606231689453125	0.01622314453125	5448.49761024387
0.61065673828125	0.016314697265625	5448.51973524381
0.615081787109375	0.016400146484375	5448.54186024375
0.6195068359375	0.016485595703125	5448.5639852437
0.623931884765625	0.0165679931640625	5448.58611024364
0.62835693359375	0.016656494140625	5448.60823524359
0.632781982421875	0.0167388916015625	5448.63036024353
0.63720703125	0.0168182373046875	5448.65248524347
0.641632080078125	0.016900634765625	5448.67461024342
0.64605712890625	0.01697998046875	5448.69673524336
0.650482177734375	0.017059326171875	5448.71886024331
0.6549072265625	0.0171356201171875	5448.74098524325
0.659332275390625	0.0172088623046875	5448.7631102432
0.66375732421875	0.0172821044921875	5448.78523524314
0.668182373046875	0.0173553466796875	5448.80736024308
0.672607421875	0.0174285888671875	5448.82948524303
0.677032470703125	0.0175018310546875	5448.85161024297
0.68145751953125	0.017572021484375	5448.87373524292
0.685882568359375	0.0176422119140625	5448.89586024286
0.6903076171875	0.0177093505859375	5448.9179852428
0.694732666015625	0.0177764892578125	5448.94011024275
0.69915771484375	0.0178466796875	5448.96223524269
0.703582763671875	0.01790771484375	5448.98436024264
0.7080078125	0.017974853515625	5449.00648524258
0.712432861328125	0.018035888671875	5449.02861024253
0.71685791015625	0.0180999755859375	5449.05073524247
0.721282958984375	0.0181610107421875	5449.07286024241
0.7257080078125	0.0182220458984375	5449.09498524236
0.730133056640625	0.0182830810546875	5449.1171102423
0.73455810546875	0.018341064453125	5449.13923524225
0.738983154296875	0.0183990478515625	5449.16136024219
0.743408203125	0.018450927734375	5449.18348524213
0.747833251953125	0.0185089111328125	5449.20561024208
0.75225830078125	0.018560791015625	5449.22773524202
0.756683349609375	0.01861572265625	5449.24986024197
0.7611083984375	0.0186676025390625	5449.27198524191
0.765533447265625	0.018719482421875	5449.29411024186
0.76995849609375	0.018768310546875	5449.3162352418
0.774383544921875	0.018817138671875	5449.33836024174
0.77880859375	0.018865966796875	5449.36048524169
0.783233642578125	0.0189117431640625	5449.38261024163
0.78765869140625	0.01895751953125	5449.40473524158
0.792083740234375	0.0190032958984375	5449.42686024152
0.7965087890625	0.019049072265625	5449.44898524146
0.800933837890625	0.019091796875	5449.47111024141
0.80535888671875	0.019134521484375	5449.49323524135
0.809783935546875	0.01917724609375	5449.5153602413
0.814208984375	0.0192169189453125	5449.53748524124
0.818634033203125	0.019256591796875	5449.55961024118
0.82305908203125	0.0192962646484375	5449.58173524113
0.827484130859375	0.0193359375	5449.60386024107
0.8319091796875	0.01937255859375	5449.62598524102
0.836334228515625	0.0194091796875	5449.64811024096
0.84075927734375	0.01944580078125	5449.67023524091
0.845184326171875	0.019482421875	5449.69236024085
0.849609375	0.0195159912109375	5449.71448524079
0.854034423828125	0.019549560546875	5449.73661024074
0.85845947265625	0.0195831298828125	5449.75873524068
0.862884521484375	0.01961669921875	5449.78086024063
0.8673095703125	0.019647216796875	5449.80298524057
0.871734619140625	0.0196807861328125	5449.82511024051
0.87615966796875	0.01971435546875	5449.84723524046
0.880584716796875	0.019744873046875	5449.8693602404
0.885009765625	0.019775390625	5449.89148524035
0.889434814453125	0.019805908203125	5449.91361024029
0.89385986328125	0.01983642578125	5449.93573524023
0.898284912109375	0.019866943359375	5449.95786024018
0.9027099609375	0.0198944091796875	5449.97998524012
0.907135009765625	0.0199249267578125	5450.00211024007
0.91156005859375	0.0199554443359375	5450.02423524001
0.915985107421875	0.0199859619140625	5450.04636023996
0.92041015625	0.020013427734375	5450.0684852399
0.924835205078125	0.0200408935546875	5450.09061023984
0.92926025390625	0.0200714111328125	5450.11273523979
0.933685302734375	0.0201019287109375	5450.13486023973
0.9381103515625	0.0201324462890625	5450.15698523968
0.942535400390625	0.0201629638671875	5450.17911023962
0.94696044921875	0.0201934814453125	5450.20123523956
0.951385498046875	0.0202239990234375	5450.22336023951
0.955810546875	0.0202545166015625	5450.24548523945
0.960235595703125	0.0202850341796875	5450.2676102394
0.96466064453125	0.0203125	5450.28973523934
0.969085693359375	0.020343017578125	5450.31186023929
0.9735107421875	0.0203704833984375	5450.33398523923
0.977935791015625	0.020404052734375	5450.35611023917
0.98236083984375	0.0204345703125	5450.37823523912
0.986785888671875	0.02047119140625	5450.40036023906
0.9912109375	0.0205047607421875	5450.42248523901
0.995635986328125	0.0205413818359375	5450.44461023895
1.00006103515625	0.020574951171875	5450.46673523889
0.995635986328125	0.019805908203125	5450.48886023884
0.9912109375	0.019073486328125	5450.51098523878
0.986785888671875	0.0183685302734375	5450.53311023873
0.98236083984375	0.0176849365234375	5450.55523523867
0.977935791015625	0.01702880859375	5450.57736023862
0.9735107421875	0.016387939453125	5450.59948523856
0.969085693359375	0.0157623291015625	5450.6216102385
0.96466064453125	0.015155029296875	5450.64373523845
0.960235595703125	0.0145599365234375	5450.66586023839
0.955810546875	0.013983154296875	5450.68798523834
0.951385498046875	0.01341552734375	5450.71011023828
0.94696044921875	0.012860107421875	5450.73223523822
0.942535400390625	0.012322998046875	5450.75436023817
0.9381103515625	0.0117889404296875	5450.77648523811
0.933685302734375	0.01126708984375	5450.79861023806
0.92926025390625	0.0107635498046875	5450.820735238
0.924835205078125	0.0102630615234375	5450.84286023794
0.92041015625	0.0097747802734375	5450.86498523789
0.915985107421875	0.0092987060546875	5450.88711023783
0.91156005859375	0.0088287353515625	5450.90923523778
0.907135009765625	0.008367919921875	5450.93136023772
0.9027099609375	0.0079132080078125	5450.95348523767
0.898284912109375	0.0074737548828125	5450.97561023761
0.89385986328125	0.007037353515625	5450.99773523755
0.889434814453125	0.006610107421875	5451.0198602375
0.885009765625	0.0061920166015625	5451.04198523744
0.880584716796875	0.0057769775390625	5451.06411023739
0.87615966796875	0.00537109375	5451.08623523733
0.871734619140625	0.00497283935546875	5451.10836023727
0.8673095703125	0.0045819091796875	5451.13048523722
0.862884521484375	0.0041961669921875	5451.15261023716
0.85845947265625	0.00381927490234375	5451.17473523711
0.854034423828125	0.0034466552734375	5451.19686023705
0.849609375	0.0030841064453125	5451.21898523699
0.845184326171875	0.0027227783203125	5451.24111023694
0.84075927734375	0.00236785888671875	5451.26323523688
0.836334228515625	0.00201873779296875	5451.28536023683
0.8319091796875	0.00167510986328125	5451.30748523677
0.827484130859375	0.0013372802734375	5451.32961023672
0.82305908203125	0.00100494384765625	5451.35173523666
0.818634033203125	0.000677490234375	5451.3738602366
0.814208984375	0.000354888916015625	5451.39598523655
0.809783935546875	3.780517578125E-05	5451.41811023649
0.80535888671875	-0.000274261474609375	5451.44023523644
0.800933837890625	-0.0005810546875	5451.46236023638
0.7965087890625	-0.00088348388671875	5451.48448523632
0.792083740234375	-0.00118133544921875	5451.50661023627
0.78765869140625	-0.00147430419921875	5451.52873523621
0.783233642578125	-0.00176239013671875	5451.55086023616
0.77880859375	-0.0020458984375	5451.5729852361
0.774383544921875	-0.0023260498046875	5451.59511023605
0.76995849609375	-0.00260101318359375	5451.61723523599
0.765533447265625	-0.0028717041015625	5451.63936023593
0.7611083984375	-0.003138427734375	5451.66148523588
0.756683349609375	-0.0034014892578125	5451.68361023582
0.75225830078125	-0.0036602783203125	5451.70573523577
0.747833251953125	-0.00391510009765625	5451.72786023571
0.743408203125	-0.00416656494140625	5451.74998523565
0.738983154296875	-0.0044110107421875	5451.7721102356
0.73455810546875	-0.00465484619140625	5451.79423523554
0.730133056640625	-0.004893798828125	5451.81636023549
0.7257080078125	-0.0051300048828125	5451.83848523543
0.721282958984375	-0.0053619384765625	5451.86061023538
0.71685791015625	-0.0055902099609375	5451.88273523532
0.712432861328125	-0.0058154296875	5451.90486023526
0.7080078125	-0.00603668212890625	5451.92698523521
0.703582763671875	-0.006231689453125	5451.94911023515
0.69915771484375	-0.0064453125	5451.9712352351
0.694732666015625	-0.0066558837890625	5451.99336023504
0.6903076171875	-0.006866455078125	5452.01548523498
0.685882568359375	-0.0070709228515625	5452.03761023493
0.68145751953125	-0.0072723388671875	5452.05973523487
0.677032470703125	-0.007470703125	5452.08186023482
0.672607421875	-0.007666015625	5452.10398523476
0.668182373046875	-0.007855224609375	5452.12611023471
0.66375732421875	-0.00804443359375	5452.14823523465
0.659332275390625	-0.0082305908203125	5452.17036023459
0.6549072265625	-0.008416748046875	5452.19248523454
0.650482177734375	-0.0085968017578125	5452.21461023448
0.64605712890625	-0.0087738037109375	5452.23673523443
0.641632080078125	-0.0089508056640625	5452.25886023437
0.63720703125	-0.009124755859375	5452.28098523431
0.632781982421875	-0.009295654296875	5452.30311023426
0.62835693359375	-0.00946044921875	5452.3252352342
0.623931884765625	-0.0096282958984375	5452.34736023415
0.6195068359375	-0.0097930908203125	5452.36948523409
0.615081787109375	-0.009954833984375	5452.39161023403
0.61065673828125	-0.0101104736328125	5452.41373523398
0.606231689453125	-0.01026611328125	5452.43586023392
0.601806640625	-0.010418701171875	5452.45798523387
0.597381591796875	-0.0105712890625	5452.48011023381
0.59295654296875	-0.0107208251953125	5452.50223523376
0.588531494140625	-0.0108673095703125	5452.5243602337
0.5841064453125	-0.011004638671875	5452.54648523364
0.579681396484375	-0.0111480712890625	5452.56861023359
0.57525634765625	-0.0112884521484375	5452.59073523353
0.570831298828125	-0.0114288330078125	5452.61286023348
0.56640625	-0.011566162109375	5452.63498523342
0.561981201171875	-0.011700439453125	5452.65711023336
0.55755615234375	-0.0118316650390625	5452.67923523331
0.553131103515625	-0.011962890625	5452.70136023325
0.5487060546875	-0.0120941162109375	5452.7234852332
0.544281005859375	-0.01221923828125	5452.74561023314
0.53985595703125	-0.0123443603515625	5452.76773523308
0.535430908203125	-0.012469482421875	5452.78986023303
0.531005859375	-0.012591552734375	5452.81198523297
0.526580810546875	-0.0127105712890625	5452.83411023292
0.52215576171875	-0.01282958984375	5452.85623523286
0.517730712890625	-0.012945556640625	5452.87836023281
0.5133056640625	-0.0130615234375	5452.90048523275
0.508880615234375	-0.0131805419921875	5452.92261023269
0.50445556640625	-0.0132904052734375	5452.94473523264
0.500030517578125	-0.0134033203125	5452.96686023258
0.49560546875	-0.01351318359375	5452.98898523253
0.491180419921875	-0.0136260986328125	5453.01111023247
0.48675537109375	-0.01373291015625	5453.03323523241
0.482330322265625	-0.0138427734375	5453.05536023236
0.4779052734375	-0.013946533203125	5453.0774852323
0.473480224609375	-0.01405029296875	5453.09961023225
0.46905517578125	-0.0141510009765625	5453.12173523219
0.464630126953125	-0.014251708984375	5453.14386023214
0.460205078125	-0.0143524169921875	5453.16598523208
0.455780029296875	-0.0144500732421875	5453.18811023202
0.45135498046875	-0.0145477294921875	5453.21023523197
0.446929931640625	-0.0146453857421875	5453.23236023191
0.4425048828125	-0.0147430419921875	5453.25448523186
0.438079833984375	-0.014837646484375	5453.2766102318
0.43365478515625	-0.0149322509765625	5453.29873523174
0.429229736328125	-0.01502685546875	5453.32086023169
0.4248046875	-0.015118408203125	5453.34298523163
0.420379638671875	-0.0152099609375	5453.36511023158
0.41595458984375	-0.015301513671875	5453.38723523152
0.411529541015625	-0.0153900146484375	5453.40936023147
0.4071044921875	-0.015478515625	5453.43148523141
0.402679443359375	-0.0155670166015625	5453.45361023135
0.39825439453125	-0.0156524658203125	5453.4757352313
0.393829345703125	-0.0157379150390625	5453.49786023124
0.389404296875	-0.0158203125	5453.51998523119
0.384979248046875	-0.01590576171875	5453.54211023113
0.38055419921875	-0.0159912109375	5453.56423523107
0.376129150390625	-0.0160736083984375	5453.58636023102
0.3717041015625	-0.016156005859375	5453.60848523096
0.367279052734375	-0.0162384033203125	5453.63061023091
0.36285400390625	-0.0163177490234375	5453.65273523085
0.358428955078125	-0.0163970947265625	5453.67486023079
0.35400390625	-0.0164794921875	5453.69698523074
0.349578857421875	-0.0165557861328125	5453.71911023068
0.34515380859375	-0.0166351318359375	5453.74123523063
0.340728759765625	-0.01671142578125	5453.76336023057
0.3363037109375	-0.016790771484375	5453.78548523052
0.331878662109375	-0.0168670654296875	5453.80761023046
0.32745361328125	-0.0169464111328125	5453.8297352304
0.323028564453125	-0.0170196533203125	5453.85186023035
0.318603515625	-0.017095947265625	5453.87398523029
0.314178466796875	-0.017169189453125	5453.89611023024
0.30975341796875	-0.0172454833984375	5453.91823523018
0.305328369140625	-0.0173187255859375	5453.94036023012
0.3009033203125	-0.0173919677734375	5453.96248523007
0.296478271484375	-0.0174652099609375	5453.98461023001
0.29205322265625	-0.0175384521484375	5454.00673522996
0.287628173828125	-0.0176116943359375	5454.0288602299
0.283203125	-0.017681884765625	5454.05098522984
0.278778076171875	-0.017755126953125	5454.07311022979
0.27435302734375	-0.0178253173828125	5454.09523522973
0.269927978515625	-0.0178955078125	5454.11736022968
0.2655029296875	-0.017962646484375	5454.13948522962
0.261077880859375	-0.0180328369140625	5454.16161022957
0.25665283203125	-0.01810302734375	5454.18373522951
0.252227783203125	-0.018170166015625	5454.20586022945
0.247802734375	-0.0182403564453125	5454.2279852294
0.243377685546875	-0.0183074951171875	5454.25011022934
0.23895263671875	-0.0183746337890625	5454.27223522929
0.234527587890625	-0.0184417724609375	5454.29436022923
0.2301025390625	-0.018505859375	5454.31648522917
0.225677490234375	-0.018572998046875	5454.33861022912
0.22125244140625	-0.0186370849609375	5454.36073522906
0.216827392578125	-0.018701171875	5454.38286022901
0.21240234375	-0.0187652587890625	5454.40498522895
0.207977294921875	-0.018829345703125	5454.42711022889
0.20355224609375	-0.018890380859375	5454.44923522884
0.199127197265625	-0.0189544677734375	5454.47136022878
0.1947021484375	-0.0190155029296875	5454.49348522873
0.190277099609375	-0.01907958984375	5454.51561022867
0.18585205078125	-0.019140625	5454.53773522862
0.181427001953125	-0.01920166015625	5454.55986022856
0.177001953125	-0.0192596435546875	5454.5819852285
0.172576904296875	-0.0193206787109375	5454.60411022845
0.16815185546875	-0.0193817138671875	5454.62623522839
0.163726806640625	-0.019439697265625	5454.64836022834
0.1593017578125	-0.01949462890625	5454.67048522828
0.154876708984375	-0.0195526123046875	5454.69261022823
0.15045166015625	-0.0196075439453125	5454.71473522817
0.146026611328125	-0.01966552734375	5454.73686022811
0.1416015625	-0.019720458984375	5454.75898522806
0.137176513671875	-0.019775390625	5454.781110228
0.13275146484375	-0.019830322265625	5454.80323522795
0.128326416015625	-0.01988525390625	5454.82536022789
0.1239013671875	-0.0199371337890625	5454.84748522783
0.119476318359375	-0.0199920654296875	5454.86961022778
0.11505126953125	-0.0200408935546875	5454.89173522772
0.110626220703125	-0.0200927734375	5454.91386022767
0.106201171875	-0.0201446533203125	5454.93598522761
0.101776123046875	-0.020196533203125	5454.95811022756
0.09735107421875	-0.020245361328125	5454.9802352275
0.092926025390625	-0.020294189453125	5455.00236022744
0.0885009765625	-0.0203399658203125	5455.02448522739
0.084075927734375	-0.0203887939453125	5455.04661022733
0.07965087890625	-0.0204376220703125	5455.06873522728
0.075225830078125	-0.0204833984375	5455.09086022722
0.07080078125	-0.0205322265625	5455.11298522716
0.066375732421875	-0.0205780029296875	5455.13511022711
0.06195068359375	-0.020623779296875	5455.15723522705
0.057525634765625	-0.020672607421875	5455.179360227
0.0531005859375	-0.0207183837890625	5455.20148522694
0.048675537109375	-0.0207611083984375	5455.22361022688
0.04425048828125	-0.020806884765625	5455.24573522683
0.039825439453125	-0.0208526611328125	5455.26786022677
0.035400390625	-0.0208953857421875	5455.28998522672
0.030975341796875	-0.020941162109375	5455.31211022666
0.02655029296875	-0.02098388671875	5455.33423522661
0.022125244140625	-0.021026611328125	5455.35636022655
0.0177001953125	-0.0210723876953125	5455.37848522649
0.013275146484375	-0.021112060546875	5455.40061022644
0.00885009765625	-0.02115478515625	5455.42273522638
0.004425048828125	-0.021197509765625	5455.44486022633
0	-0.021240234375	5455.46698522627
0.004425048828125	-0.0204742431640625	5455.48911022621
0.00885009765625	-0.019744873046875	5455.51123522616
0.013275146484375	-0.0190399169921875	5455.5333602261
0.0177001953125	-0.018359375	5455.55548522605
0.022125244140625	-0.017694091796875	5455.57761022599
0.02655029296875	-0.01705322265625	5455.59973522593
0.030975341796875	-0.0164215087890625	5455.62186022588
0.035400390625	-0.01580810546875	5455.64398522582
0.039825439453125	-0.0152099609375	5455.66611022577
0.04425048828125	-0.0146240234375	5455.68823522571
0.048675537109375	-0.01405029296875	5455.71036022566
0.0531005859375	-0.01348876953125	5455.7324852256
0.057525634765625	-0.012939453125	5455.75461022554
0.06195068359375	-0.01240234375	5455.77673522549
0.066375732421875	-0.0118743896484375	5455.79886022543
0.07080078125	-0.0113555908203125	5455.82098522538
0.075225830078125	-0.0108489990234375	5455.84311022532
0.07965087890625	-0.0103515625	5455.86523522526
0.084075927734375	-0.00986328125	5455.88736022521
0.0885009765625	-0.009381103515625	5455.90948522515
0.092926025390625	-0.0089111328125	5455.9316102251
0.09735107421875	-0.0084503173828125	5455.95373522504
0.101776123046875	-0.0079925537109375	5455.97586022498
0.106201171875	-0.007550048828125	5455.99798522493
0.110626220703125	-0.007110595703125	5456.02011022487
0.11505126953125	-0.0066802978515625	5456.04223522482
0.119476318359375	-0.006256103515625	5456.06436022476
0.1239013671875	-0.0058380126953125	5456.08648522471
0.128326416015625	-0.0054290771484375	5456.10861022465
0.13275146484375	-0.0050262451171875	5456.13073522459
0.137176513671875	-0.00463165283203125	5456.15286022454
0.1416015625	-0.0042425537109375	5456.17498522448
0.146026611328125	-0.00385955810546875	5456.19711022443
0.15045166015625	-0.003482666015625	5456.21923522437
0.154876708984375	-0.00311126708984375	5456.24136022432
0.1593017578125	-0.002757568359375	5456.26348522426
0.163726806640625	-0.0023974609375	5456.2856102242
0.16815185546875	-0.00204254150390625	5456.30773522415
0.172576904296875	-0.00169464111328125	5456.32986022409
0.177001953125	-0.001351318359375	5456.35198522404
0.181427001953125	-0.0010137939453125	5456.37411022398
0.18585205078125	-0.00068206787109375	5456.39623522392
0.190277099609375	-0.000354461669921875	5456.41836022387
0.1947021484375	-3.2623291015625E-05	5456.44048522381
0.199127197265625	0.000283905029296875	5456.46261022376
0.20355224609375	0.00059600830078125	5456.4847352237
0.207977294921875	0.00090362548828125	5456.50686022364
0.21240234375	0.00120635986328125	5456.52898522359
0.216827392578125	0.0015045166015625	5456.55111022353
0.22125244140625	0.0017987060546875	5456.57323522348
0.225677490234375	0.0020880126953125	5456.59536022342
0.2301025390625	0.0023724365234375	5456.61748522337
0.234527587890625	0.0026519775390625	5456.63961022331
0.23895263671875	0.00292816162109375	5456.66173522325
0.243377685546875	0.00320037841796875	5456.6838602232
0.247802734375	0.00346710205078125	5456.70598522314
0.252227783203125	0.003731689453125	5456.72811022309
0.25665283203125	0.00399200439453125	5456.75023522303
0.261077880859375	0.004249267578125	5456.77236022297
0.2655029296875	0.00450164794921875	5456.79448522292
0.269927978515625	0.00475006103515625	5456.81661022286
0.27435302734375	0.0049945068359375	5456.83873522281
0.278778076171875	0.0052362060546875	5456.86086022275
0.283203125	0.00547393798828125	5456.88298522269
0.287628173828125	0.00570892333984375	5456.90511022264
0.29205322265625	0.00594024658203125	5456.92723522258
0.296478271484375	0.00616851806640625	5456.94936022253
0.3009033203125	0.0063812255859375	5456.97148522247
0.305328369140625	0.00660400390625	5456.99361022242
0.30975341796875	0.0068206787109375	5457.01573522236
0.314178466796875	0.007037353515625	5457.0378602223
0.318603515625	0.0072509765625	5457.05998522225
0.323028564453125	0.00745849609375	5457.08211022219
0.32745361328125	0.0076629638671875	5457.10423522214
0.331878662109375	0.007861328125	5457.12636022208
0.3363037109375	0.008062744140625	5457.14848522202
0.340728759765625	0.008258056640625	5457.17061022197
0.34515380859375	0.008453369140625	5457.19273522191
0.349578857421875	0.008642578125	5457.21486022186
0.35400390625	0.0088287353515625	5457.2369852218
0.358428955078125	0.009014892578125	5457.25911022174
0.36285400390625	0.009197998046875	5457.28123522169
0.367279052734375	0.0093780517578125	5457.30336022163
0.3717041015625	0.0095550537109375	5457.32548522158
0.376129150390625	0.00972900390625	5457.34761022152
0.38055419921875	0.0099029541015625	5457.36973522147
0.384979248046875	0.0100738525390625	5457.39186022141
0.389404296875	0.01024169921875	5457.41398522135
0.393829345703125	0.010406494140625	5457.4361102213
0.39825439453125	0.0105682373046875	5457.45823522124
0.402679443359375	0.0107330322265625	5457.48036022119
0.4071044921875	0.0108917236328125	5457.50248522113
0.411529541015625	0.0110443115234375	5457.52461022107
0.41595458984375	0.011199951171875	5457.54673522102
0.420379638671875	0.0113525390625	5457.56886022096
0.4248046875	0.0115020751953125	5457.59098522091
0.429229736328125	0.011651611328125	5457.61311022085
0.43365478515625	0.0117950439453125	5457.6352352208
0.438079833984375	0.0119415283203125	5457.65736022074
0.4425048828125	0.0120849609375	5457.67948522068
0.446929931640625	0.012225341796875	5457.70161022063
0.45135498046875	0.0123626708984375	5457.72373522057
0.455780029296875	0.0125	5457.74586022052
0.460205078125	0.01263427734375	5457.76798522046
0.464630126953125	0.0127655029296875	5457.79011022041
0.46905517578125	0.012896728515625	5457.81223522035
0.473480224609375	0.0130279541015625	5457.83436022029
0.4779052734375	0.0131561279296875	5457.85648522024
0.482330322265625	0.01328125	5457.87861022018
0.48675537109375	0.0134063720703125	5457.90073522013
0.491180419921875	0.013531494140625	5457.92286022007
0.49560546875	0.0136505126953125	5457.94498522001
0.500030517578125	0.0137725830078125	5457.96711021996
0.50445556640625	0.0138916015625	5457.9892352199
0.508880615234375	0.0140106201171875	5458.01136021985
0.5133056640625	0.0141204833984375	5458.03348521979
0.517730712890625	0.0142364501953125	5458.05561021973
0.52215576171875	0.0143463134765625	5458.07773521968
0.526580810546875	0.014459228515625	5458.09986021962
0.531005859375	0.014569091796875	5458.12198521957
0.535430908203125	0.0146759033203125	5458.14411021951
0.53985595703125	0.0147857666015625	5458.16623521946
0.544281005859375	0.0148895263671875	5458.1883602194
0.5487060546875	0.0149932861328125	5458.21048521934
0.553131103515625	0.01510009765625	5458.23261021929
0.55755615234375	0.0152008056640625	5458.25473521923
0.561981201171875	0.015301513671875	5458.27686021918
0.56640625	0.015399169921875	5458.29898521912
0.570831298828125	0.0154998779296875	5458.32111021906
0.57525634765625	0.015594482421875	5458.34323521901
0.579681396484375	0.0156890869140625	5458.36536021895
0.5841064453125	0.0157806396484375	5458.3874852189
0.588531494140625	0.0158721923828125	5458.40961021884
0.59295654296875	0.0159637451171875	5458.43173521878
0.597381591796875	0.0160552978515625	5458.45386021873
0.601806640625	0.01614990234375	5458.47598521867
0.606231689453125	0.0162384033203125	5458.49811021862
0.61065673828125	0.016326904296875	5458.52023521856
0.615081787109375	0.016412353515625	5458.54236021851
0.6195068359375	0.016497802734375	5458.56448521845
0.623931884765625	0.0165802001953125	5458.58661021839
0.62835693359375	0.016668701171875	5458.60873521834
0.632781982421875	0.0167510986328125	5458.63086021828
0.63720703125	0.01683349609375	5458.65298521823
0.641632080078125	0.016912841796875	5458.67511021817
0.64605712890625	0.0169921875	5458.69723521811
0.650482177734375	0.0170684814453125	5458.71936021806
0.6549072265625	0.0171478271484375	5458.741485218
0.659332275390625	0.017218017578125	5458.76361021795
0.66375732421875	0.0172943115234375	5458.78573521789
0.668182373046875	0.017364501953125	5458.80786021783
0.672607421875	0.017437744140625	5458.82998521778
0.677032470703125	0.017510986328125	5458.85211021772
0.68145751953125	0.0175811767578125	5458.87423521767
0.685882568359375	0.0176513671875	5458.89636021761
0.6903076171875	0.017718505859375	5458.91848521756
0.694732666015625	0.0177886962890625	5458.9406102175
0.69915771484375	0.017852783203125	5458.96273521744
0.703582763671875	0.0179168701171875	5458.98486021739
0.7080078125	0.01798095703125	5459.00698521733
0.712432861328125	0.0180450439453125	5459.02911021728
0.71685791015625	0.0181060791015625	5459.05123521722
0.721282958984375	0.0181671142578125	5459.07336021716
0.7257080078125	0.0182281494140625	5459.09548521711
0.730133056640625	0.0182891845703125	5459.11761021705
0.73455810546875	0.01834716796875	5459.139735217
0.738983154296875	0.018402099609375	5459.16186021694
0.743408203125	0.0184600830078125	5459.18398521689
0.747833251953125	0.018511962890625	5459.20611021683
0.75225830078125	0.01856689453125	5459.22823521677
0.756683349609375	0.0186187744140625	5459.25036021672
0.7611083984375	0.018670654296875	5459.27248521666
0.765533447265625	0.0187225341796875	5459.29461021661
0.76995849609375	0.0187713623046875	5459.31673521655
0.774383544921875	0.018817138671875	5459.33886021649
0.77880859375	0.018865966796875	5459.36098521644
0.783233642578125	0.0189117431640625	5459.38311021638
0.78765869140625	0.0189605712890625	5459.40523521633
0.792083740234375	0.0190032958984375	5459.42736021627
0.7965087890625	0.019049072265625	5459.44948521622
0.800933837890625	0.019091796875	5459.47161021616
0.80535888671875	0.019134521484375	5459.4937352161
0.809783935546875	0.0191741943359375	5459.51586021605
0.814208984375	0.0192138671875	5459.53798521599
0.818634033203125	0.0192535400390625	5459.56011021594
0.82305908203125	0.019293212890625	5459.58223521588
0.827484130859375	0.0193328857421875	5459.60436021582
0.8319091796875	0.0193695068359375	5459.62648521577
0.836334228515625	0.0194061279296875	5459.64861021571
0.84075927734375	0.0194427490234375	5459.67073521566
0.845184326171875	0.019476318359375	5459.6928602156
0.849609375	0.0195098876953125	5459.71498521554
0.854034423828125	0.01954345703125	5459.73711021549
0.85845947265625	0.0195770263671875	5459.75923521543
0.862884521484375	0.0196075439453125	5459.78136021538
0.8673095703125	0.01964111328125	5459.80348521532
0.871734619140625	0.019671630859375	5459.82561021527
0.87615966796875	0.0197021484375	5459.84773521521
0.880584716796875	0.019732666015625	5459.86986021515
0.885009765625	0.0197662353515625	5459.8919852151
0.889434814453125	0.0197967529296875	5459.91411021504
0.89385986328125	0.0198272705078125	5459.93623521499
0.898284912109375	0.019854736328125	5459.95836021493
0.9027099609375	0.01988525390625	5459.98048521487
0.907135009765625	0.0199127197265625	5460.00261021482
0.91156005859375	0.0199432373046875	5460.02473521476
0.915985107421875	0.019970703125	5460.04686021471
0.92041015625	0.020001220703125	5460.06898521465
0.924835205078125	0.0200286865234375	5460.09111021459
0.92926025390625	0.0200592041015625	5460.11323521454
0.933685302734375	0.0200897216796875	5460.13536021448
0.9381103515625	0.0201202392578125	5460.15748521443
0.942535400390625	0.0201507568359375	5460.17961021437
0.94696044921875	0.02017822265625	5460.20173521432
0.951385498046875	0.020208740234375	5460.22386021426
0.955810546875	0.0202392578125	5460.2459852142
0.960235595703125	0.020269775390625	5460.26811021415
0.96466064453125	0.02030029296875	5460.29023521409
0.969085693359375	0.0203277587890625	5460.31236021404
0.9735107421875	0.0203582763671875	5460.33448521398
0.977935791015625	0.0203887939453125	5460.35661021392
0.98236083984375	0.02042236328125	5460.37873521387
0.986785888671875	0.0204559326171875	5460.40086021381
0.9912109375	0.020489501953125	5460.42298521376
