Time (s)	WE(1).Potential (V)
2669.78473925944	0.076629638671875
2670.78473925692	0.19378662109375
2671.78473925439	0.3013916015625
2672.78473925187	0.39935302734375
2673.78473924934	0.486541748046875
2674.78473924682	0.56549072265625
2675.78473924429	0.64117431640625
2676.78473924177	0.7177734375
2677.78473923924	0.794677734375
2678.78473923672	0.86761474609375
2679.78473923419	0.93231201171875
2680.78473923167	0.9844970703125
2681.78473922914	1.02447509765625
