Potential applied (V)	WE(1).Current (A)	Time (s)
0.004425048828125	-0.0668060302734375	4861.00617072714
0.00885009765625	-0.05518798828125	4861.22742272658
0.013275146484375	-0.046392822265625	4861.44867472602
0.0177001953125	-0.0394134521484375	4861.66992672546
0.022125244140625	-0.0337646484375	4861.8911787249
0.02655029296875	-0.0291107177734375	4862.11243072435
0.030975341796875	-0.0252227783203125	4862.33368272379
0.035400390625	-0.0219390869140625	4862.55493472323
0.039825439453125	-0.0191375732421875	4862.77618672267
0.04425048828125	-0.0167327880859375	4862.99743872211
0.048675537109375	-0.01466064453125	4863.21869072155
0.0531005859375	-0.0128662109375	4863.43994272099
0.057525634765625	-0.0113037109375	4863.66119472044
0.06195068359375	-0.0099395751953125	4863.88244671988
0.066375732421875	-0.008746337890625	4864.10369871932
0.07080078125	-0.0076995849609375	4864.32495071876
0.075225830078125	-0.0067718505859375	4864.5462027182
0.07965087890625	-0.0059539794921875	4864.76745471764
0.084075927734375	-0.0052276611328125	4864.98870671708
0.0885009765625	-0.00458343505859375	4865.20995871653
0.092926025390625	-0.0040081787109375	4865.43121071597
0.09735107421875	-0.0034942626953125	4865.65246271541
0.101776123046875	-0.00303375244140625	4865.87371471485
0.106201171875	-0.00261993408203125	4866.09496671429
0.110626220703125	-0.00225738525390625	4866.31621871373
0.11505126953125	-0.00192108154296875	4866.53747071317
0.119476318359375	-0.00161865234375	4866.75872271262
0.1239013671875	-0.00134307861328125	4866.97997471206
0.128326416015625	-0.00109375	4867.2012267115
0.13275146484375	-0.00086639404296875	4867.42247871094
0.137176513671875	-0.0006591796875	4867.64373071038
0.1416015625	-0.000470611572265625	4867.86498270982
0.146026611328125	-0.000298126220703125	4868.08623470926
0.15045166015625	-0.000139984130859375	4868.30748670871
0.154876708984375	5.230712890625E-06	4868.52873870815
0.1593017578125	0.00013775634765625	4868.74999070759
0.163726806640625	0.000260498046875	4868.97124270703
0.16815185546875	0.00037359619140625	4869.19249470647
0.172576904296875	0.000478240966796875	4869.41374670591
0.177001953125	0.000574798583984375	4869.63499870535
0.181427001953125	0.00066424560546875	4869.85625070479
0.18585205078125	0.0007476806640625	4870.07750270424
0.190277099609375	0.00082550048828125	4870.29875470368
0.1947021484375	0.0008978271484375	4870.52000670312
0.199127197265625	0.00096466064453125	4870.74125870256
0.20355224609375	0.00102813720703125	4870.962510702
0.207977294921875	0.0010870361328125	4871.18376270144
0.21240234375	0.0011419677734375	4871.40501470088
0.216827392578125	0.00119415283203125	4871.62626670033
0.22125244140625	0.00124298095703125	4871.84751869977
0.225677490234375	0.00128875732421875	4872.06877069921
0.2301025390625	0.0013323974609375	4872.29002269865
0.234527587890625	0.0013720703125	4872.51127469809
0.23895263671875	0.0014111328125	4872.73252669753
0.243377685546875	0.001448974609375	4872.95377869697
0.247802734375	0.001484375	4873.17503069642
0.252227783203125	0.00151824951171875	4873.39628269586
0.25665283203125	0.00155059814453125	4873.6175346953
0.261077880859375	0.00158111572265625	4873.83878669474
0.2655029296875	0.0016107177734375	4874.06003869418
0.269927978515625	0.001639404296875	4874.28129069362
0.27435302734375	0.00166595458984375	4874.50254269306
0.278778076171875	0.001693115234375	4874.72379469251
0.283203125	0.00171783447265625	4874.94504669195
0.287628173828125	0.001741943359375	4875.16629869139
0.29205322265625	0.00176513671875	4875.38755069083
0.296478271484375	0.00178741455078125	4875.60880269027
0.3009033203125	0.00180877685546875	4875.83005468971
0.305328369140625	0.00182952880859375	4876.05130668915
0.30975341796875	0.0018499755859375	4876.2725586886
0.314178466796875	0.00187164306640625	4876.49381068804
0.318603515625	0.00188995361328125	4876.71506268748
0.323028564453125	0.001907958984375	4876.93631468692
0.32745361328125	0.00192596435546875	4877.15756668636
0.331878662109375	0.00194366455078125	4877.3788186858
0.3363037109375	0.00196075439453125	4877.60007068524
0.340728759765625	0.001976318359375	4877.82132268468
0.34515380859375	0.00199310302734375	4878.04257468413
0.349578857421875	0.00200927734375	4878.26382668357
0.35400390625	0.00202362060546875	4878.48507868301
0.358428955078125	0.00203948974609375	4878.70633068245
0.36285400390625	0.002054443359375	4878.92758268189
0.367279052734375	0.00207000732421875	4879.14883468133
0.3717041015625	0.00208465576171875	4879.37008668077
0.376129150390625	0.00209869384765625	4879.59133868022
0.38055419921875	0.002113037109375	4879.81259067966
0.384979248046875	0.00212646484375	4880.0338426791
0.389404296875	0.002139892578125	4880.25509467854
0.393829345703125	0.00215240478515625	4880.47634667798
0.39825439453125	0.00216552734375	4880.69759867742
0.402679443359375	0.00217803955078125	4880.91885067686
0.4071044921875	0.0021905517578125	4881.14010267631
0.411529541015625	0.0022021484375	4881.36135467575
0.41595458984375	0.00221405029296875	4881.58260667519
0.420379638671875	0.00222564697265625	4881.80385867463
0.4248046875	0.00223663330078125	4882.02511067407
0.429229736328125	0.002247314453125	4882.24636267351
0.43365478515625	0.0022576904296875	4882.46761467295
0.438079833984375	0.00226776123046875	4882.6888666724
0.4425048828125	0.00227752685546875	4882.91011867184
0.446929931640625	0.00228668212890625	4883.13137067128
0.45135498046875	0.00229644775390625	4883.35262267072
0.455780029296875	0.00230560302734375	4883.57387467016
0.460205078125	0.0023138427734375	4883.7951266696
0.464630126953125	0.0023223876953125	4884.01637866904
0.46905517578125	0.00233001708984375	4884.23763066849
0.473480224609375	0.002337646484375	4884.45888266793
0.4779052734375	0.00234527587890625	4884.68013466737
0.482330322265625	0.002352294921875	4884.90138666681
0.48675537109375	0.0023590087890625	4885.12263866625
0.491180419921875	0.00236541748046875	4885.34389066569
0.49560546875	0.002371826171875	4885.56514266513
0.500030517578125	0.0023779296875	4885.78639466457
0.50445556640625	0.0023834228515625	4886.00764666402
0.508880615234375	0.0023883056640625	4886.22889866346
0.5133056640625	0.00239349365234375	4886.4501506629
0.517730712890625	0.00239776611328125	4886.67140266234
0.52215576171875	0.00240203857421875	4886.89265466178
0.526580810546875	0.00240631103515625	4887.11390666122
0.531005859375	0.00240997314453125	4887.33515866067
0.535430908203125	0.00241363525390625	4887.55641066011
0.53985595703125	0.0024163818359375	4887.77766265955
0.544281005859375	0.00241912841796875	4887.99891465899
0.5487060546875	0.00242095947265625	4888.22016665843
0.553131103515625	0.00242340087890625	4888.44141865787
0.55755615234375	0.0024249267578125	4888.66267065731
0.561981201171875	0.00242706298828125	4888.88392265675
0.56640625	0.0024285888671875	4889.1051746562
0.570831298828125	0.002430419921875	4889.32642665564
0.57525634765625	0.00243133544921875	4889.54767865508
0.579681396484375	0.00243255615234375	4889.76893065452
0.5841064453125	0.0024334716796875	4889.99018265396
0.588531494140625	0.002432861328125	4890.2114346534
0.59295654296875	0.00243408203125	4890.43268665284
0.597381591796875	0.002435302734375	4890.65393865229
0.601806640625	0.00243621826171875	4890.87519065173
0.606231689453125	0.00243682861328125	4891.09644265117
0.61065673828125	0.00243743896484375	4891.31769465061
0.615081787109375	0.0024383544921875	4891.53894665005
0.6195068359375	0.0024395751953125	4891.76019864949
0.623931884765625	0.002440185546875	4891.98145064893
0.62835693359375	0.0024444580078125	4892.20270264838
0.632781982421875	0.00244476318359375	4892.42395464782
0.63720703125	0.002445068359375	4892.64520664726
0.641632080078125	0.00244598388671875	4892.8664586467
0.64605712890625	0.002447509765625	4893.08771064614
0.650482177734375	0.0024481201171875	4893.30896264558
0.6549072265625	0.002449951171875	4893.53021464502
0.659332275390625	0.00245147705078125	4893.75146664446
0.66375732421875	0.00245330810546875	4893.97271864391
0.668182373046875	0.0024554443359375	4894.19397064335
0.672607421875	0.002457275390625	4894.41522264279
0.677032470703125	0.002459716796875	4894.63647464223
0.68145751953125	0.00246246337890625	4894.85772664167
0.685882568359375	0.0024652099609375	4895.07897864111
0.6903076171875	0.0024688720703125	4895.30023064056
0.694732666015625	0.00247222900390625	4895.52148264
0.69915771484375	0.0024761962890625	4895.74273463944
0.703582763671875	0.00247955322265625	4895.96398663888
0.7080078125	0.00248382568359375	4896.18523863832
0.712432861328125	0.00248870849609375	4896.40649063776
0.71685791015625	0.002493896484375	4896.6277426372
0.721282958984375	0.00249908447265625	4896.84899463664
0.7257080078125	0.00250457763671875	4897.07024663609
0.730133056640625	0.0025103759765625	4897.29149863553
0.73455810546875	0.00251708984375	4897.51275063497
0.738983154296875	0.0025238037109375	4897.73400263441
0.743408203125	0.00252960205078125	4897.95525463385
0.747833251953125	0.002537841796875	4898.17650663329
0.75225830078125	0.0025457763671875	4898.39775863273
0.756683349609375	0.00255462646484375	4898.61901063218
0.7611083984375	0.00256378173828125	4898.84026263162
0.765533447265625	0.0025738525390625	4899.06151463106
0.76995849609375	0.00258392333984375	4899.2827666305
0.774383544921875	0.0025946044921875	4899.50401862994
0.77880859375	0.002606201171875	4899.72527062938
0.783233642578125	0.00261749267578125	4899.94652262882
0.78765869140625	0.002630615234375	4900.16777462827
0.792083740234375	0.00264434814453125	4900.38902662771
0.7965087890625	0.00265838623046875	4900.61027862715
0.800933837890625	0.00267333984375	4900.83153062659
0.80535888671875	0.00268951416015625	4901.05278262603
0.809783935546875	0.002706298828125	4901.27403462547
0.814208984375	0.0027239990234375	4901.49528662491
0.818634033203125	0.002742919921875	4901.71653862436
0.82305908203125	0.00276275634765625	4901.9377906238
0.827484130859375	0.00278350830078125	4902.15904262324
0.8319091796875	0.00280517578125	4902.38029462268
0.836334228515625	0.00282806396484375	4902.60154662212
0.84075927734375	0.0028521728515625	4902.82279862156
0.845184326171875	0.00287750244140625	4903.044050621
0.849609375	0.002904052734375	4903.26530262045
0.854034423828125	0.00293182373046875	4903.48655461989
0.85845947265625	0.0029608154296875	4903.70780661933
0.862884521484375	0.0029901123046875	4903.92905861877
0.8673095703125	0.0030218505859375	4904.15031061821
0.871734619140625	0.00305450439453125	4904.37156261765
0.87615966796875	0.00308868408203125	4904.59281461709
0.880584716796875	0.003123779296875	4904.81406661653
0.885009765625	0.00316070556640625	4905.03531861598
0.889434814453125	0.00319854736328125	4905.25657061542
0.89385986328125	0.0032379150390625	4905.47782261486
0.898284912109375	0.00327789306640625	4905.6990746143
0.9027099609375	0.003319091796875	4905.92032661374
0.907135009765625	0.00336181640625	4906.14157861318
0.91156005859375	0.00340545654296875	4906.36283061262
0.915985107421875	0.00345001220703125	4906.58408261207
0.92041015625	0.0034954833984375	4906.80533461151
0.924835205078125	0.0035418701171875	4907.02658661095
0.92926025390625	0.0035888671875	4907.24783861039
0.933685302734375	0.003636474609375	4907.46909060983
0.9381103515625	0.0036871337890625	4907.69034260927
0.942535400390625	0.00373565673828125	4907.91159460871
0.94696044921875	0.00378448486328125	4908.13284660816
0.951385498046875	0.0038336181640625	4908.3540986076
0.955810546875	0.00388336181640625	4908.57535060704
0.960235595703125	0.0039324951171875	4908.79660260648
0.96466064453125	0.00398223876953125	4909.01785460592
0.969085693359375	0.00403106689453125	4909.23910660536
0.9735107421875	0.00407928466796875	4909.4603586048
0.977935791015625	0.00412628173828125	4909.68161060425
0.98236083984375	0.00417388916015625	4909.90286260369
0.986785888671875	0.0042205810546875	4910.12411460313
0.9912109375	0.00426605224609375	4910.34536660257
0.995635986328125	0.00431182861328125	4910.56661860201
1.00006103515625	0.00435546875	4910.78787060145
0.995635986328125	0.003748779296875	4911.00912260089
0.9912109375	0.00323028564453125	4911.23037460034
0.986785888671875	0.00277435302734375	4911.45162659978
0.98236083984375	0.00236724853515625	4911.67287859922
0.977935791015625	0.00199981689453125	4911.89413059866
0.9735107421875	0.001668701171875	4912.1153825981
0.969085693359375	0.0013641357421875	4912.33663459754
0.96466064453125	0.0010858154296875	4912.55788659698
0.960235595703125	0.0008294677734375	4912.77913859642
0.955810546875	0.00059356689453125	4913.00039059587
0.951385498046875	0.000374847412109375	4913.22164259531
0.94696044921875	0.000172576904296875	4913.44289459475
0.942535400390625	-1.51702880859375E-05	4913.66414659419
0.9381103515625	-0.000190399169921875	4913.88539859363
0.933685302734375	-0.000355621337890625	4914.10665059307
0.92926025390625	-0.000507904052734375	4914.32790259251
0.924835205078125	-0.0006497802734375	4914.54915459196
0.92041015625	-0.0007830810546875	4914.7704065914
0.915985107421875	-0.00090789794921875	4914.99165859084
0.91156005859375	-0.00102508544921875	4915.21291059028
0.907135009765625	-0.00113525390625	4915.43416258972
0.9027099609375	-0.00123931884765625	4915.65541458916
0.898284912109375	-0.00133697509765625	4915.8766665886
0.89385986328125	-0.00142852783203125	4916.09791858805
0.889434814453125	-0.0015155029296875	4916.31917058749
0.885009765625	-0.00159698486328125	4916.54042258693
0.880584716796875	-0.00167388916015625	4916.76167458637
0.87615966796875	-0.00174591064453125	4916.98292658581
0.871734619140625	-0.00181396484375	4917.20417858525
0.8673095703125	-0.00187835693359375	4917.42543058469
0.862884521484375	-0.0019390869140625	4917.64668258414
0.85845947265625	-0.00199462890625	4917.86793458358
0.854034423828125	-0.0020477294921875	4918.08918658302
0.849609375	-0.00209747314453125	4918.31043858246
0.845184326171875	-0.00214447021484375	4918.5316905819
0.84075927734375	-0.00218780517578125	4918.75294258134
0.836334228515625	-0.0022283935546875	4918.97419458078
0.8319091796875	-0.002266845703125	4919.19544658023
0.827484130859375	-0.0023016357421875	4919.41669857967
0.82305908203125	-0.0023345947265625	4919.63795057911
0.818634033203125	-0.002364501953125	4919.85920257855
0.814208984375	-0.002392578125	4920.08045457799
0.809783935546875	-0.002418212890625	4920.30170657743
0.80535888671875	-0.00244171142578125	4920.52295857687
0.800933837890625	-0.00246368408203125	4920.74421057631
0.7965087890625	-0.00248321533203125	4920.96546257576
0.792083740234375	-0.00250091552734375	4921.1867145752
0.78765869140625	-0.00251708984375	4921.40796657464
0.783233642578125	-0.00253143310546875	4921.62921857408
0.77880859375	-0.0025439453125	4921.85047057352
0.774383544921875	-0.0025555419921875	4922.07172257296
0.76995849609375	-0.00256561279296875	4922.29297457241
0.765533447265625	-0.002574462890625	4922.51422657185
0.7611083984375	-0.00258209228515625	4922.73547857129
0.756683349609375	-0.0025885009765625	4922.95673057073
0.75225830078125	-0.002593994140625	4923.17798257017
0.747833251953125	-0.00259857177734375	4923.39923456961
0.743408203125	-0.00260223388671875	4923.62048656905
0.738983154296875	-0.0026031494140625	4923.84173856849
0.73455810546875	-0.00260589599609375	4924.06299056794
0.730133056640625	-0.002607421875	4924.28424256738
0.7257080078125	-0.0026080322265625	4924.50549456682
0.721282958984375	-0.00260772705078125	4924.72674656626
0.71685791015625	-0.002607421875	4924.9479985657
0.712432861328125	-0.00260650634765625	4925.16925056514
0.7080078125	-0.00260498046875	4925.39050256458
0.703582763671875	-0.00260284423828125	4925.61175456403
0.69915771484375	-0.00259979248046875	4925.83300656347
0.694732666015625	-0.00259765625	4926.05425856291
0.6903076171875	-0.0025946044921875	4926.27551056235
0.685882568359375	-0.00259185791015625	4926.49676256179
0.68145751953125	-0.002589111328125	4926.71801456123
0.677032470703125	-0.00258636474609375	4926.93926656067
0.672607421875	-0.0025836181640625	4927.16051856012
0.668182373046875	-0.00258056640625	4927.38177055956
0.66375732421875	-0.0025775146484375	4927.603022559
0.659332275390625	-0.002574462890625	4927.82427455844
0.6549072265625	-0.002572021484375	4928.04552655788
0.650482177734375	-0.00256927490234375	4928.26677855732
0.64605712890625	-0.00256683349609375	4928.48803055676
0.641632080078125	-0.0025640869140625	4928.7092825562
0.63720703125	-0.00256195068359375	4928.93053455565
0.632781982421875	-0.00255950927734375	4929.15178655509
0.62835693359375	-0.00255767822265625	4929.37303855453
0.623931884765625	-0.00255889892578125	4929.59429055397
0.6195068359375	-0.0025567626953125	4929.81554255341
0.615081787109375	-0.00255523681640625	4930.03679455285
0.61065673828125	-0.00255340576171875	4930.2580465523
0.606231689453125	-0.00255279541015625	4930.47929855174
0.601806640625	-0.0025518798828125	4930.70055055118
0.597381591796875	-0.00255126953125	4930.92180255062
0.59295654296875	-0.00255126953125	4931.14305455006
0.588531494140625	-0.00255157470703125	4931.3643065495
0.5841064453125	-0.0025506591796875	4931.58555854894
0.579681396484375	-0.00255126953125	4931.80681054838
0.57525634765625	-0.00255279541015625	4932.02806254783
0.570831298828125	-0.00255401611328125	4932.24931454727
0.56640625	-0.00255615234375	4932.47056654671
0.561981201171875	-0.0025579833984375	4932.69181854615
0.55755615234375	-0.00256072998046875	4932.91307054559
0.553131103515625	-0.00256317138671875	4933.13432254503
0.5487060546875	-0.00256622314453125	4933.35557454447
0.544281005859375	-0.002568359375	4933.57682654392
0.53985595703125	-0.002572021484375	4933.79807854336
0.535430908203125	-0.00257598876953125	4934.0193305428
0.531005859375	-0.00258056640625	4934.24058254224
0.526580810546875	-0.00258514404296875	4934.46183454168
0.52215576171875	-0.00259002685546875	4934.68308654112
0.517730712890625	-0.00259521484375	4934.90433854056
0.5133056640625	-0.00260040283203125	4935.12559054001
0.508880615234375	-0.002606201171875	4935.34684253945
0.50445556640625	-0.0026116943359375	4935.56809453889
0.500030517578125	-0.0026177978515625	4935.78934653833
0.49560546875	-0.00262451171875	4936.01059853777
0.491180419921875	-0.0026312255859375	4936.23185053721
0.48675537109375	-0.00263824462890625	4936.45310253665
0.482330322265625	-0.00264495849609375	4936.6743545361
0.4779052734375	-0.0026519775390625	4936.89560653554
0.473480224609375	-0.0026593017578125	4937.11685853498
0.46905517578125	-0.00266693115234375	4937.33811053442
0.464630126953125	-0.0026739501953125	4937.55936253386
0.460205078125	-0.0026812744140625	4937.7806145333
0.455780029296875	-0.00268890380859375	4938.00186653274
0.45135498046875	-0.0026971435546875	4938.22311853219
0.446929931640625	-0.00270477294921875	4938.44437053163
0.4425048828125	-0.00271270751953125	4938.66562253107
0.438079833984375	-0.0027203369140625	4938.88687453051
0.43365478515625	-0.0027276611328125	4939.10812652995
0.429229736328125	-0.0027349853515625	4939.32937852939
0.4248046875	-0.0027423095703125	4939.55063052883
0.420379638671875	-0.0027490234375	4939.77188252827
0.41595458984375	-0.0027557373046875	4939.99313452772
0.411529541015625	-0.002762451171875	4940.21438652716
0.4071044921875	-0.00276885986328125	4940.4356385266
0.402679443359375	-0.00277496337890625	4940.65689052604
0.39825439453125	-0.00278045654296875	4940.87814252548
0.393829345703125	-0.00278594970703125	4941.09939452492
0.389404296875	-0.00279052734375	4941.32064652436
0.384979248046875	-0.00279571533203125	4941.54189852381
0.38055419921875	-0.00280029296875	4941.76315052325
0.376129150390625	-0.00280548095703125	4941.98440252269
0.3717041015625	-0.0028094482421875	4942.20565452213
0.367279052734375	-0.00281280517578125	4942.42690652157
0.36285400390625	-0.00281646728515625	4942.64815852101
0.358428955078125	-0.00281951904296875	4942.86941052045
0.35400390625	-0.0028228759765625	4943.0906625199
0.349578857421875	-0.0028240966796875	4943.31191451934
0.34515380859375	-0.00282684326171875	4943.53316651878
0.340728759765625	-0.00282928466796875	4943.75441851822
0.3363037109375	-0.0028314208984375	4943.97567051766
0.331878662109375	-0.00283355712890625	4944.1969225171
0.32745361328125	-0.00283538818359375	4944.41817451654
0.323028564453125	-0.00283721923828125	4944.63942651599
0.318603515625	-0.0028387451171875	4944.86067851543
0.314178466796875	-0.0028399658203125	4945.08193051487
0.30975341796875	-0.0028436279296875	4945.30318251431
0.305328369140625	-0.0028448486328125	4945.52443451375
0.3009033203125	-0.00284576416015625	4945.74568651319
0.296478271484375	-0.00284698486328125	4945.96693851263
0.29205322265625	-0.00284759521484375	4946.18819051208
0.287628173828125	-0.00284881591796875	4946.40944251152
0.283203125	-0.00285003662109375	4946.63069451096
0.278778076171875	-0.0028509521484375	4946.8519465104
0.27435302734375	-0.00285186767578125	4947.07319850984
0.269927978515625	-0.002852783203125	4947.29445050928
0.2655029296875	-0.00285400390625	4947.51570250872
0.261077880859375	-0.002855224609375	4947.73695450816
0.25665283203125	-0.00285614013671875	4947.95820650761
0.252227783203125	-0.002857666015625	4948.17945850705
0.247802734375	-0.00285919189453125	4948.40071050649
0.243377685546875	-0.002860107421875	4948.62196250593
0.23895263671875	-0.0028619384765625	4948.84321450537
0.234527587890625	-0.00286376953125	4949.06446650481
0.2301025390625	-0.00286407470703125	4949.28571850425
0.225677490234375	-0.00286590576171875	4949.5069705037
0.22125244140625	-0.00286773681640625	4949.72822250314
0.216827392578125	-0.0028692626953125	4949.94947450258
0.21240234375	-0.0028717041015625	4950.17072650202
0.207977294921875	-0.00287322998046875	4950.39197850146
0.20355224609375	-0.00287567138671875	4950.6132305009
0.199127197265625	-0.0028778076171875	4950.83448250034
0.1947021484375	-0.00287994384765625	4951.05573449979
0.190277099609375	-0.00288238525390625	4951.27698649923
0.18585205078125	-0.002884521484375	4951.49823849867
0.181427001953125	-0.002886962890625	4951.71949049811
0.177001953125	-0.00288970947265625	4951.94074249755
0.172576904296875	-0.00289276123046875	4952.16199449699
0.16815185546875	-0.0028955078125	4952.38324649643
0.163726806640625	-0.00289886474609375	4952.60449849588
0.1593017578125	-0.0029022216796875	4952.82575049532
0.154876708984375	-0.00290496826171875	4953.04700249476
0.15045166015625	-0.00290924072265625	4953.2682544942
0.146026611328125	-0.00291290283203125	4953.48950649364
0.1416015625	-0.00291748046875	4953.71075849308
0.137176513671875	-0.0029217529296875	4953.93201049252
0.13275146484375	-0.00292694091796875	4954.15326249197
0.128326416015625	-0.00293182373046875	4954.37451449141
0.1239013671875	-0.00293701171875	4954.59576649085
0.119476318359375	-0.002943115234375	4954.81701849029
0.11505126953125	-0.0029473876953125	4955.03827048973
0.110626220703125	-0.0029541015625	4955.25952248917
0.106201171875	-0.00296112060546875	4955.48077448861
0.101776123046875	-0.00296844482421875	4955.70202648805
0.09735107421875	-0.00297607421875	4955.9232784875
0.092926025390625	-0.0029840087890625	4956.14453048694
0.0885009765625	-0.0029931640625	4956.36578248638
0.084075927734375	-0.003001708984375	4956.58703448582
0.07965087890625	-0.003011474609375	4956.80828648526
0.075225830078125	-0.00302001953125	4957.0295384847
0.07080078125	-0.00303070068359375	4957.25079048414
0.066375732421875	-0.0030413818359375	4957.47204248359
0.06195068359375	-0.00305267333984375	4957.69329448303
0.057525634765625	-0.00306427001953125	4957.91454648247
0.0531005859375	-0.003076171875	4958.13579848191
0.048675537109375	-0.00308837890625	4958.35705048135
0.04425048828125	-0.00310150146484375	4958.57830248079
0.039825439453125	-0.0031146240234375	4958.79955448023
0.035400390625	-0.0031280517578125	4959.02080647968
0.030975341796875	-0.00314208984375	4959.24205847912
0.02655029296875	-0.00315643310546875	4959.46331047856
0.022125244140625	-0.00317169189453125	4959.684562478
0.0177001953125	-0.0031866455078125	4959.90581447744
0.013275146484375	-0.00320220947265625	4960.12706647688
0.00885009765625	-0.00321868896484375	4960.34831847632
0.004425048828125	-0.00323516845703125	4960.56957047577
0	-0.003253173828125	4960.79082247521
0.004425048828125	-0.002645263671875	4961.01207447465
0.00885009765625	-0.002138671875	4961.23332647409
0.013275146484375	-0.00170654296875	4961.45457847353
0.0177001953125	-0.001331787109375	4961.67583047297
0.022125244140625	-0.00100341796875	4961.89708247241
0.02655029296875	-0.000714111328125	4962.11833447186
0.030975341796875	-0.000457550048828125	4962.3395864713
0.035400390625	-0.000228790283203125	4962.56083847074
0.039825439453125	-2.42462158203125E-05	4962.78209047018
0.04425048828125	0.00015966796875	4963.00334246962
0.048675537109375	0.000325164794921875	4963.22459446906
0.0531005859375	0.00047467041015625	4963.4458464685
0.057525634765625	0.0006103515625	4963.66709846794
0.06195068359375	0.00073333740234375	4963.88835046739
0.066375732421875	0.00084503173828125	4964.10960246683
0.07080078125	0.0009466552734375	4964.33085446627
0.075225830078125	0.0010400390625	4964.55210646571
0.07965087890625	0.001124267578125	4964.77335846515
0.084075927734375	0.00120269775390625	4964.99461046459
0.0885009765625	0.00127410888671875	4965.21586246404
0.092926025390625	0.00134033203125	4965.43711446348
0.09735107421875	0.0014007568359375	4965.65836646292
0.101776123046875	0.0014569091796875	4965.87961846236
0.106201171875	0.0015081787109375	4966.1008704618
0.110626220703125	0.00155548095703125	4966.32212246124
0.11505126953125	0.00160003662109375	4966.54337446068
0.119476318359375	0.00163970947265625	4966.76462646012
0.1239013671875	0.001678466796875	4966.98587845957
0.128326416015625	0.001715087890625	4967.20713045901
0.13275146484375	0.00174896240234375	4967.42838245845
0.137176513671875	0.001781005859375	4967.64963445789
0.1416015625	0.001810302734375	4967.87088645733
0.146026611328125	0.00183837890625	4968.09213845677
0.15045166015625	0.00186431884765625	4968.31339045621
0.154876708984375	0.0018890380859375	4968.53464245566
0.1593017578125	0.00191162109375	4968.7558944551
0.163726806640625	0.00193389892578125	4968.97714645454
0.16815185546875	0.00195465087890625	4969.19839845398
0.172576904296875	0.0019744873046875	4969.41965045342
0.177001953125	0.00199310302734375	4969.64090245286
0.181427001953125	0.0020111083984375	4969.8621544523
0.18585205078125	0.00202789306640625	4970.08340645175
0.190277099609375	0.0020440673828125	4970.30465845119
0.1947021484375	0.0020599365234375	4970.52591045063
0.199127197265625	0.00207489013671875	4970.74716245007
0.20355224609375	0.00208953857421875	4970.96841444951
0.207977294921875	0.00210357666015625	4971.18966644895
0.21240234375	0.00211669921875	4971.41091844839
0.216827392578125	0.002130126953125	4971.63217044784
0.22125244140625	0.0021429443359375	4971.85342244728
0.225677490234375	0.0021551513671875	4972.07467444672
0.2301025390625	0.00216705322265625	4972.29592644616
0.234527587890625	0.00217803955078125	4972.5171784456
0.23895263671875	0.00218963623046875	4972.73843044504
0.243377685546875	0.002200927734375	4972.95968244448
0.247802734375	0.00221160888671875	4973.18093444393
0.252227783203125	0.0022222900390625	4973.40218644337
0.25665283203125	0.00223297119140625	4973.62343844281
0.261077880859375	0.00224334716796875	4973.84469044225
0.2655029296875	0.00225341796875	4974.06594244169
0.269927978515625	0.0022637939453125	4974.28719444113
0.27435302734375	0.00227294921875	4974.50844644057
0.278778076171875	0.00228271484375	4974.72969844001
0.283203125	0.00229217529296875	4974.95095043946
0.287628173828125	0.0023016357421875	4975.1722024389
0.29205322265625	0.0023114013671875	4975.39345443834
0.296478271484375	0.00232086181640625	4975.61470643778
0.3009033203125	0.0023297119140625	4975.83595843722
0.305328369140625	0.00233917236328125	4976.05721043666
0.30975341796875	0.0023486328125	4976.2784624361
0.314178466796875	0.002359619140625	4976.49971443555
0.318603515625	0.00236785888671875	4976.72096643499
0.323028564453125	0.00237640380859375	4976.94221843443
0.32745361328125	0.00238525390625	4977.16347043387
0.331878662109375	0.00239410400390625	4977.38472243331
0.3363037109375	0.0024029541015625	4977.60597443275
0.340728759765625	0.0024114990234375	4977.82722643219
0.34515380859375	0.00242034912109375	4978.04847843164
0.349578857421875	0.0024285888671875	4978.26973043108
0.35400390625	0.00243621826171875	4978.49098243052
0.358428955078125	0.00244537353515625	4978.71223442996
0.36285400390625	0.0024542236328125	4978.9334864294
0.367279052734375	0.00246368408203125	4979.15473842884
0.3717041015625	0.0024725341796875	4979.37599042828
0.376129150390625	0.00248138427734375	4979.59724242773
0.38055419921875	0.00248992919921875	4979.81849442717
0.384979248046875	0.00249847412109375	4980.03974642661
0.389404296875	0.0025067138671875	4980.26099842605
0.393829345703125	0.00251434326171875	4980.48225042549
0.39825439453125	0.00252227783203125	4980.70350242493
0.402679443359375	0.00253082275390625	4980.92475442437
0.4071044921875	0.00253875732421875	4981.14600642382
0.411529541015625	0.00254608154296875	4981.36725842326
0.41595458984375	0.00255340576171875	4981.5885104227
0.420379638671875	0.0025604248046875	4981.80976242214
0.4248046875	0.002567138671875	4982.03101442158
0.429229736328125	0.0025738525390625	4982.25226642102
0.43365478515625	0.0025799560546875	4982.47351842046
0.438079833984375	0.0025860595703125	4982.6947704199
0.4425048828125	0.002591552734375	4982.91602241935
0.446929931640625	0.00259735107421875	4983.13727441879
0.45135498046875	0.0026025390625	4983.35852641823
0.455780029296875	0.0026080322265625	4983.57977841767
0.460205078125	0.0026129150390625	4983.80103041711
0.464630126953125	0.00261810302734375	4984.02228241655
0.46905517578125	0.0026220703125	4984.24353441599
0.473480224609375	0.002626953125	4984.46478641544
0.4779052734375	0.0026312255859375	4984.68603841488
0.482330322265625	0.002635498046875	4984.90729041432
0.48675537109375	0.00263946533203125	4985.12854241376
0.491180419921875	0.002642822265625	4985.3497944132
0.49560546875	0.0026458740234375	4985.57104641264
0.500030517578125	0.00264892578125	4985.79229841208
0.50445556640625	0.00265167236328125	4986.01355041153
0.508880615234375	0.00265350341796875	4986.23480241097
0.5133056640625	0.0026556396484375	4986.45605441041
0.517730712890625	0.00265777587890625	4986.67730640985
0.52215576171875	0.0026593017578125	4986.89855840929
0.526580810546875	0.00266082763671875	4987.11981040873
0.531005859375	0.0026617431640625	4987.34106240817
0.535430908203125	0.0026629638671875	4987.56231440762
0.53985595703125	0.00266357421875	4987.78356640706
0.544281005859375	0.0026641845703125	4988.0048184065
0.5487060546875	0.00266357421875	4988.22607040594
0.553131103515625	0.00266387939453125	4988.44732240538
0.55755615234375	0.0026641845703125	4988.66857440482
0.561981201171875	0.00266387939453125	4988.88982640426
0.56640625	0.00266357421875	4989.11107840371
0.570831298828125	0.00266326904296875	4989.33233040315
0.57525634765625	0.00266265869140625	4989.55358240259
0.579681396484375	0.0026617431640625	4989.77483440203
0.5841064453125	0.00266143798828125	4989.99608640147
0.588531494140625	0.0026593017578125	4990.21733840091
0.59295654296875	0.00265899658203125	4990.43859040035
0.597381591796875	0.0026580810546875	4990.65984239979
0.601806640625	0.00265777587890625	4990.88109439924
0.606231689453125	0.0026568603515625	4991.10234639868
0.61065673828125	0.00265594482421875	4991.32359839812
0.615081787109375	0.0026556396484375	4991.54485039756
0.6195068359375	0.00265472412109375	4991.766102397
0.623931884765625	0.00265411376953125	4991.98735439644
0.62835693359375	0.002657470703125	4992.20860639588
0.632781982421875	0.00265625	4992.42985839533
0.63720703125	0.0026556396484375	4992.65111039477
0.641632080078125	0.00265533447265625	4992.87236239421
0.64605712890625	0.0026556396484375	4993.09361439365
0.650482177734375	0.0026556396484375	4993.31486639309
0.6549072265625	0.00265594482421875	4993.53611839253
0.659332275390625	0.00265655517578125	4993.75737039197
0.66375732421875	0.00265716552734375	4993.97862239142
0.668182373046875	0.00265838623046875	4994.19987439086
0.672607421875	0.00265960693359375	4994.4211263903
0.677032470703125	0.00266143798828125	4994.64237838974
0.68145751953125	0.00266326904296875	4994.86363038918
0.685882568359375	0.0026654052734375	4995.08488238862
0.6903076171875	0.0026678466796875	4995.30613438806
0.694732666015625	0.0026702880859375	4995.52738638751
0.69915771484375	0.00267333984375	4995.74863838695
0.703582763671875	0.00267578125	4995.96989038639
0.7080078125	0.002679443359375	4996.19114238583
0.712432861328125	0.0026837158203125	4996.41239438527
0.71685791015625	0.00268798828125	4996.63364638471
0.721282958984375	0.00269287109375	4996.85489838415
0.7257080078125	0.0026983642578125	4997.0761503836
0.730133056640625	0.002703857421875	4997.29740238304
0.73455810546875	0.0027093505859375	4997.51865438248
0.738983154296875	0.00271575927734375	4997.73990638192
0.743408203125	0.002720947265625	4997.96115838136
0.747833251953125	0.002728271484375	4998.1824103808
0.75225830078125	0.00273590087890625	4998.40366238024
0.756683349609375	0.002744140625	4998.62491437968
0.7611083984375	0.00275299072265625	4998.84616637913
0.765533447265625	0.00276214599609375	4999.06741837857
0.76995849609375	0.0027716064453125	4999.28867037801
0.774383544921875	0.00278167724609375	4999.50992237745
0.77880859375	0.00279266357421875	4999.73117437689
0.783233642578125	0.00280364990234375	4999.95242637633
0.78765869140625	0.00281585693359375	5000.17367837578
0.792083740234375	0.0028289794921875	5000.39493037522
0.7965087890625	0.00284210205078125	5000.61618237466
0.800933837890625	0.00285675048828125	5000.8374343741
0.80535888671875	0.0028717041015625	5001.05868637354
0.809783935546875	0.00288818359375	5001.27993837298
0.814208984375	0.0029046630859375	5001.50119037242
0.818634033203125	0.00292266845703125	5001.72244237186
0.82305908203125	0.00294097900390625	5001.94369437131
0.827484130859375	0.0029608154296875	5002.16494637075
0.8319091796875	0.0029815673828125	5002.38619837019
0.836334228515625	0.00300323486328125	5002.60745036963
0.84075927734375	0.003026123046875	5002.82870236907
0.845184326171875	0.00305023193359375	5003.04995436851
0.849609375	0.00307464599609375	5003.27120636795
0.854034423828125	0.00310150146484375	5003.4924583674
0.85845947265625	0.003128662109375	5003.71371036684
0.862884521484375	0.00315643310546875	5003.93496236628
0.8673095703125	0.00318634033203125	5004.15621436572
0.871734619140625	0.00321746826171875	5004.37746636516
0.87615966796875	0.00325042724609375	5004.5987183646
0.880584716796875	0.00328338623046875	5004.81997036404
0.885009765625	0.00331817626953125	5005.04122236349
0.889434814453125	0.00335418701171875	5005.26247436293
0.89385986328125	0.00339141845703125	5005.48372636237
0.898284912109375	0.00342926025390625	5005.70497836181
0.9027099609375	0.00346832275390625	5005.92623036125
0.907135009765625	0.0035089111328125	5006.14748236069
0.91156005859375	0.00355072021484375	5006.36873436013
0.915985107421875	0.003592529296875	5006.58998635958
0.92041015625	0.0036358642578125	5006.81123835902
0.924835205078125	0.00368011474609375	5007.03249035846
0.92926025390625	0.00372467041015625	5007.2537423579
0.933685302734375	0.00376983642578125	5007.47499435734
0.9381103515625	0.00381805419921875	5007.69624635678
0.942535400390625	0.00386444091796875	5007.91749835622
0.94696044921875	0.0039111328125	5008.13875035567
0.951385498046875	0.0039581298828125	5008.36000235511
0.955810546875	0.00400482177734375	5008.58125435455
0.960235595703125	0.0040521240234375	5008.80250635399
0.96466064453125	0.00409912109375	5009.02375835343
0.969085693359375	0.00414581298828125	5009.24501035287
0.9735107421875	0.00419281005859375	5009.46626235231
0.977935791015625	0.00423675537109375	5009.68751435175
0.98236083984375	0.00428253173828125	5009.9087663512
0.986785888671875	0.00432708740234375	5010.13001835064
0.9912109375	0.004371337890625	5010.35127035008
0.995635986328125	0.0044146728515625	5010.57252234952
1.00006103515625	0.004456787109375	5010.79377434896
0.995635986328125	0.00384857177734375	5011.0150263484
0.9912109375	0.00332794189453125	5011.23627834784
0.986785888671875	0.00286956787109375	5011.45753034729
0.98236083984375	0.0024603271484375	5011.67878234673
0.977935791015625	0.0020904541015625	5011.90003434617
0.9735107421875	0.00175567626953125	5012.12128634561
0.969085693359375	0.00144866943359375	5012.34253834505
0.96466064453125	0.0011676025390625	5012.56379034449
0.960235595703125	0.0009088134765625	5012.78504234393
0.955810546875	0.00066986083984375	5013.00629434338
0.951385498046875	0.00044854736328125	5013.22754634282
0.94696044921875	0.0002435302734375	5013.44879834226
0.942535400390625	5.3497314453125E-05	5013.6700503417
0.9381103515625	-0.0001236572265625	5013.89130234114
0.933685302734375	-0.00029119873046875	5014.11255434058
0.92926025390625	-0.000444976806640625	5014.33380634002
0.924835205078125	-0.000588897705078125	5014.55505833947
0.92041015625	-0.00072406005859375	5014.77631033891
0.915985107421875	-0.0008502197265625	5014.99756233835
0.91156005859375	-0.0009686279296875	5015.21881433779
0.907135009765625	-0.00108062744140625	5015.44006633723
0.9027099609375	-0.001185302734375	5015.66131833667
0.898284912109375	-0.00128326416015625	5015.88257033611
0.89385986328125	-0.0013763427734375	5016.10382233556
0.889434814453125	-0.001463623046875	5016.325074335
0.885009765625	-0.001546630859375	5016.54632633444
0.880584716796875	-0.00162353515625	5016.76757833388
0.87615966796875	-0.0016961669921875	5016.98883033332
0.871734619140625	-0.00176483154296875	5017.21008233276
0.8673095703125	-0.00182891845703125	5017.4313343322
0.862884521484375	-0.0018896484375	5017.65258633164
0.85845947265625	-0.00194610595703125	5017.87383833109
0.854034423828125	-0.00199951171875	5018.09509033053
0.849609375	-0.002049560546875	5018.31634232997
0.845184326171875	-0.00209625244140625	5018.53759432941
0.84075927734375	-0.0021405029296875	5018.75884632885
0.836334228515625	-0.0021807861328125	5018.98009832829
0.8319091796875	-0.00221923828125	5019.20135032773
0.827484130859375	-0.002254638671875	5019.42260232718
0.82305908203125	-0.00228790283203125	5019.64385432662
0.818634033203125	-0.00231781005859375	5019.86510632606
0.814208984375	-0.00234588623046875	5020.0863583255
0.809783935546875	-0.00237152099609375	5020.30761032494
0.80535888671875	-0.00239532470703125	5020.52886232438
0.800933837890625	-0.0024169921875	5020.75011432382
0.7965087890625	-0.0024371337890625	5020.97136632327
0.792083740234375	-0.00245513916015625	5021.19261832271
0.78765869140625	-0.0024713134765625	5021.41387032215
0.783233642578125	-0.00248626708984375	5021.63512232159
0.77880859375	-0.00249908447265625	5021.85637432103
0.774383544921875	-0.00251068115234375	5022.07762632047
0.76995849609375	-0.00252105712890625	5022.29887831991
0.765533447265625	-0.002530517578125	5022.52013031936
0.7611083984375	-0.0025384521484375	5022.7413823188
0.756683349609375	-0.00254547119140625	5022.96263431824
0.75225830078125	-0.00255157470703125	5023.18388631768
0.747833251953125	-0.00255645751953125	5023.40513831712
0.743408203125	-0.0025604248046875	5023.62639031656
0.738983154296875	-0.00256195068359375	5023.847642316
0.73455810546875	-0.0025653076171875	5024.06889431545
0.730133056640625	-0.00256683349609375	5024.29014631489
0.7257080078125	-0.00256805419921875	5024.51139831433
0.721282958984375	-0.002568359375	5024.73265031377
0.71685791015625	-0.0025689697265625	5024.95390231321
0.712432861328125	-0.0025689697265625	5025.17515431265
0.7080078125	-0.002568359375	5025.39640631209
0.703582763671875	-0.002567138671875	5025.61765831153
0.69915771484375	-0.00256561279296875	5025.83891031098
0.694732666015625	-0.00256378173828125	5026.06016231042
0.6903076171875	-0.0025616455078125	5026.28141430986
0.685882568359375	-0.002559814453125	5026.5026663093
0.68145751953125	-0.00255706787109375	5026.72391830874
0.677032470703125	-0.002554931640625	5026.94517030818
0.672607421875	-0.00255279541015625	5027.16642230762
0.668182373046875	-0.00255035400390625	5027.38767430707
0.66375732421875	-0.0025482177734375	5027.60892630651
0.659332275390625	-0.00254608154296875	5027.83017830595
0.6549072265625	-0.0025445556640625	5028.05143030539
0.650482177734375	-0.00254180908203125	5028.27268230483
0.64605712890625	-0.002540283203125	5028.49393430427
0.641632080078125	-0.00253814697265625	5028.71518630371
0.63720703125	-0.00253692626953125	5028.93643830316
0.632781982421875	-0.002535400390625	5029.1576903026
0.62835693359375	-0.0025341796875	5029.37894230204
0.623931884765625	-0.00253631591796875	5029.60019430148
0.6195068359375	-0.00253448486328125	5029.82144630092
0.615081787109375	-0.00253326416015625	5030.04269830036
0.61065673828125	-0.0025323486328125	5030.2639502998
0.606231689453125	-0.00253173828125	5030.48520229925
0.601806640625	-0.00253143310546875	5030.70645429869
0.597381591796875	-0.00253173828125	5030.92770629813
0.59295654296875	-0.0025323486328125	5031.14895829757
0.588531494140625	-0.00253265380859375	5031.37021029701
0.5841064453125	-0.00253204345703125	5031.59146229645
0.579681396484375	-0.0025335693359375	5031.81271429589
0.57525634765625	-0.002535400390625	5032.03396629534
0.570831298828125	-0.00253753662109375	5032.25521829478
0.56640625	-0.0025396728515625	5032.47647029422
0.561981201171875	-0.00254241943359375	5032.69772229366
0.55755615234375	-0.00254486083984375	5032.9189742931
0.553131103515625	-0.0025482177734375	5033.14022629254
0.5487060546875	-0.00255157470703125	5033.36147829198
0.544281005859375	-0.0025543212890625	5033.58273029142
0.53985595703125	-0.00255859375	5033.80398229087
0.535430908203125	-0.0025628662109375	5034.02523429031
0.531005859375	-0.00256744384765625	5034.24648628975
0.526580810546875	-0.00257232666015625	5034.46773828919
0.52215576171875	-0.0025775146484375	5034.68899028863
0.517730712890625	-0.0025830078125	5034.91024228807
0.5133056640625	-0.00258819580078125	5035.13149428752
0.508880615234375	-0.0025946044921875	5035.35274628696
0.50445556640625	-0.0026007080078125	5035.5739982864
0.500030517578125	-0.0026068115234375	5035.79525028584
0.49560546875	-0.00261383056640625	5036.01650228528
0.491180419921875	-0.00262054443359375	5036.23775428472
0.48675537109375	-0.002628173828125	5036.45900628416
0.482330322265625	-0.00263519287109375	5036.6802582836
0.4779052734375	-0.002642822265625	5036.90151028305
0.473480224609375	-0.002650146484375	5037.12276228249
0.46905517578125	-0.00265777587890625	5037.34401428193
0.464630126953125	-0.002664794921875	5037.56526628137
0.460205078125	-0.00267303466796875	5037.78651828081
0.455780029296875	-0.0026812744140625	5038.00777028025
0.45135498046875	-0.00268890380859375	5038.22902227969
0.446929931640625	-0.00269683837890625	5038.45027427914
0.4425048828125	-0.00270477294921875	5038.67152627858
0.438079833984375	-0.00271240234375	5038.89277827802
0.43365478515625	-0.0027203369140625	5039.11403027746
0.429229736328125	-0.0027276611328125	5039.3352822769
0.4248046875	-0.0027349853515625	5039.55653427634
0.420379638671875	-0.0027423095703125	5039.77778627578
0.41595458984375	-0.00274932861328125	5039.99903827523
0.411529541015625	-0.0027557373046875	5040.22029027467
0.4071044921875	-0.00276214599609375	5040.44154227411
0.402679443359375	-0.0027685546875	5040.66279427355
0.39825439453125	-0.0027740478515625	5040.88404627299
0.393829345703125	-0.00277984619140625	5041.10529827243
0.389404296875	-0.00278472900390625	5041.32655027187
0.384979248046875	-0.002789306640625	5041.54780227132
0.38055419921875	-0.00279449462890625	5041.76905427076
0.376129150390625	-0.00279876708984375	5041.9903062702
0.3717041015625	-0.002802734375	5042.21155826964
0.367279052734375	-0.00280670166015625	5042.43281026908
0.36285400390625	-0.0028106689453125	5042.65406226852
0.358428955078125	-0.00281341552734375	5042.87531426796
0.35400390625	-0.00281646728515625	5043.09656626741
0.349578857421875	-0.00281707763671875	5043.31781826685
0.34515380859375	-0.00282012939453125	5043.53907026629
0.340728759765625	-0.00282257080078125	5043.76032226573
0.3363037109375	-0.00282470703125	5043.98157426517
0.331878662109375	-0.0028265380859375	5044.20282626461
0.32745361328125	-0.00282867431640625	5044.42407826405
0.323028564453125	-0.0028302001953125	5044.64533026349
0.318603515625	-0.00283172607421875	5044.86658226294
0.314178466796875	-0.002833251953125	5045.08783426238
0.30975341796875	-0.0028369140625	5045.30908626182
0.305328369140625	-0.0028375244140625	5045.53033826126
0.3009033203125	-0.0028387451171875	5045.7515902607
0.296478271484375	-0.00283966064453125	5045.97284226014
0.29205322265625	-0.00284027099609375	5046.19409425958
0.287628173828125	-0.0028411865234375	5046.41534625903
0.283203125	-0.00284210205078125	5046.63659825847
0.278778076171875	-0.002843017578125	5046.85785025791
0.27435302734375	-0.00284423828125	5047.07910225735
0.269927978515625	-0.0028448486328125	5047.30035425679
0.2655029296875	-0.0028460693359375	5047.52160625623
0.261077880859375	-0.00284698486328125	5047.74285825567
0.25665283203125	-0.00284820556640625	5047.96411025512
0.252227783203125	-0.00284942626953125	5048.18536225456
0.247802734375	-0.00285064697265625	5048.406614254
0.243377685546875	-0.0028515625	5048.62786625344
0.23895263671875	-0.002852783203125	5048.84911825288
0.234527587890625	-0.00285400390625	5049.07037025232
0.2301025390625	-0.00285491943359375	5049.29162225176
0.225677490234375	-0.00285675048828125	5049.51287425121
0.22125244140625	-0.00285797119140625	5049.73412625065
0.216827392578125	-0.00285919189453125	5049.95537825009
0.21240234375	-0.002861328125	5050.17663024953
0.207977294921875	-0.0028631591796875	5050.39788224897
0.20355224609375	-0.00286529541015625	5050.61913424841
0.199127197265625	-0.00286712646484375	5050.84038624785
0.1947021484375	-0.00286895751953125	5051.0616382473
0.190277099609375	-0.00287078857421875	5051.28289024674
0.18585205078125	-0.0028729248046875	5051.50414224618
0.181427001953125	-0.00287506103515625	5051.72539424562
0.177001953125	-0.002877197265625	5051.94664624506
0.172576904296875	-0.002879638671875	5052.1678982445
0.16815185546875	-0.00288238525390625	5052.38915024394
0.163726806640625	-0.00288482666015625	5052.61040224338
0.1593017578125	-0.0028875732421875	5052.83165424283
0.154876708984375	-0.00289031982421875	5053.05290624227
0.15045166015625	-0.00289337158203125	5053.27415824171
0.146026611328125	-0.00289703369140625	5053.49541024115
0.1416015625	-0.0029010009765625	5053.71666224059
0.137176513671875	-0.00290496826171875	5053.93791424003
0.13275146484375	-0.00290924072265625	5054.15916623947
0.128326416015625	-0.002913818359375	5054.38041823892
0.1239013671875	-0.002918701171875	5054.60167023836
0.119476318359375	-0.00292388916015625	5054.8229222378
0.11505126953125	-0.0029278564453125	5055.04417423724
0.110626220703125	-0.00293426513671875	5055.26542623668
0.106201171875	-0.00294036865234375	5055.48667823612
0.101776123046875	-0.00294708251953125	5055.70793023556
0.09735107421875	-0.0029541015625	5055.92918223501
0.092926025390625	-0.00296142578125	5056.15043423445
0.0885009765625	-0.00296875	5056.37168623389
0.084075927734375	-0.0029766845703125	5056.59293823333
0.07965087890625	-0.0029852294921875	5056.81419023277
0.075225830078125	-0.00299346923828125	5057.03544223221
0.07080078125	-0.0030035400390625	5057.25669423165
0.066375732421875	-0.00301300048828125	5057.4779462311
0.06195068359375	-0.003023681640625	5057.69919823054
0.057525634765625	-0.0030340576171875	5057.92045022998
0.0531005859375	-0.0030450439453125	5058.14170222942
0.048675537109375	-0.00305633544921875	5058.36295422886
0.04425048828125	-0.00306854248046875	5058.5842062283
0.039825439453125	-0.0030810546875	5058.80545822774
0.035400390625	-0.0030938720703125	5059.02671022719
0.030975341796875	-0.00310699462890625	5059.24796222663
0.02655029296875	-0.00312103271484375	5059.46921422607
0.022125244140625	-0.00313507080078125	5059.69046622551
0.0177001953125	-0.00315032958984375	5059.91171822495
0.013275146484375	-0.003165283203125	5060.13297022439
0.00885009765625	-0.0031817626953125	5060.35422222383
0.004425048828125	-0.0031982421875	5060.57547422327
0	-0.0032159423828125	5060.79672622272
0.004425048828125	-0.002608642578125	5061.01797822216
0.00885009765625	-0.002103271484375	5061.2392302216
0.013275146484375	-0.00167205810546875	5061.46048222104
0.0177001953125	-0.0012982177734375	5061.68173422048
0.022125244140625	-0.00097137451171875	5061.90298621992
0.02655029296875	-0.00068328857421875	5062.12423821936
0.030975341796875	-0.000427978515625	5062.34549021881
0.035400390625	-0.000200347900390625	5062.56674221825
0.039825439453125	2.55126953125E-06	5062.78799421769
0.04425048828125	0.000185089111328125	5063.00924621713
0.048675537109375	0.000349578857421875	5063.23049821657
0.0531005859375	0.00049755859375	5063.45175021601
0.057525634765625	0.00063177490234375	5063.67300221545
0.06195068359375	0.00075408935546875	5063.8942542149
0.066375732421875	0.00086456298828125	5064.11550621434
0.07080078125	0.000965576171875	5064.33675821378
0.075225830078125	0.00105804443359375	5064.55801021322
0.07965087890625	0.001141357421875	5064.77926221266
0.084075927734375	0.0012188720703125	5065.0005142121
0.0885009765625	0.0012896728515625	5065.22176621154
0.092926025390625	0.00135498046875	5065.44301821099
0.09735107421875	0.001414794921875	5065.66427021043
0.101776123046875	0.0014703369140625	5065.88552220987
0.106201171875	0.00152069091796875	5066.10677420931
0.110626220703125	0.00156768798828125	5066.32802620875
0.11505126953125	0.001611328125	5066.54927820819
0.119476318359375	0.001650390625	5066.77053020763
0.1239013671875	0.001689453125	5066.99178220708
0.128326416015625	0.00172515869140625	5067.21303420652
0.13275146484375	0.00175872802734375	5067.43428620596
0.137176513671875	0.00178985595703125	5067.6555382054
0.1416015625	0.00181976318359375	5067.87679020484
0.146026611328125	0.001846923828125	5068.09804220428
0.15045166015625	0.00187286376953125	5068.31929420372
0.154876708984375	0.00189727783203125	5068.54054620316
0.1593017578125	0.00191925048828125	5068.76179820261
0.163726806640625	0.0019415283203125	5068.98305020205
0.16815185546875	0.001961669921875	5069.20430220149
0.172576904296875	0.0019818115234375	5069.42555420093
0.177001953125	0.0020001220703125	5069.64680620037
0.181427001953125	0.002017822265625	5069.86805819981
0.18585205078125	0.00203460693359375	5070.08931019926
0.190277099609375	0.0020501708984375	5070.3105621987
0.1947021484375	0.0020660400390625	5070.53181419814
0.199127197265625	0.0020806884765625	5070.75306619758
0.20355224609375	0.0020947265625	5070.97431819702
0.207977294921875	0.00210845947265625	5071.19557019646
0.21240234375	0.00212158203125	5071.4168221959
0.216827392578125	0.002135009765625	5071.63807419534
0.22125244140625	0.00214752197265625	5071.85932619479
0.225677490234375	0.00215972900390625	5072.08057819423
0.2301025390625	0.002171630859375	5072.30183019367
0.234527587890625	0.0021820068359375	5072.52308219311
0.23895263671875	0.0021929931640625	5072.74433419255
0.243377685546875	0.00220428466796875	5072.96558619199
0.247802734375	0.00221466064453125	5073.18683819143
0.252227783203125	0.00222564697265625	5073.40809019088
0.25665283203125	0.0022357177734375	5073.62934219032
0.261077880859375	0.00224609375	5073.85059418976
0.2655029296875	0.002255859375	5074.0718461892
0.269927978515625	0.002265625	5074.29309818864
0.27435302734375	0.002275390625	5074.51435018808
0.278778076171875	0.00228485107421875	5074.73560218752
0.283203125	0.00229400634765625	5074.95685418697
0.287628173828125	0.00230316162109375	5075.17810618641
0.29205322265625	0.0023126220703125	5075.39935818585
0.296478271484375	0.00232147216796875	5075.62061018529
0.3009033203125	0.00233062744140625	5075.84186218473
0.305328369140625	0.002340087890625	5076.06311418417
0.30975341796875	0.0023486328125	5076.28436618361
0.314178466796875	0.002359619140625	5076.50561818306
0.318603515625	0.0023681640625	5076.7268701825
0.323028564453125	0.00237640380859375	5076.94812218194
0.32745361328125	0.00238494873046875	5077.16937418138
0.331878662109375	0.0023931884765625	5077.39062618082
0.3363037109375	0.00240203857421875	5077.61187818026
0.340728759765625	0.00241058349609375	5077.8331301797
0.34515380859375	0.0024188232421875	5078.05438217915
0.349578857421875	0.0024273681640625	5078.27563417859
0.35400390625	0.00243438720703125	5078.49688617803
0.358428955078125	0.00244384765625	5078.71813817747
0.36285400390625	0.00245269775390625	5078.93939017691
0.367279052734375	0.00246124267578125	5079.16064217635
0.3717041015625	0.002469482421875	5079.38189417579
0.376129150390625	0.00247833251953125	5079.60314617523
0.38055419921875	0.0024871826171875	5079.82439817468
0.384979248046875	0.00249542236328125	5080.04565017412
0.389404296875	0.002503662109375	5080.26690217356
0.393829345703125	0.002510986328125	5080.488154173
0.39825439453125	0.0025189208984375	5080.70940617244
0.402679443359375	0.00252716064453125	5080.93065817188
0.4071044921875	0.0025347900390625	5081.15191017132
0.411529541015625	0.00254241943359375	5081.37316217077
0.41595458984375	0.0025494384765625	5081.59441417021
0.420379638671875	0.00255645751953125	5081.81566616965
0.4248046875	0.00256317138671875	5082.03691816909
0.429229736328125	0.002569580078125	5082.25817016853
0.43365478515625	0.00257568359375	5082.47942216797
0.438079833984375	0.0025811767578125	5082.70067416741
0.4425048828125	0.00258697509765625	5082.92192616686
0.446929931640625	0.0025927734375	5083.1431781663
0.45135498046875	0.0025982666015625	5083.36443016574
0.455780029296875	0.00260345458984375	5083.58568216518
0.460205078125	0.00260833740234375	5083.80693416462
0.464630126953125	0.00261322021484375	5084.02818616406
0.46905517578125	0.0026171875	5084.2494381635
0.473480224609375	0.00262176513671875	5084.47069016295
0.4779052734375	0.00262603759765625	5084.69194216239
0.482330322265625	0.0026300048828125	5084.91319416183
0.48675537109375	0.0026336669921875	5085.13444616127
0.491180419921875	0.00263763427734375	5085.35569816071
0.49560546875	0.00264068603515625	5085.57695016015
0.500030517578125	0.0026434326171875	5085.79820215959
0.50445556640625	0.0026458740234375	5086.01945415904
0.508880615234375	0.00264801025390625	5086.24070615848
0.5133056640625	0.00264984130859375	5086.46195815792
0.517730712890625	0.00265167236328125	5086.68321015736
0.52215576171875	0.0026531982421875	5086.9044621568
0.526580810546875	0.0026544189453125	5087.12571415624
0.531005859375	0.0026556396484375	5087.34696615568
0.535430908203125	0.0026568603515625	5087.56821815512
0.53985595703125	0.002657470703125	5087.78947015457
0.544281005859375	0.0026580810546875	5088.01072215401
0.5487060546875	0.00265777587890625	5088.23197415345
0.553131103515625	0.00265838623046875	5088.45322615289
0.55755615234375	0.0026580810546875	5088.67447815233
0.561981201171875	0.0026580810546875	5088.89573015177
0.56640625	0.00265777587890625	5089.11698215121
0.570831298828125	0.002657470703125	5089.33823415066
0.57525634765625	0.0026568603515625	5089.5594861501
0.579681396484375	0.00265625	5089.78073814954
0.5841064453125	0.0026556396484375	5090.00199014898
0.588531494140625	0.0026531982421875	5090.22324214842
0.59295654296875	0.002652587890625	5090.44449414786
0.597381591796875	0.0026519775390625	5090.6657461473
0.601806640625	0.0026513671875	5090.88699814675
0.606231689453125	0.0026507568359375	5091.10825014619
0.61065673828125	0.00265045166015625	5091.32950214563
0.615081787109375	0.00264984130859375	5091.55075414507
0.6195068359375	0.00264892578125	5091.77200614451
0.623931884765625	0.00264862060546875	5091.99325814395
0.62835693359375	0.00265106201171875	5092.21451014339
0.632781982421875	0.00265045166015625	5092.43576214284
0.63720703125	0.00264984130859375	5092.65701414228
0.641632080078125	0.00264923095703125	5092.87826614172
0.64605712890625	0.0026495361328125	5093.09951814116
0.650482177734375	0.0026495361328125	5093.3207701406
0.6549072265625	0.00264984130859375	5093.54202214004
0.659332275390625	0.00265045166015625	5093.76327413948
0.66375732421875	0.00265167236328125	5093.98452613893
0.668182373046875	0.00265228271484375	5094.20577813837
0.672607421875	0.00265350341796875	5094.42703013781
0.677032470703125	0.00265533447265625	5094.64828213725
0.68145751953125	0.0026568603515625	5094.86953413669
0.685882568359375	0.00265960693359375	5095.09078613613
0.6903076171875	0.00266143798828125	5095.31203813557
0.694732666015625	0.00266387939453125	5095.53329013501
0.69915771484375	0.002667236328125	5095.75454213446
0.703582763671875	0.00266937255859375	5095.9757941339
0.7080078125	0.00267333984375	5096.19704613334
0.712432861328125	0.002677001953125	5096.41829813278
0.71685791015625	0.0026812744140625	5096.63955013222
0.721282958984375	0.0026861572265625	5096.86080213166
0.7257080078125	0.0026910400390625	5097.0820541311
0.730133056640625	0.00269622802734375	5097.30330613055
0.73455810546875	0.00270233154296875	5097.52455812999
0.738983154296875	0.002708740234375	5097.74581012943
0.743408203125	0.002713623046875	5097.96706212887
0.747833251953125	0.00272064208984375	5098.18831412831
0.75225830078125	0.002728271484375	5098.40956612775
0.756683349609375	0.00273651123046875	5098.63081812719
0.7611083984375	0.00274505615234375	5098.85207012664
0.765533447265625	0.00275421142578125	5099.07332212608
0.76995849609375	0.00276397705078125	5099.29457412552
0.774383544921875	0.00277374267578125	5099.51582612496
0.77880859375	0.002784423828125	5099.7370781244
0.783233642578125	0.00279571533203125	5099.95833012384
0.78765869140625	0.00280731201171875	5100.17958212328
0.792083740234375	0.00282012939453125	5100.40083412273
0.7965087890625	0.00283355712890625	5100.62208612217
0.800933837890625	0.002847900390625	5100.84333812161
0.80535888671875	0.00286285400390625	5101.06459012105
0.809783935546875	0.00287872314453125	5101.28584212049
0.814208984375	0.0028955078125	5101.50709411993
0.818634033203125	0.00291290283203125	5101.72834611937
0.82305908203125	0.00293121337890625	5101.94959811882
0.827484130859375	0.002950439453125	5102.17085011826
0.8319091796875	0.0029705810546875	5102.3921021177
0.836334228515625	0.00299224853515625	5102.61335411714
0.84075927734375	0.00301483154296875	5102.83460611658
0.845184326171875	0.00303863525390625	5103.05585811602
0.849609375	0.00306304931640625	5103.27711011546
0.854034423828125	0.00308929443359375	5103.4983621149
0.85845947265625	0.00311614990234375	5103.71961411435
0.862884521484375	0.0031439208984375	5103.94086611379
0.8673095703125	0.0031732177734375	5104.16211811323
0.871734619140625	0.00320404052734375	5104.38337011267
0.87615966796875	0.003236083984375	5104.60462211211
0.880584716796875	0.0032696533203125	5104.82587411155
0.885009765625	0.00330352783203125	5105.047126111
0.889434814453125	0.00333892822265625	5105.26837811044
0.89385986328125	0.00337554931640625	5105.48963010988
0.898284912109375	0.0034130859375	5105.71088210932
0.9027099609375	0.0034515380859375	5105.93213410876
0.907135009765625	0.00349151611328125	5106.1533861082
0.91156005859375	0.0035321044921875	5106.37463810764
0.915985107421875	0.00357391357421875	5106.59589010708
0.92041015625	0.00361602783203125	5106.81714210653
0.924835205078125	0.00365997314453125	5107.03839410597
0.92926025390625	0.00370330810546875	5107.25964610541
0.933685302734375	0.00374786376953125	5107.48089810485
0.9381103515625	0.0037957763671875	5107.70215010429
0.942535400390625	0.0038409423828125	5107.92340210373
0.94696044921875	0.00388641357421875	5108.14465410317
0.951385498046875	0.00393218994140625	5108.36590610262
0.955810546875	0.00397857666015625	5108.58715810206
0.960235595703125	0.00402496337890625	5108.8084101015
0.96466064453125	0.0040704345703125	5109.02966210094
0.969085693359375	0.00411651611328125	5109.25091410038
0.9735107421875	0.00416229248046875	5109.47216609982
0.977935791015625	0.0042059326171875	5109.69341809926
0.98236083984375	0.00425048828125	5109.91467009871
0.986785888671875	0.00429443359375	5110.13592209815
0.9912109375	0.0043377685546875	5110.35717409759
0.995635986328125	0.00438018798828125	5110.57842609703
1.00006103515625	0.00442138671875	5110.79967809647
0.995635986328125	0.00381378173828125	5111.02093009591
0.9912109375	0.00329437255859375	5111.24218209535
0.986785888671875	0.00283721923828125	5111.4634340948
0.98236083984375	0.00242889404296875	5111.68468609424
0.977935791015625	0.002060546875	5111.90593809368
0.9735107421875	0.0017279052734375	5112.12719009312
0.969085693359375	0.00142303466796875	5112.34844209256
0.96466064453125	0.001143798828125	5112.569694092
0.960235595703125	0.00088653564453125	5112.79094609144
0.955810546875	0.00064910888671875	5113.01219809089
0.951385498046875	0.000430023193359375	5113.23345009033
0.94696044921875	0.000227264404296875	5113.45470208977
0.942535400390625	3.88275146484375E-05	5113.67595408921
0.9381103515625	-0.0001368408203125	5113.89720608865
0.933685302734375	-0.000302276611328125	5114.11845808809
0.92926025390625	-0.0004544677734375	5114.33971008753
0.924835205078125	-0.000597015380859375	5114.56096208697
0.92041015625	-0.00073046875	5114.78221408642
0.915985107421875	-0.00085479736328125	5115.00346608586
0.91156005859375	-0.0009722900390625	5115.2247180853
0.907135009765625	-0.00108184814453125	5115.44597008474
0.9027099609375	-0.00118560791015625	5115.66722208418
0.898284912109375	-0.0012823486328125	5115.88847408362
0.89385986328125	-0.00137420654296875	5116.10972608306
0.889434814453125	-0.00145965576171875	5116.33097808251
0.885009765625	-0.0015411376953125	5116.55223008195
0.880584716796875	-0.001617431640625	5116.77348208139
0.87615966796875	-0.0016888427734375	5116.99473408083
0.871734619140625	-0.00175628662109375	5117.21598608027
0.8673095703125	-0.001820068359375	5117.43723807971
0.862884521484375	-0.00187957763671875	5117.65849007915
0.85845947265625	-0.001934814453125	5117.8797420786
0.854034423828125	-0.0019879150390625	5118.10099407804
0.849609375	-0.00203704833984375	5118.32224607748
0.845184326171875	-0.00208343505859375	5118.54349807692
0.84075927734375	-0.00212646484375	5118.76475007636
0.836334228515625	-0.00216644287109375	5118.9860020758
0.8319091796875	-0.00220428466796875	5119.20725407524
0.827484130859375	-0.00223907470703125	5119.42850607469
0.82305908203125	-0.0022711181640625	5119.64975807413
0.818634033203125	-0.0023016357421875	5119.87101007357
0.814208984375	-0.00232940673828125	5120.09226207301
0.809783935546875	-0.00235443115234375	5120.31351407245
0.80535888671875	-0.00237762451171875	5120.53476607189
0.800933837890625	-0.0023992919921875	5120.75601807133
0.7965087890625	-0.00241943359375	5120.97727007078
0.792083740234375	-0.0024365234375	5121.19852207022
0.78765869140625	-0.0024530029296875	5121.41977406966
0.783233642578125	-0.0024676513671875	5121.6410260691
0.77880859375	-0.0024798583984375	5121.86227806854
0.774383544921875	-0.00249176025390625	5122.08353006798
0.76995849609375	-0.0025018310546875	5122.30478206742
0.765533447265625	-0.00251129150390625	5122.52603406686
0.7611083984375	-0.00251953125	5122.74728606631
0.756683349609375	-0.0025262451171875	5122.96853806575
0.75225830078125	-0.00253204345703125	5123.18979006519
0.747833251953125	-0.00253692626953125	5123.41104206463
0.743408203125	-0.00254150390625	5123.63229406407
0.738983154296875	-0.00254302978515625	5123.85354606351
0.73455810546875	-0.00254608154296875	5124.07479806295
0.730133056640625	-0.0025482177734375	5124.2960500624
0.7257080078125	-0.00254974365234375	5124.51730206184
0.721282958984375	-0.002550048828125	5124.73855406128
0.71685791015625	-0.0025506591796875	5124.95980606072
0.712432861328125	-0.00255096435546875	5125.18105806016
0.7080078125	-0.0025506591796875	5125.4023100596
0.703582763671875	-0.0025494384765625	5125.62356205904
0.69915771484375	-0.00254730224609375	5125.84481405849
0.694732666015625	-0.00254608154296875	5126.06606605793
0.6903076171875	-0.00254486083984375	5126.28731805737
0.685882568359375	-0.0025433349609375	5126.50857005681
0.68145751953125	-0.00254150390625	5126.72982205625
0.677032470703125	-0.0025390625	5126.95107405569
0.672607421875	-0.00253753662109375	5127.17232605513
0.668182373046875	-0.002535400390625	5127.39357805458
0.66375732421875	-0.0025335693359375	5127.61483005402
0.659332275390625	-0.00253143310546875	5127.83608205346
0.6549072265625	-0.0025299072265625	5128.0573340529
0.650482177734375	-0.002528076171875	5128.27858605234
0.64605712890625	-0.0025262451171875	5128.49983805178
0.641632080078125	-0.0025250244140625	5128.72109005122
0.63720703125	-0.0025238037109375	5128.94234205067
0.632781982421875	-0.00252227783203125	5129.16359405011
0.62835693359375	-0.0025213623046875	5129.38484604955
0.623931884765625	-0.002523193359375	5129.60609804899
0.6195068359375	-0.00252227783203125	5129.82735004843
0.615081787109375	-0.00252105712890625	5130.04860204787
0.61065673828125	-0.00252044677734375	5130.26985404731
0.606231689453125	-0.00252044677734375	5130.49110604675
0.601806640625	-0.0025201416015625	5130.7123580462
0.597381591796875	-0.0025201416015625	5130.93361004564
0.59295654296875	-0.00252105712890625	5131.15486204508
0.588531494140625	-0.00252166748046875	5131.37611404452
0.5841064453125	-0.0025213623046875	5131.59736604396
0.579681396484375	-0.002523193359375	5131.8186180434
0.57525634765625	-0.0025250244140625	5132.03987004284
0.570831298828125	-0.00252716064453125	5132.26112204229
0.56640625	-0.00252960205078125	5132.48237404173
0.561981201171875	-0.0025323486328125	5132.70362604117
0.55755615234375	-0.00253509521484375	5132.92487804061
0.553131103515625	-0.0025384521484375	5133.14613004005
0.5487060546875	-0.00254180908203125	5133.36738203949
0.544281005859375	-0.00254486083984375	5133.58863403893
0.53985595703125	-0.00254913330078125	5133.80988603838
0.535430908203125	-0.0025537109375	5134.03113803782
0.531005859375	-0.00255859375	5134.25239003726
0.526580810546875	-0.00256378173828125	5134.4736420367
0.52215576171875	-0.0025689697265625	5134.69489403614
0.517730712890625	-0.002574462890625	5134.91614603558
0.5133056640625	-0.00258026123046875	5135.13739803502
0.508880615234375	-0.00258636474609375	5135.35865003447
0.50445556640625	-0.00259246826171875	5135.57990203391
0.500030517578125	-0.00259918212890625	5135.80115403335
0.49560546875	-0.002606201171875	5136.02240603279
0.491180419921875	-0.0026129150390625	5136.24365803223
0.48675537109375	-0.0026202392578125	5136.46491003167
0.482330322265625	-0.00262786865234375	5136.68616203111
0.4779052734375	-0.00263580322265625	5136.90741403056
0.473480224609375	-0.0026434326171875	5137.12866603
0.46905517578125	-0.00265106201171875	5137.34991802944
0.464630126953125	-0.00265838623046875	5137.57117002888
0.460205078125	-0.00266693115234375	5137.79242202832
0.455780029296875	-0.002674560546875	5138.01367402776
0.45135498046875	-0.00268280029296875	5138.2349260272
0.446929931640625	-0.0026904296875	5138.45617802664
0.4425048828125	-0.00269866943359375	5138.67743002609
0.438079833984375	-0.00270660400390625	5138.89868202553
0.43365478515625	-0.0027142333984375	5139.11993402497
0.429229736328125	-0.00272186279296875	5139.34118602441
0.4248046875	-0.0027294921875	5139.56243802385
0.420379638671875	-0.00273681640625	5139.78369002329
0.41595458984375	-0.00274383544921875	5140.00494202274
0.411529541015625	-0.002750244140625	5140.22619402218
0.4071044921875	-0.0027569580078125	5140.44744602162
0.402679443359375	-0.0027630615234375	5140.66869802106
0.39825439453125	-0.0027691650390625	5140.8899500205
0.393829345703125	-0.002774658203125	5141.11120201994
0.389404296875	-0.00277923583984375	5141.33245401938
0.384979248046875	-0.002784423828125	5141.55370601882
0.38055419921875	-0.00278900146484375	5141.77495801827
0.376129150390625	-0.00279388427734375	5141.99621001771
0.3717041015625	-0.0027978515625	5142.21746201715
0.367279052734375	-0.002801513671875	5142.43871401659
0.36285400390625	-0.0028045654296875	5142.65996601603
0.358428955078125	-0.00280792236328125	5142.88121801547
0.35400390625	-0.00281036376953125	5143.10247001491
0.349578857421875	-0.002811279296875	5143.32372201436
0.34515380859375	-0.0028143310546875	5143.5449740138
0.340728759765625	-0.00281646728515625	5143.76622601324
0.3363037109375	-0.002818603515625	5143.98747801268
0.331878662109375	-0.00282073974609375	5144.20873001212
0.32745361328125	-0.002822265625	5144.42998201156
0.323028564453125	-0.00282379150390625	5144.651234011
0.318603515625	-0.0028253173828125	5144.87248601045
0.314178466796875	-0.00282684326171875	5145.09373800989
0.30975341796875	-0.0028302001953125	5145.31499000933
0.305328369140625	-0.00283050537109375	5145.53624200877
0.3009033203125	-0.0028314208984375	5145.75749400821
0.296478271484375	-0.00283203125	5145.97874600765
0.29205322265625	-0.0028326416015625	5146.19999800709
0.287628173828125	-0.002833251953125	5146.42125000654
0.283203125	-0.00283416748046875	5146.64250200598
0.278778076171875	-0.00283477783203125	5146.86375400542
0.27435302734375	-0.00283599853515625	5147.08500600486
0.269927978515625	-0.00283660888671875	5147.3062580043
0.2655029296875	-0.0028375244140625	5147.52751000374
0.261077880859375	-0.00283843994140625	5147.74876200318
0.25665283203125	-0.00283905029296875	5147.97001400263
0.252227783203125	-0.00284027099609375	5148.19126600207
0.247802734375	-0.0028411865234375	5148.41251800151
0.243377685546875	-0.00284210205078125	5148.63377000095
0.23895263671875	-0.0028436279296875	5148.85502200039
0.234527587890625	-0.00284454345703125	5149.07627399983
0.2301025390625	-0.00284515380859375	5149.29752599927
0.225677490234375	-0.0028466796875	5149.51877799871
0.22125244140625	-0.002847900390625	5149.74002999816
0.216827392578125	-0.00284942626953125	5149.9612819976
0.21240234375	-0.0028509521484375	5150.18253399704
0.207977294921875	-0.002852783203125	5150.40378599648
0.20355224609375	-0.0028546142578125	5150.62503799592
0.199127197265625	-0.0028558349609375	5150.84628999536
0.1947021484375	-0.002857666015625	5151.0675419948
0.190277099609375	-0.0028594970703125	5151.28879399425
0.18585205078125	-0.0028619384765625	5151.51004599369
0.181427001953125	-0.00286407470703125	5151.73129799313
0.177001953125	-0.0028662109375	5151.95254999257
0.172576904296875	-0.00286865234375	5152.17380199201
0.16815185546875	-0.00287109375	5152.39505399145
0.163726806640625	-0.00287353515625	5152.61630599089
0.1593017578125	-0.00287628173828125	5152.83755799034
0.154876708984375	-0.00287872314453125	5153.05880998978
0.15045166015625	-0.00288177490234375	5153.28006198922
0.146026611328125	-0.00288543701171875	5153.50131398866
0.1416015625	-0.00288909912109375	5153.7225659881
0.137176513671875	-0.00289306640625	5153.94381798754
0.13275146484375	-0.0028973388671875	5154.16506998698
0.128326416015625	-0.00290191650390625	5154.38632198643
0.1239013671875	-0.002906494140625	5154.60757398587
0.119476318359375	-0.002911376953125	5154.82882598531
0.11505126953125	-0.0029156494140625	5155.05007798475
0.110626220703125	-0.002921142578125	5155.27132998419
0.106201171875	-0.00292755126953125	5155.49258198363
0.101776123046875	-0.0029339599609375	5155.71383398307
0.09735107421875	-0.0029412841796875	5155.93508598252
0.092926025390625	-0.00294891357421875	5156.15633798196
0.0885009765625	-0.00295654296875	5156.3775899814
0.084075927734375	-0.00296417236328125	5156.59884198084
0.07965087890625	-0.00297271728515625	5156.82009398028
0.075225830078125	-0.00298095703125	5157.04134597972
0.07080078125	-0.00299041748046875	5157.26259797916
0.066375732421875	-0.00300018310546875	5157.4838499786
0.06195068359375	-0.00301025390625	5157.70510197805
0.057525634765625	-0.00302032470703125	5157.92635397749
0.0531005859375	-0.0030316162109375	5158.14760597693
0.048675537109375	-0.003043212890625	5158.36885797637
0.04425048828125	-0.00305511474609375	5158.59010997581
0.039825439453125	-0.003067626953125	5158.81136197525
0.035400390625	-0.0030804443359375	5159.03261397469
0.030975341796875	-0.00309356689453125	5159.25386597414
0.02655029296875	-0.00310760498046875	5159.47511797358
0.022125244140625	-0.00312225341796875	5159.69636997302
0.0177001953125	-0.00313690185546875	5159.91762197246
0.013275146484375	-0.00315216064453125	5160.1388739719
0.00885009765625	-0.0031689453125	5160.36012597134
0.004425048828125	-0.00318572998046875	5160.58137797078
0	-0.003203125	5160.80262997023
0.004425048828125	-0.00259613037109375	5161.02388196967
0.00885009765625	-0.002091064453125	5161.24513396911
0.013275146484375	-0.00165985107421875	5161.46638596855
0.0177001953125	-0.0012860107421875	5161.68763796799
0.022125244140625	-0.00095916748046875	5161.90888996743
0.02655029296875	-0.00067108154296875	5162.13014196687
0.030975341796875	-0.00041632080078125	5162.35139396632
0.035400390625	-0.00018890380859375	5162.57264596576
0.039825439453125	1.37786865234375E-05	5162.7938979652
0.04425048828125	0.000196319580078125	5163.01514996464
0.048675537109375	0.000360443115234375	5163.23640196408
0.0531005859375	0.0005084228515625	5163.45765396352
0.057525634765625	0.000642547607421875	5163.67890596296
0.06195068359375	0.00076446533203125	5163.90015796241
0.066375732421875	0.000875244140625	5164.12140996185
0.07080078125	0.00097564697265625	5164.34266196129
0.075225830078125	0.00106781005859375	5164.56391396073
0.07965087890625	0.001151123046875	5164.78516596017
0.084075927734375	0.00122833251953125	5165.00641795961
0.0885009765625	0.00129913330078125	5165.22766995905
0.092926025390625	0.0013641357421875	5165.44892195849
0.09735107421875	0.0014239501953125	5165.67017395794
0.101776123046875	0.0014794921875	5165.89142595738
0.106201171875	0.0015301513671875	5166.11267795682
0.110626220703125	0.0015765380859375	5166.33392995626
0.11505126953125	0.0016204833984375	5166.5551819557
0.119476318359375	0.00165924072265625	5166.77643395514
0.1239013671875	0.00169769287109375	5166.99768595458
0.128326416015625	0.00173309326171875	5167.21893795403
0.13275146484375	0.00176666259765625	5167.44018995347
0.137176513671875	0.00179779052734375	5167.66144195291
0.1416015625	0.00182708740234375	5167.88269395235
0.146026611328125	0.00185455322265625	5168.10394595179
0.15045166015625	0.00188018798828125	5168.32519795123
0.154876708984375	0.0019049072265625	5168.54644995067
0.1593017578125	0.0019268798828125	5168.76770195012
0.163726806640625	0.0019482421875	5168.98895394956
0.16815185546875	0.00196868896484375	5169.210205949
0.172576904296875	0.00198822021484375	5169.43145794844
0.177001953125	0.0020062255859375	5169.65270994788
0.181427001953125	0.00202392578125	5169.87396194732
0.18585205078125	0.00204010009765625	5170.09521394676
0.190277099609375	0.0020562744140625	5170.31646594621
0.1947021484375	0.002071533203125	5170.53771794565
0.199127197265625	0.00208587646484375	5170.75896994509
0.20355224609375	0.0021002197265625	5170.98022194453
0.207977294921875	0.0021136474609375	5171.20147394397
0.21240234375	0.00212646484375	5171.42272594341
0.216827392578125	0.00213897705078125	5171.64397794285
0.22125244140625	0.0021514892578125	5171.8652299423
0.225677490234375	0.0021636962890625	5172.08648194174
0.2301025390625	0.00217529296875	5172.30773394118
0.234527587890625	0.00218536376953125	5172.52898594062
0.23895263671875	0.00219635009765625	5172.75023794006
0.243377685546875	0.00220733642578125	5172.9714899395
0.247802734375	0.002218017578125	5173.19274193894
0.252227783203125	0.0022283935546875	5173.41399393838
0.25665283203125	0.00223846435546875	5173.63524593783
0.261077880859375	0.00224853515625	5173.85649793727
0.2655029296875	0.00225860595703125	5174.07774993671
0.269927978515625	0.00226806640625	5174.29900193615
0.27435302734375	0.0022772216796875	5174.52025393559
0.278778076171875	0.00228668212890625	5174.74150593503
0.283203125	0.00229522705078125	5174.96275793448
0.287628173828125	0.00230438232421875	5175.18400993392
0.29205322265625	0.002313232421875	5175.40526193336
0.296478271484375	0.00232208251953125	5175.6265139328
0.3009033203125	0.00233123779296875	5175.84776593224
0.305328369140625	0.002340087890625	5176.06901793168
0.30975341796875	0.00234893798828125	5176.29026993112
0.314178466796875	0.002359619140625	5176.51152193056
0.318603515625	0.0023675537109375	5176.73277393001
0.323028564453125	0.00237548828125	5176.95402592945
0.32745361328125	0.0023834228515625	5177.17527792889
0.331878662109375	0.0023919677734375	5177.39652992833
0.3363037109375	0.0024005126953125	5177.61778192777
0.340728759765625	0.00240875244140625	5177.83903392721
0.34515380859375	0.0024169921875	5178.06028592665
0.349578857421875	0.0024249267578125	5178.2815379261
0.35400390625	0.0024322509765625	5178.50278992554
0.358428955078125	0.00244110107421875	5178.72404192498
0.36285400390625	0.00244964599609375	5178.94529392442
0.367279052734375	0.00245819091796875	5179.16654592386
0.3717041015625	0.0024664306640625	5179.3877979233
0.376129150390625	0.00247467041015625	5179.60904992274
0.38055419921875	0.00248321533203125	5179.83030192219
0.384979248046875	0.00249114990234375	5180.05155392163
0.389404296875	0.00249969482421875	5180.27280592107
0.393829345703125	0.0025067138671875	5180.49405792051
0.39825439453125	0.00251434326171875	5180.71530991995
0.402679443359375	0.00252227783203125	5180.93656191939
0.4071044921875	0.0025299072265625	5181.15781391883
0.411529541015625	0.00253692626953125	5181.37906591828
0.41595458984375	0.0025445556640625	5181.60031791772
0.420379638671875	0.00255126953125	5181.82156991716
0.4248046875	0.002557373046875	5182.0428219166
0.429229736328125	0.00256378173828125	5182.26407391604
0.43365478515625	0.002569580078125	5182.48532591548
0.438079833984375	0.00257537841796875	5182.70657791492
0.4425048828125	0.00258056640625	5182.92782991437
0.446929931640625	0.00258636474609375	5183.14908191381
0.45135498046875	0.002591552734375	5183.37033391325
0.455780029296875	0.0025970458984375	5183.59158591269
0.460205078125	0.00260162353515625	5183.81283791213
0.464630126953125	0.00260650634765625	5184.03408991157
0.46905517578125	0.0026104736328125	5184.25534191101
0.473480224609375	0.0026153564453125	5184.47659391045
0.4779052734375	0.00261962890625	5184.6978459099
0.482330322265625	0.0026239013671875	5184.91909790934
0.48675537109375	0.0026275634765625	5185.14034990878
0.491180419921875	0.00263153076171875	5185.36160190822
0.49560546875	0.00263397216796875	5185.58285390766
0.500030517578125	0.00263671875	5185.8041059071
0.50445556640625	0.00263946533203125	5186.02535790654
0.508880615234375	0.0026416015625	5186.24660990599
0.5133056640625	0.00264373779296875	5186.46786190543
0.517730712890625	0.00264556884765625	5186.68911390487
0.52215576171875	0.00264739990234375	5186.91036590431
0.526580810546875	0.00264892578125	5187.13161790375
0.531005859375	0.002650146484375	5187.35286990319
0.535430908203125	0.00265106201171875	5187.57412190263
0.53985595703125	0.00265167236328125	5187.79537390208
0.544281005859375	0.00265289306640625	5188.01662590152
0.5487060546875	0.0026519775390625	5188.23787790096
0.553131103515625	0.002652587890625	5188.4591299004
0.55755615234375	0.00265228271484375	5188.68038189984
0.561981201171875	0.00265228271484375	5188.90163389928
0.56640625	0.0026519775390625	5189.12288589872
0.570831298828125	0.00265167236328125	5189.34413789817
0.57525634765625	0.00265106201171875	5189.56538989761
0.579681396484375	0.002650146484375	5189.78664189705
0.5841064453125	0.0026495361328125	5190.00789389649
0.588531494140625	0.00264739990234375	5190.22914589593
0.59295654296875	0.0026470947265625	5190.45039789537
0.597381591796875	0.002646484375	5190.67164989481
0.601806640625	0.0026458740234375	5190.89290189426
0.606231689453125	0.00264495849609375	5191.1141538937
0.61065673828125	0.0026446533203125	5191.33540589314
0.615081787109375	0.00264373779296875	5191.55665789258
0.6195068359375	0.00264373779296875	5191.77790989202
0.623931884765625	0.00264312744140625	5191.99916189146
0.62835693359375	0.00264556884765625	5192.2204138909
0.632781982421875	0.00264495849609375	5192.44166589034
0.63720703125	0.00264434814453125	5192.66291788979
0.641632080078125	0.00264434814453125	5192.88416988923
0.64605712890625	0.00264404296875	5193.10542188867
0.650482177734375	0.00264404296875	5193.32667388811
0.6549072265625	0.00264434814453125	5193.54792588755
0.659332275390625	0.0026446533203125	5193.76917788699
0.66375732421875	0.002645263671875	5193.99042988643
0.668182373046875	0.00264678955078125	5194.21168188588
0.672607421875	0.00264801025390625	5194.43293388532
0.677032470703125	0.00264923095703125	5194.65418588476
0.68145751953125	0.00265106201171875	5194.8754378842
0.685882568359375	0.00265289306640625	5195.09668988364
0.6903076171875	0.00265533447265625	5195.31794188308
0.694732666015625	0.00265777587890625	5195.53919388252
0.69915771484375	0.00266082763671875	5195.76044588197
0.703582763671875	0.00266265869140625	5195.98169788141
0.7080078125	0.002666015625	5196.20294988085
0.712432861328125	0.0026702880859375	5196.42420188029
0.71685791015625	0.00267425537109375	5196.64545387973
0.721282958984375	0.0026788330078125	5196.86670587917
0.7257080078125	0.0026837158203125	5197.08795787861
0.730133056640625	0.00268890380859375	5197.30920987806
0.73455810546875	0.00269439697265625	5197.5304618775
0.738983154296875	0.0027008056640625	5197.75171387694
0.743408203125	0.002705078125	5197.97296587638
0.747833251953125	0.00271240234375	5198.19421787582
0.75225830078125	0.0027197265625	5198.41546987526
0.756683349609375	0.0027276611328125	5198.6367218747
0.7611083984375	0.0027362060546875	5198.85797387415
0.765533447265625	0.0027447509765625	5199.07922587359
0.76995849609375	0.00275390625	5199.30047787303
0.774383544921875	0.002763671875	5199.52172987247
0.77880859375	0.00277435302734375	5199.74298187191
0.783233642578125	0.0027850341796875	5199.96423387135
0.78765869140625	0.002796630859375	5200.18548587079
0.792083740234375	0.0028094482421875	5200.40673787023
0.7965087890625	0.002822265625	5200.62798986968
0.800933837890625	0.002835693359375	5200.84924186912
0.80535888671875	0.0028509521484375	5201.07049386856
0.809783935546875	0.0028662109375	5201.291745868
0.814208984375	0.00288238525390625	5201.51299786744
0.818634033203125	0.00289947509765625	5201.73424986688
0.82305908203125	0.00291778564453125	5201.95550186632
0.827484130859375	0.0029364013671875	5202.17675386577
0.8319091796875	0.00295654296875	5202.39800586521
0.836334228515625	0.00297760009765625	5202.61925786465
0.84075927734375	0.00299957275390625	5202.84050986409
0.845184326171875	0.00302276611328125	5203.06176186353
0.849609375	0.003046875	5203.28301386297
0.854034423828125	0.003072509765625	5203.50426586241
0.85845947265625	0.0030987548828125	5203.72551786186
0.862884521484375	0.00312591552734375	5203.9467698613
0.8673095703125	0.0031549072265625	5204.16802186074
0.871734619140625	0.003184814453125	5204.38927386018
0.87615966796875	0.00321624755859375	5204.61052585962
0.880584716796875	0.00324859619140625	5204.83177785906
0.885009765625	0.00328216552734375	5205.0530298585
0.889434814453125	0.0033172607421875	5205.27428185795
0.89385986328125	0.00335296630859375	5205.49553385739
0.898284912109375	0.003389892578125	5205.71678585683
0.9027099609375	0.00342803955078125	5205.93803785627
0.907135009765625	0.00346649169921875	5206.15928985571
0.91156005859375	0.00350677490234375	5206.38054185515
0.915985107421875	0.00354766845703125	5206.60179385459
0.92041015625	0.00358917236328125	5206.82304585404
0.924835205078125	0.003631591796875	5207.04429785348
0.92926025390625	0.00367431640625	5207.26554985292
0.933685302734375	0.00371795654296875	5207.48680185236
0.9381103515625	0.00376434326171875	5207.7080538518
0.942535400390625	0.00380889892578125	5207.92930585124
0.94696044921875	0.003853759765625	5208.15055785068
0.951385498046875	0.0038983154296875	5208.37180985012
0.955810546875	0.0039434814453125	5208.59306184957
0.960235595703125	0.0039886474609375	5208.81431384901
0.96466064453125	0.00403350830078125	5209.03556584845
0.969085693359375	0.00407806396484375	5209.25681784789
0.9735107421875	0.00412322998046875	5209.47806984733
0.977935791015625	0.0041650390625	5209.69932184677
0.98236083984375	0.00420867919921875	5209.92057384622
0.986785888671875	0.0042510986328125	5210.14182584566
0.9912109375	0.004293212890625	5210.3630778451
