Time (s)	WE(1).Potential (V)
1188.72559299876	0.787353515625
1189.72559299623	0.78033447265625
1190.72559299371	0.77423095703125
1191.72559299118	0.7684326171875
1192.72559298866	0.76324462890625
1193.72559298613	0.758056640625
1194.72559298361	0.753173828125
1195.72559298108	0.748291015625
1196.72559297856	0.743408203125
1197.72559297603	0.73883056640625
1198.72559297351	0.7342529296875
1199.72559297098	0.72998046875
1200.72559296846	0.72540283203125
1201.72559296593	0.72113037109375
1202.72559296341	0.71685791015625
1203.72559296089	0.71258544921875
1204.72559295836	0.70831298828125
1205.72559295584	0.70404052734375
1206.72559295331	0.7000732421875
1207.72559295079	0.69580078125
1208.72559294826	0.6915283203125
1209.72559294574	0.68756103515625
1210.72559294321	0.68328857421875
1211.72559294069	0.67901611328125
1212.72559293816	0.675048828125
1213.72559293564	0.6707763671875
1214.72559293311	0.66680908203125
1215.72559293059	0.662841796875
1216.72559292806	0.6585693359375
1217.72559292554	0.65460205078125
1218.72559292301	0.65032958984375
1219.72559292049	0.6463623046875
1220.72559291796	0.64239501953125
1221.72559291544	0.63812255859375
1222.72559291291	0.6341552734375
1223.72559291039	0.63018798828125
1224.72559290787	0.626220703125
1225.72559290534	0.62225341796875
1226.72559290282	0.6182861328125
1227.72559290029	0.61431884765625
1228.72559289777	0.61004638671875
1229.72559289524	0.6060791015625
1230.72559289272	0.60211181640625
1231.72559289019	0.59814453125
1232.72559288767	0.59417724609375
1233.72559288514	0.5902099609375
1234.72559288262	0.5859375
1235.72559288009	0.58197021484375
1236.72559287757	0.5780029296875
1237.72559287504	0.57403564453125
1238.72559287252	0.570068359375
1239.72559286999	0.56610107421875
1240.72559286747	0.5621337890625
1241.72559286494	0.55816650390625
1242.72559286242	0.55419921875
1243.72559285989	0.55023193359375
1244.72559285737	0.54656982421875
1245.72559285485	0.5426025390625
1246.72559285232	0.53863525390625
1247.7255928498	0.53466796875
1248.72559284727	0.53070068359375
1249.72559284475	0.52703857421875
1250.72559284222	0.5230712890625
1251.7255928397	0.51910400390625
1252.72559283717	0.51513671875
1253.72559283465	0.511474609375
1254.72559283212	0.50750732421875
1255.7255928296	0.5035400390625
1256.72559282707	0.4998779296875
1257.72559282455	0.49603271484375
1258.72559282202	0.492218017578125
1259.7255928195	0.4884033203125
1260.72559281697	0.484588623046875
1261.72559281445	0.480804443359375
1262.72559281192	0.477020263671875
1263.7255928094	0.473236083984375
1264.72559280687	0.469451904296875
1265.72559280435	0.4656982421875
1266.72559280183	0.461944580078125
1267.7255927993	0.45819091796875
1268.72559279678	0.454437255859375
1269.72559279425	0.45074462890625
1270.72559279173	0.447021484375
1271.7255927892	0.44329833984375
1272.72559278668	0.4395751953125
1273.72559278415	0.435882568359375
1274.72559278163	0.43218994140625
1275.7255927791	0.42852783203125
1276.72559277658	0.42486572265625
1277.72559277405	0.421234130859375
1278.72559277153	0.417572021484375
1279.725592769	0.4139404296875
1280.72559276648	0.410308837890625
1281.72559276395	0.40667724609375
1282.72559276143	0.403076171875
1283.7255927589	0.39947509765625
1284.72559275638	0.3958740234375
1285.72559275385	0.392303466796875
1286.72559275133	0.388763427734375
1287.72559274881	0.38519287109375
1288.72559274628	0.38165283203125
1289.72559274376	0.37811279296875
1290.72559274123	0.374603271484375
1291.72559273871	0.371063232421875
1292.72559273618	0.3675537109375
1293.72559273366	0.364044189453125
1294.72559273113	0.360565185546875
1295.72559272861	0.35711669921875
1296.72559272608	0.3536376953125
1297.72559272356	0.350189208984375
1298.72559272103	0.34674072265625
1299.72559271851	0.34332275390625
1300.72559271598	0.33990478515625
1301.72559271346	0.33648681640625
1302.72559271093	0.333099365234375
1303.72559270841	0.329681396484375
1304.72559270588	0.32635498046875
1305.72559270336	0.322967529296875
1306.72559270084	0.319610595703125
1307.72559269831	0.316253662109375
1308.72559269579	0.312896728515625
1309.72559269326	0.3095703125
1310.72559269074	0.306243896484375
1311.72559268821	0.302947998046875
1312.72559268569	0.29962158203125
1313.72559268316	0.296356201171875
1314.72559268064	0.293060302734375
1315.72559267811	0.289794921875
1316.72559267559	0.286529541015625
1317.72559267306	0.28326416015625
1318.72559267054	0.280029296875
1319.72559266801	0.276763916015625
1320.72559266549	0.273529052734375
1321.72559266296	0.270294189453125
1322.72559266044	0.267059326171875
1323.72559265791	0.263885498046875
1324.72559265539	0.260650634765625
1325.72559265286	0.2574462890625
1326.72559265034	0.254241943359375
1327.72559264782	0.25103759765625
1328.72559264529	0.24786376953125
1329.72559264277	0.24468994140625
1330.72559264024	0.24151611328125
1331.72559263772	0.238311767578125
1332.72559263519	0.235137939453125
1333.72559263267	0.23199462890625
1334.72559263014	0.22882080078125
1335.72559262762	0.225677490234375
1336.72559262509	0.222503662109375
1337.72559262257	0.219329833984375
1338.72559262004	0.216217041015625
1339.72559261752	0.213043212890625
1340.72559261499	0.20989990234375
1341.72559261247	0.20672607421875
1342.72559260994	0.203582763671875
1343.72559260742	0.200439453125
1344.72559260489	0.197296142578125
1345.72559260237	0.19415283203125
1346.72559259984	0.191009521484375
1347.72559259732	0.187835693359375
1348.7255925948	0.1846923828125
1349.72559259227	0.181549072265625
1350.72559258975	0.17840576171875
1351.72559258722	0.175262451171875
1352.7255925847	0.172119140625
1353.72559258217	0.169036865234375
1354.72559257965	0.1658935546875
1355.72559257712	0.16278076171875
1356.7255925746	0.159637451171875
1357.72559257207	0.156524658203125
1358.72559256955	0.153411865234375
1359.72559256702	0.150299072265625
1360.7255925645	0.147216796875
1361.72559256197	0.14410400390625
1362.72559255945	0.1409912109375
1363.72559255692	0.137939453125
1364.7255925544	0.134857177734375
1365.72559255187	0.13177490234375
1366.72559254935	0.12872314453125
1367.72559254682	0.125640869140625
1368.7255925443	0.122589111328125
1369.72559254178	0.119537353515625
1370.72559253925	0.11651611328125
1371.72559253673	0.11346435546875
1372.7255925342	0.110443115234375
1373.72559253168	0.107452392578125
1374.72559252915	0.10443115234375
1375.72559252663	0.101409912109375
1376.7255925241	0.098419189453125
1377.72559252158	0.09539794921875
1378.72559251905	0.092437744140625
1379.72559251653	0.089447021484375
1380.725592514	0.086456298828125
1381.72559251148	0.08349609375
1382.72559250895	0.08050537109375
1383.72559250643	0.077606201171875
1384.7255925039	0.07464599609375
1385.72559250138	0.071685791015625
1386.72559249885	0.068756103515625
1387.72559249633	0.065826416015625
1388.7255924938	0.062896728515625
1389.72559249128	0.059967041015625
1390.72559248876	0.05706787109375
1391.72559248623	0.054168701171875
1392.72559248371	0.05126953125
1393.72559248118	0.048382568359375
1394.72559247866	0.0455108642578125
1395.72559247613	0.0426513671875
1396.72559247361	0.0398040771484375
1397.72559247108	0.036968994140625
1398.72559246856	0.0341461181640625
1399.72559246603	0.0313385009765625
1400.72559246351	0.0285400390625
1401.72559246098	0.0257568359375
1402.72559245846	0.02298583984375
1403.72559245593	0.020233154296875
1404.72559245341	0.017486572265625
1405.72559245088	0.014764404296875
1406.72559244836	0.0120574951171875
1407.72559244583	0.0093658447265625
1408.72559244331	0.00668945312499999
1409.72559244079	0.0040252685546875
1410.72559243826	0.001385498046875
1411.72559243574	-0.00124511718750001
1412.72559243321	-0.0038482666015625
1413.72559243069	-0.0064361572265625
1414.72559242816	-0.009002685546875
