Time (s)	WE(1).Potential (V)
2697.45466218958	0.048797607421875
2698.45466218706	0.164276123046875
2699.45466218453	0.271728515625
2700.45466218201	0.371002197265625
2701.45466217948	0.4599609375
2702.45466217696	0.53985595703125
2703.45466217443	0.61492919921875
2704.45466217191	0.689697265625
2705.45466216938	0.76629638671875
2706.45466216686	0.8404541015625
2707.45466216433	0.90850830078125
2708.45466216181	0.965576171875
2709.45466215928	1.01043701171875
