Potential applied (V)	WE(1).Current (A)	Time (s)
0.004425048828125	-0.081494140625	5353.98801948248
0.00885009765625	-0.076190185546875	5354.03226948237
0.013275146484375	-0.07193603515625	5354.07651948226
0.0177001953125	-0.068206787109375	5354.12076948214
0.022125244140625	-0.064837646484375	5354.16501948203
0.02655029296875	-0.061737060546875	5354.20926948192
0.030975341796875	-0.0588623046875	5354.25351948181
0.035400390625	-0.0561737060546875	5354.2977694817
0.039825439453125	-0.05364990234375	5354.34201948159
0.04425048828125	-0.0512725830078125	5354.38626948147
0.048675537109375	-0.0490203857421875	5354.43051948136
0.0531005859375	-0.046893310546875	5354.47476948125
0.057525634765625	-0.044873046875	5354.51901948114
0.06195068359375	-0.0429473876953125	5354.56326948103
0.066375732421875	-0.04111328125	5354.60751948092
0.07080078125	-0.0393646240234375	5354.6517694808
0.075225830078125	-0.0376983642578125	5354.69601948069
0.07965087890625	-0.0361083984375	5354.74026948058
0.084075927734375	-0.0345855712890625	5354.78451948047
0.0885009765625	-0.0331298828125	5354.82876948036
0.092926025390625	-0.031732177734375	5354.87301948025
0.09735107421875	-0.0303924560546875	5354.91726948013
0.101776123046875	-0.02911376953125	5354.96151948002
0.106201171875	-0.027880859375	5355.00576947991
0.110626220703125	-0.02669677734375	5355.0500194798
0.11505126953125	-0.0255615234375	5355.09426947969
0.119476318359375	-0.0244659423828125	5355.13851947957
0.1239013671875	-0.0234130859375	5355.18276947946
0.128326416015625	-0.02239990234375	5355.22701947935
0.13275146484375	-0.0214202880859375	5355.27126947924
0.137176513671875	-0.0204742431640625	5355.31551947913
0.1416015625	-0.0195648193359375	5355.35976947902
0.146026611328125	-0.0186859130859375	5355.4040194789
0.15045166015625	-0.0178375244140625	5355.44826947879
0.154876708984375	-0.0170196533203125	5355.49251947868
0.1593017578125	-0.0162261962890625	5355.53676947857
0.163726806640625	-0.015460205078125	5355.58101947846
0.16815185546875	-0.0147186279296875	5355.62526947835
0.172576904296875	-0.01400146484375	5355.66951947823
0.177001953125	-0.0133056640625	5355.71376947812
0.181427001953125	-0.01263427734375	5355.75801947801
0.18585205078125	-0.0119842529296875	5355.8022694779
0.190277099609375	-0.0113525390625	5355.84651947779
0.1947021484375	-0.0107452392578125	5355.89076947768
0.199127197265625	-0.010150146484375	5355.93501947756
0.20355224609375	-0.009576416015625	5355.97926947745
0.207977294921875	-0.00902099609375	5356.02351947734
0.21240234375	-0.00848388671875	5356.06776947723
0.216827392578125	-0.007958984375	5356.11201947712
0.22125244140625	-0.007452392578125	5356.15626947701
0.225677490234375	-0.0069610595703125	5356.20051947689
0.2301025390625	-0.00648193359375	5356.24476947678
0.234527587890625	-0.0060211181640625	5356.28901947667
0.23895263671875	-0.0055694580078125	5356.33326947656
0.243377685546875	-0.005133056640625	5356.37751947645
0.247802734375	-0.00470916748046875	5356.42176947633
0.252227783203125	-0.00429656982421875	5356.46601947622
0.25665283203125	-0.0038970947265625	5356.51026947611
0.261077880859375	-0.00350830078125	5356.554519476
0.2655029296875	-0.003131103515625	5356.59876947589
0.269927978515625	-0.002774658203125	5356.64301947578
0.27435302734375	-0.00241790771484375	5356.68726947566
0.278778076171875	-0.00207000732421875	5356.73151947555
0.283203125	-0.00173248291015625	5356.77576947544
0.287628173828125	-0.00140472412109375	5356.82001947533
0.29205322265625	-0.00108612060546875	5356.86426947522
0.296478271484375	-0.00077606201171875	5356.90851947511
0.3009033203125	-0.000474822998046875	5356.95276947499
0.305328369140625	-0.000181610107421875	5356.99701947488
0.30975341796875	0.0001036376953125	5357.04126947477
0.314178466796875	0.000383575439453125	5357.08551947466
0.318603515625	0.00065338134765625	5357.12976947455
0.323028564453125	0.00091583251953125	5357.17401947444
0.32745361328125	0.00117095947265625	5357.21826947432
0.331878662109375	0.00141937255859375	5357.26251947421
0.3363037109375	0.0016607666015625	5357.3067694741
0.340728759765625	0.00189605712890625	5357.35101947399
0.34515380859375	0.00212432861328125	5357.39526947388
0.349578857421875	0.00234710693359375	5357.43951947377
0.35400390625	0.00256256103515625	5357.48376947365
0.358428955078125	0.00277435302734375	5357.52801947354
0.36285400390625	0.00297943115234375	5357.57226947343
0.367279052734375	0.00317962646484375	5357.61651947332
0.3717041015625	0.0033740234375	5357.66076947321
0.376129150390625	0.0035638427734375	5357.7050194731
0.38055419921875	0.0037481689453125	5357.74926947298
0.384979248046875	0.00392913818359375	5357.79351947287
0.389404296875	0.00410491943359375	5357.83776947276
0.393829345703125	0.00427398681640625	5357.88201947265
0.39825439453125	0.00444091796875	5357.92626947254
0.402679443359375	0.00460357666015625	5357.97051947242
0.4071044921875	0.004761962890625	5358.01476947231
0.411529541015625	0.00491546630859375	5358.0590194722
0.41595458984375	0.0050653076171875	5358.10326947209
0.420379638671875	0.0052117919921875	5358.14751947198
0.4248046875	0.00535491943359375	5358.19176947187
0.429229736328125	0.00549346923828125	5358.23601947175
0.43365478515625	0.00562957763671875	5358.28026947164
0.438079833984375	0.0057647705078125	5358.32451947153
0.4425048828125	0.00589508056640625	5358.36876947142
0.446929931640625	0.00602081298828125	5358.41301947131
0.45135498046875	0.006134033203125	5358.4572694712
0.455780029296875	0.0062530517578125	5358.50151947108
0.460205078125	0.0063690185546875	5358.54576947097
0.464630126953125	0.00648193359375	5358.59001947086
0.46905517578125	0.006591796875	5358.63426947075
0.473480224609375	0.0066986083984375	5358.67851947064
0.4779052734375	0.006805419921875	5358.72276947053
0.482330322265625	0.0069091796875	5358.76701947041
0.48675537109375	0.0070098876953125	5358.8112694703
0.491180419921875	0.0071075439453125	5358.85551947019
0.49560546875	0.0072052001953125	5358.89976947008
0.500030517578125	0.0072998046875	5358.94401946997
0.50445556640625	0.007391357421875	5358.98826946986
0.508880615234375	0.0074798583984375	5359.03251946974
0.5133056640625	0.007568359375	5359.07676946963
0.517730712890625	0.00765380859375	5359.12101946952
0.52215576171875	0.0077392578125	5359.16526946941
0.526580810546875	0.007818603515625	5359.2095194693
0.531005859375	0.00789794921875	5359.25376946918
0.535430908203125	0.007977294921875	5359.29801946907
0.53985595703125	0.008056640625	5359.34226946896
0.544281005859375	0.0081298828125	5359.38651946885
0.5487060546875	0.0082000732421875	5359.43076946874
0.553131103515625	0.0082733154296875	5359.47501946863
0.55755615234375	0.008343505859375	5359.51926946851
0.561981201171875	0.0084136962890625	5359.5635194684
0.56640625	0.0084808349609375	5359.60776946829
0.570831298828125	0.0085479736328125	5359.65201946818
0.57525634765625	0.008612060546875	5359.69626946807
0.579681396484375	0.008673095703125	5359.74051946796
0.5841064453125	0.008734130859375	5359.78476946784
0.588531494140625	0.0087921142578125	5359.82901946773
0.59295654296875	0.00885009765625	5359.87326946762
0.597381591796875	0.0089080810546875	5359.91751946751
0.601806640625	0.0089630126953125	5359.9617694674
0.606231689453125	0.0090179443359375	5360.00601946729
0.61065673828125	0.00906982421875	5360.05026946717
0.615081787109375	0.009124755859375	5360.09451946706
0.6195068359375	0.009173583984375	5360.13876946695
0.623931884765625	0.009222412109375	5360.18301946684
0.62835693359375	0.0092742919921875	5360.22726946673
0.632781982421875	0.009320068359375	5360.27151946662
0.63720703125	0.0093658447265625	5360.3157694665
0.641632080078125	0.0094085693359375	5360.36001946639
0.64605712890625	0.0094512939453125	5360.40426946628
0.650482177734375	0.009490966796875	5360.44851946617
0.6549072265625	0.0095306396484375	5360.49276946606
0.659332275390625	0.0095703125	5360.53701946595
0.66375732421875	0.0096099853515625	5360.58126946583
0.668182373046875	0.0096466064453125	5360.62551946572
0.672607421875	0.0096832275390625	5360.66976946561
0.677032470703125	0.009716796875	5360.7140194655
0.68145751953125	0.0097503662109375	5360.75826946539
0.685882568359375	0.009783935546875	5360.80251946527
0.6903076171875	0.0098175048828125	5360.84676946516
0.694732666015625	0.0098480224609375	5360.89101946505
0.69915771484375	0.0098785400390625	5360.93526946494
0.703582763671875	0.009906005859375	5360.97951946483
0.7080078125	0.0099334716796875	5361.02376946472
0.712432861328125	0.0099609375	5361.0680194646
0.71685791015625	0.0099884033203125	5361.11226946449
0.721282958984375	0.0100128173828125	5361.15651946438
0.7257080078125	0.010040283203125	5361.20076946427
0.730133056640625	0.010064697265625	5361.24501946416
0.73455810546875	0.010089111328125	5361.28926946405
0.738983154296875	0.0101104736328125	5361.33351946393
0.743408203125	0.0101318359375	5361.37776946382
0.747833251953125	0.01015625	5361.42201946371
0.75225830078125	0.010174560546875	5361.4662694636
0.756683349609375	0.0101959228515625	5361.51051946349
0.7611083984375	0.01021728515625	5361.55476946338
0.765533447265625	0.0102386474609375	5361.59901946326
0.76995849609375	0.010260009765625	5361.64326946315
0.774383544921875	0.0102783203125	5361.68751946304
0.77880859375	0.0102996826171875	5361.73176946293
0.783233642578125	0.0103179931640625	5361.77601946282
0.78765869140625	0.0103363037109375	5361.82026946271
0.792083740234375	0.010357666015625	5361.86451946259
0.7965087890625	0.0103759765625	5361.90876946248
0.800933837890625	0.010394287109375	5361.95301946237
0.80535888671875	0.0104156494140625	5361.99726946226
0.809783935546875	0.0104339599609375	5362.04151946215
0.814208984375	0.0104522705078125	5362.08576946203
0.818634033203125	0.0104705810546875	5362.13001946192
0.82305908203125	0.010491943359375	5362.17426946181
0.827484130859375	0.01051025390625	5362.2185194617
0.8319091796875	0.0105316162109375	5362.26276946159
0.836334228515625	0.0105499267578125	5362.30701946148
0.84075927734375	0.0105712890625	5362.35126946136
0.845184326171875	0.0105926513671875	5362.39551946125
0.849609375	0.0106109619140625	5362.43976946114
0.854034423828125	0.01063232421875	5362.48401946103
0.85845947265625	0.0106536865234375	5362.52826946092
0.862884521484375	0.010675048828125	5362.57251946081
0.8673095703125	0.010699462890625	5362.61676946069
0.871734619140625	0.0107208251953125	5362.66101946058
0.87615966796875	0.0107452392578125	5362.70526946047
0.880584716796875	0.0107696533203125	5362.74951946036
0.885009765625	0.0107940673828125	5362.79376946025
0.889434814453125	0.010821533203125	5362.83801946014
0.89385986328125	0.0108489990234375	5362.88226946002
0.898284912109375	0.01087646484375	5362.92651945991
0.9027099609375	0.0109039306640625	5362.9707694598
0.907135009765625	0.010931396484375	5363.01501945969
0.91156005859375	0.0109619140625	5363.05926945958
0.915985107421875	0.010992431640625	5363.10351945947
0.92041015625	0.01102294921875	5363.14776945935
0.924835205078125	0.0110565185546875	5363.19201945924
0.92926025390625	0.0110931396484375	5363.23626945913
0.933685302734375	0.0111297607421875	5363.28051945902
0.9381103515625	0.01116943359375	5363.32476945891
0.942535400390625	0.0112091064453125	5363.3690194588
0.94696044921875	0.011248779296875	5363.41326945868
0.951385498046875	0.01129150390625	5363.45751945857
0.955810546875	0.011334228515625	5363.50176945846
0.960235595703125	0.0113800048828125	5363.54601945835
0.96466064453125	0.01142578125	5363.59026945824
0.969085693359375	0.011474609375	5363.63451945812
0.9735107421875	0.0115264892578125	5363.67876945801
0.977935791015625	0.0115753173828125	5363.7230194579
0.98236083984375	0.0116302490234375	5363.76726945779
0.986785888671875	0.0116851806640625	5363.81151945768
0.9912109375	0.0117431640625	5363.85576945757
0.995635986328125	0.0118011474609375	5363.90001945745
1.00006103515625	0.0118621826171875	5363.94426945734
0.995635986328125	0.011151123046875	5363.98851945723
0.9912109375	0.0104888916015625	5364.03276945712
0.986785888671875	0.0098663330078125	5364.07701945701
0.98236083984375	0.009271240234375	5364.1212694569
0.977935791015625	0.00870361328125	5364.16551945678
0.9735107421875	0.008160400390625	5364.20976945667
0.969085693359375	0.0076416015625	5364.25401945656
0.96466064453125	0.007135009765625	5364.29826945645
0.960235595703125	0.0066497802734375	5364.34251945634
0.955810546875	0.006182861328125	5364.38676945623
0.951385498046875	0.00572509765625	5364.43101945611
0.94696044921875	0.00528564453125	5364.475269456
0.942535400390625	0.00486083984375	5364.51951945589
0.9381103515625	0.0044476318359375	5364.56376945578
0.933685302734375	0.00404327392578125	5364.60801945567
0.92926025390625	0.0036541748046875	5364.65226945556
0.924835205078125	0.0032757568359375	5364.69651945544
0.92041015625	0.00291015625	5364.74076945533
0.915985107421875	0.00255035400390625	5364.78501945522
0.91156005859375	0.00220062255859375	5364.82926945511
0.907135009765625	0.00186065673828125	5364.873519455
0.9027099609375	0.00152923583984375	5364.91776945488
0.898284912109375	0.0012060546875	5364.96201945477
0.89385986328125	0.00089141845703125	5365.00626945466
0.889434814453125	0.00058441162109375	5365.05051945455
0.885009765625	0.00028497314453125	5365.09476945444
0.880584716796875	-6.787109375E-06	5365.13901945433
0.87615966796875	-0.000291534423828125	5365.18326945421
0.871734619140625	-0.00056884765625	5365.2275194541
0.8673095703125	-0.00084014892578125	5365.27176945399
0.862884521484375	-0.0011041259765625	5365.31601945388
0.85845947265625	-0.00136138916015625	5365.36026945377
0.854034423828125	-0.001612548828125	5365.40451945366
0.849609375	-0.00185821533203125	5365.44876945354
0.845184326171875	-0.0020977783203125	5365.49301945343
0.84075927734375	-0.00233184814453125	5365.53726945332
0.836334228515625	-0.00255950927734375	5365.58151945321
0.8319091796875	-0.00278167724609375	5365.6257694531
0.827484130859375	-0.00299835205078125	5365.67001945299
0.82305908203125	-0.00321044921875	5365.71426945287
0.818634033203125	-0.00341644287109375	5365.75851945276
0.814208984375	-0.0036175537109375	5365.80276945265
0.809783935546875	-0.0038134765625	5365.84701945254
0.80535888671875	-0.00400482177734375	5365.89126945243
0.800933837890625	-0.00419189453125	5365.93551945232
0.7965087890625	-0.00437347412109375	5365.9797694522
0.792083740234375	-0.00455047607421875	5366.02401945209
0.78765869140625	-0.004722900390625	5366.06826945198
0.783233642578125	-0.00489105224609375	5366.11251945187
0.77880859375	-0.0050543212890625	5366.15676945176
0.774383544921875	-0.005213623046875	5366.20101945165
0.76995849609375	-0.00536895751953125	5366.24526945153
0.765533447265625	-0.00552032470703125	5366.28951945142
0.7611083984375	-0.005667724609375	5366.33376945131
0.756683349609375	-0.00581085205078125	5366.3780194512
0.75225830078125	-0.0059503173828125	5366.42226945109
0.747833251953125	-0.00608673095703125	5366.46651945097
0.743408203125	-0.0061981201171875	5366.51076945086
0.738983154296875	-0.0063232421875	5366.55501945075
0.73455810546875	-0.0064483642578125	5366.59926945064
0.730133056640625	-0.0065704345703125	5366.64351945053
0.7257080078125	-0.006689453125	5366.68776945042
0.721282958984375	-0.0068023681640625	5366.7320194503
0.71685791015625	-0.006915283203125	5366.77626945019
0.712432861328125	-0.007025146484375	5366.82051945008
0.7080078125	-0.00712890625	5366.86476944997
0.703582763671875	-0.007232666015625	5366.90901944986
0.69915771484375	-0.0073333740234375	5366.95326944975
0.694732666015625	-0.007427978515625	5366.99751944963
0.6903076171875	-0.0075225830078125	5367.04176944952
0.685882568359375	-0.0076171875	5367.08601944941
0.68145751953125	-0.0077056884765625	5367.1302694493
0.677032470703125	-0.0077911376953125	5367.17451944919
0.672607421875	-0.00787353515625	5367.21876944907
0.668182373046875	-0.0079559326171875	5367.26301944896
0.66375732421875	-0.0080352783203125	5367.30726944885
0.659332275390625	-0.0081146240234375	5367.35151944874
0.6549072265625	-0.00819091796875	5367.39576944863
0.650482177734375	-0.0082611083984375	5367.44001944852
0.64605712890625	-0.008331298828125	5367.48426944841
0.641632080078125	-0.0084014892578125	5367.52851944829
0.63720703125	-0.0084716796875	5367.57276944818
0.632781982421875	-0.0085357666015625	5367.61701944807
0.62835693359375	-0.008599853515625	5367.66126944796
0.623931884765625	-0.0086669921875	5367.70551944785
0.6195068359375	-0.00872802734375	5367.74976944773
0.615081787109375	-0.0087860107421875	5367.79401944762
0.61065673828125	-0.008843994140625	5367.83826944751
0.606231689453125	-0.0089019775390625	5367.8825194474
0.601806640625	-0.008953857421875	5367.92676944729
0.597381591796875	-0.0090087890625	5367.97101944718
0.59295654296875	-0.0090606689453125	5368.01526944706
0.588531494140625	-0.0091094970703125	5368.05951944695
0.5841064453125	-0.0091583251953125	5368.10376944684
0.579681396484375	-0.0092041015625	5368.14801944673
0.57525634765625	-0.0092529296875	5368.19226944662
0.570831298828125	-0.0092987060546875	5368.23651944651
0.56640625	-0.009344482421875	5368.28076944639
0.561981201171875	-0.00938720703125	5368.32501944628
0.55755615234375	-0.009429931640625	5368.36926944617
0.553131103515625	-0.00947265625	5368.41351944606
0.5487060546875	-0.009515380859375	5368.45776944595
0.544281005859375	-0.009552001953125	5368.50201944584
0.53985595703125	-0.0095947265625	5368.54626944572
0.535430908203125	-0.00963134765625	5368.59051944561
0.531005859375	-0.0096710205078125	5368.6347694455
0.526580810546875	-0.0097076416015625	5368.67901944539
0.52215576171875	-0.009747314453125	5368.72326944528
0.517730712890625	-0.009783935546875	5368.76751944516
0.5133056640625	-0.009820556640625	5368.81176944505
0.508880615234375	-0.009857177734375	5368.85601944494
0.50445556640625	-0.0098907470703125	5368.90026944483
0.500030517578125	-0.0099273681640625	5368.94451944472
0.49560546875	-0.0099609375	5368.98876944461
0.491180419921875	-0.0099945068359375	5369.0330194445
0.48675537109375	-0.010028076171875	5369.07726944438
0.482330322265625	-0.0100616455078125	5369.12151944427
0.4779052734375	-0.01009521484375	5369.16576944416
0.473480224609375	-0.0101287841796875	5369.21001944405
0.46905517578125	-0.0101593017578125	5369.25426944394
0.464630126953125	-0.01019287109375	5369.29851944382
0.460205078125	-0.010223388671875	5369.34276944371
0.455780029296875	-0.0102569580078125	5369.3870194436
0.45135498046875	-0.0102874755859375	5369.43126944349
0.446929931640625	-0.010321044921875	5369.47551944338
0.4425048828125	-0.0103515625	5369.51976944327
0.438079833984375	-0.0103851318359375	5369.56401944315
0.43365478515625	-0.0104156494140625	5369.60826944304
0.429229736328125	-0.01044921875	5369.65251944293
0.4248046875	-0.010479736328125	5369.69676944282
0.420379638671875	-0.01051025390625	5369.74101944271
0.41595458984375	-0.0105438232421875	5369.7852694426
0.411529541015625	-0.0105743408203125	5369.82951944248
0.4071044921875	-0.01060791015625	5369.87376944237
0.402679443359375	-0.010638427734375	5369.91801944226
0.39825439453125	-0.0106689453125	5369.96226944215
0.393829345703125	-0.0107025146484375	5370.00651944204
0.389404296875	-0.0107330322265625	5370.05076944192
0.384979248046875	-0.0107666015625	5370.09501944181
0.38055419921875	-0.010797119140625	5370.1392694417
0.376129150390625	-0.01082763671875	5370.18351944159
0.3717041015625	-0.0108612060546875	5370.22776944148
0.367279052734375	-0.0108917236328125	5370.27201944137
0.36285400390625	-0.0109222412109375	5370.31626944125
0.358428955078125	-0.0109527587890625	5370.36051944114
0.35400390625	-0.010986328125	5370.40476944103
0.349578857421875	-0.011016845703125	5370.44901944092
0.34515380859375	-0.01104736328125	5370.49326944081
0.340728759765625	-0.011077880859375	5370.5375194407
0.3363037109375	-0.0111114501953125	5370.58176944058
0.331878662109375	-0.01114501953125	5370.62601944047
0.32745361328125	-0.011175537109375	5370.67026944036
0.323028564453125	-0.0112060546875	5370.71451944025
0.318603515625	-0.0112396240234375	5370.75876944014
0.314178466796875	-0.0112701416015625	5370.80301944003
0.30975341796875	-0.0113037109375	5370.84726943991
0.305328369140625	-0.0113372802734375	5370.8915194398
0.3009033203125	-0.0113677978515625	5370.93576943969
0.296478271484375	-0.0113983154296875	5370.98001943958
0.29205322265625	-0.0114288330078125	5371.02426943947
0.287628173828125	-0.0114593505859375	5371.06851943936
0.283203125	-0.0114898681640625	5371.11276943924
0.278778076171875	-0.011517333984375	5371.15701943913
0.27435302734375	-0.0115478515625	5371.20126943902
0.269927978515625	-0.0115753173828125	5371.24551943891
0.2655029296875	-0.0116058349609375	5371.2897694388
0.261077880859375	-0.01163330078125	5371.33401943869
0.25665283203125	-0.0116607666015625	5371.37826943857
0.252227783203125	-0.011688232421875	5371.42251943846
0.247802734375	-0.0117156982421875	5371.46676943835
0.243377685546875	-0.0117401123046875	5371.51101943824
0.23895263671875	-0.011767578125	5371.55526943813
0.234527587890625	-0.0117950439453125	5371.59951943801
0.2301025390625	-0.0118194580078125	5371.6437694379
0.225677490234375	-0.0118438720703125	5371.68801943779
0.22125244140625	-0.0118682861328125	5371.73226943768
0.216827392578125	-0.0118927001953125	5371.77651943757
0.21240234375	-0.0119171142578125	5371.82076943746
0.207977294921875	-0.0119415283203125	5371.86501943734
0.20355224609375	-0.0119659423828125	5371.90926943723
0.199127197265625	-0.0119873046875	5371.95351943712
0.1947021484375	-0.01201171875	5371.99776943701
0.190277099609375	-0.0120330810546875	5372.0420194369
0.18585205078125	-0.012054443359375	5372.08626943679
0.181427001953125	-0.0120758056640625	5372.13051943667
0.177001953125	-0.01209716796875	5372.17476943656
0.172576904296875	-0.0121185302734375	5372.21901943645
0.16815185546875	-0.012139892578125	5372.26326943634
0.163726806640625	-0.0121612548828125	5372.30751943623
0.1593017578125	-0.0121795654296875	5372.35176943612
0.154876708984375	-0.012200927734375	5372.396019436
0.15045166015625	-0.01221923828125	5372.44026943589
0.146026611328125	-0.0122406005859375	5372.48451943578
0.1416015625	-0.0122589111328125	5372.52876943567
0.137176513671875	-0.0122802734375	5372.57301943556
0.13275146484375	-0.012298583984375	5372.61726943545
0.128326416015625	-0.01231689453125	5372.66151943533
0.1239013671875	-0.0123382568359375	5372.70576943522
0.119476318359375	-0.0123565673828125	5372.75001943511
0.11505126953125	-0.012371826171875	5372.794269435
0.110626220703125	-0.01239013671875	5372.83851943489
0.106201171875	-0.012408447265625	5372.88276943477
0.101776123046875	-0.0124267578125	5372.92701943466
0.09735107421875	-0.0124481201171875	5372.97126943455
0.092926025390625	-0.01246337890625	5373.01551943444
0.0885009765625	-0.012481689453125	5373.05976943433
0.084075927734375	-0.0125	5373.10401943422
0.07965087890625	-0.012518310546875	5373.1482694341
0.075225830078125	-0.01253662109375	5373.19251943399
0.07080078125	-0.012554931640625	5373.23676943388
0.066375732421875	-0.0125732421875	5373.28101943377
0.06195068359375	-0.012591552734375	5373.32526943366
0.057525634765625	-0.01260986328125	5373.36951943355
0.0531005859375	-0.012628173828125	5373.41376943343
0.048675537109375	-0.012646484375	5373.45801943332
0.04425048828125	-0.012664794921875	5373.50226943321
0.039825439453125	-0.01268310546875	5373.5465194331
0.035400390625	-0.0127044677734375	5373.59076943299
0.030975341796875	-0.0127227783203125	5373.63501943288
0.02655029296875	-0.0127410888671875	5373.67926943276
0.022125244140625	-0.012762451171875	5373.72351943265
0.0177001953125	-0.0127838134765625	5373.76776943254
0.013275146484375	-0.0128021240234375	5373.81201943243
0.00885009765625	-0.012823486328125	5373.85626943232
0.004425048828125	-0.012841796875	5373.90051943221
0	-0.0128662109375	5373.94476943209
0.004425048828125	-0.0121185302734375	5373.98901943198
0.00885009765625	-0.011419677734375	5374.03326943187
0.013275146484375	-0.0107574462890625	5374.07751943176
0.0177001953125	-0.010125732421875	5374.12176943165
0.022125244140625	-0.0095184326171875	5374.16601943154
0.02655029296875	-0.0089385986328125	5374.21026943142
0.030975341796875	-0.008380126953125	5374.25451943131
0.035400390625	-0.0078399658203125	5374.2987694312
0.039825439453125	-0.0073211669921875	5374.34301943109
0.04425048828125	-0.0068206787109375	5374.38726943098
0.048675537109375	-0.00633544921875	5374.43151943086
0.0531005859375	-0.005865478515625	5374.47576943075
0.057525634765625	-0.005413818359375	5374.52001943064
0.06195068359375	-0.0049737548828125	5374.56426943053
0.066375732421875	-0.0045477294921875	5374.60851943042
0.07080078125	-0.00413543701171875	5374.65276943031
0.075225830078125	-0.00373504638671875	5374.69701943019
0.07965087890625	-0.0033477783203125	5374.74126943008
0.084075927734375	-0.00298248291015625	5374.78551942997
0.0885009765625	-0.00261566162109375	5374.82976942986
0.092926025390625	-0.002259521484375	5374.87401942975
0.09735107421875	-0.0019134521484375	5374.91826942964
0.101776123046875	-0.0015777587890625	5374.96251942952
0.106201171875	-0.00125091552734375	5375.00676942941
0.110626220703125	-0.00093414306640625	5375.0510194293
0.11505126953125	-0.0006256103515625	5375.09526942919
0.119476318359375	-0.0003277587890625	5375.13951942908
0.1239013671875	-3.594970703125E-05	5375.18376942897
0.128326416015625	0.00024761962890625	5375.22801942885
0.13275146484375	0.00052337646484375	5375.27226942874
0.137176513671875	0.00079254150390625	5375.31651942863
0.1416015625	0.00105377197265625	5375.36076942852
0.146026611328125	0.00130828857421875	5375.40501942841
0.15045166015625	0.00155517578125	5375.4492694283
0.154876708984375	0.00179595947265625	5375.49351942818
0.1593017578125	0.00202972412109375	5375.53776942807
0.163726806640625	0.00225799560546875	5375.58201942796
0.16815185546875	0.002479248046875	5375.62626942785
0.172576904296875	0.00269561767578125	5375.67051942774
0.177001953125	0.00290679931640625	5375.71476942762
0.181427001953125	0.00311187744140625	5375.75901942751
0.18585205078125	0.00331146240234375	5375.8032694274
0.190277099609375	0.00350616455078125	5375.84751942729
0.1947021484375	0.00369476318359375	5375.89176942718
0.199127197265625	0.00387908935546875	5375.93601942707
0.20355224609375	0.00405914306640625	5375.98026942695
0.207977294921875	0.00423431396484375	5376.02451942684
0.21240234375	0.00440521240234375	5376.06876942673
0.216827392578125	0.00457122802734375	5376.11301942662
0.22125244140625	0.0047332763671875	5376.15726942651
0.225677490234375	0.00489105224609375	5376.2015194264
0.2301025390625	0.005045166015625	5376.24576942628
0.234527587890625	0.005194091796875	5376.29001942617
0.23895263671875	0.005340576171875	5376.33426942606
0.243377685546875	0.0054827880859375	5376.37851942595
0.247802734375	0.00562164306640625	5376.42276942584
0.252227783203125	0.00575714111328125	5376.46701942573
0.25665283203125	0.00588897705078125	5376.51126942561
0.261077880859375	0.00601776123046875	5376.5555194255
0.2655029296875	0.006134033203125	5376.59976942539
0.269927978515625	0.006256103515625	5376.64401942528
0.27435302734375	0.0063751220703125	5376.68826942517
0.278778076171875	0.0064910888671875	5376.73251942506
0.283203125	0.00660400390625	5376.77676942494
0.287628173828125	0.0067169189453125	5376.82101942483
0.29205322265625	0.00682373046875	5376.86526942472
0.296478271484375	0.0069305419921875	5376.90951942461
0.3009033203125	0.00703125	5376.9537694245
0.305328369140625	0.0071319580078125	5376.99801942439
0.30975341796875	0.0072296142578125	5377.04226942427
0.314178466796875	0.0073272705078125	5377.08651942416
0.318603515625	0.007421875	5377.13076942405
0.323028564453125	0.007513427734375	5377.17501942394
0.32745361328125	0.00760498046875	5377.21926942383
0.331878662109375	0.0076904296875	5377.26351942371
0.3363037109375	0.0077789306640625	5377.3077694236
0.340728759765625	0.0078582763671875	5377.35201942349
0.34515380859375	0.007940673828125	5377.39626942338
0.349578857421875	0.00802001953125	5377.44051942327
0.35400390625	0.0080963134765625	5377.48476942316
0.358428955078125	0.0081756591796875	5377.52901942304
0.36285400390625	0.0082489013671875	5377.57326942293
0.367279052734375	0.0083251953125	5377.61751942282
0.3717041015625	0.0083953857421875	5377.66176942271
0.376129150390625	0.0084686279296875	5377.7060194226
0.38055419921875	0.008538818359375	5377.75026942249
0.384979248046875	0.00860595703125	5377.79451942237
0.389404296875	0.0086700439453125	5377.83876942226
0.393829345703125	0.0087371826171875	5377.88301942215
0.39825439453125	0.0087982177734375	5377.92726942204
0.402679443359375	0.0088653564453125	5377.97151942193
0.4071044921875	0.0089263916015625	5378.01576942182
0.411529541015625	0.0089874267578125	5378.0600194217
0.41595458984375	0.0090484619140625	5378.10426942159
0.420379638671875	0.0091064453125	5378.14851942148
0.4248046875	0.0091644287109375	5378.19276942137
0.429229736328125	0.009222412109375	5378.23701942126
0.43365478515625	0.00927734375	5378.28126942115
0.438079833984375	0.0093292236328125	5378.32551942103
0.4425048828125	0.0093841552734375	5378.36976942092
0.446929931640625	0.00943603515625	5378.41401942081
0.45135498046875	0.009490966796875	5378.4582694207
0.455780029296875	0.0095428466796875	5378.50251942059
0.460205078125	0.0095916748046875	5378.54676942047
0.464630126953125	0.0096405029296875	5378.59101942036
0.46905517578125	0.0096893310546875	5378.63526942025
0.473480224609375	0.009735107421875	5378.67951942014
0.4779052734375	0.009783935546875	5378.72376942003
0.482330322265625	0.00982666015625	5378.76801941992
0.48675537109375	0.0098724365234375	5378.8122694198
0.491180419921875	0.009918212890625	5378.85651941969
0.49560546875	0.0099639892578125	5378.90076941958
0.500030517578125	0.010009765625	5378.94501941947
0.50445556640625	0.010052490234375	5378.98926941936
0.508880615234375	0.01009521484375	5379.03351941925
0.5133056640625	0.0101348876953125	5379.07776941913
0.517730712890625	0.010174560546875	5379.12201941902
0.52215576171875	0.0102142333984375	5379.16626941891
0.526580810546875	0.01025390625	5379.2105194188
0.531005859375	0.0102935791015625	5379.25476941869
0.535430908203125	0.0103302001953125	5379.29901941858
0.53985595703125	0.010369873046875	5379.34326941846
0.544281005859375	0.010406494140625	5379.38751941835
0.5487060546875	0.0104400634765625	5379.43176941824
0.553131103515625	0.0104766845703125	5379.47601941813
0.55755615234375	0.01051025390625	5379.52026941802
0.561981201171875	0.010546875	5379.56451941791
0.56640625	0.0105804443359375	5379.60876941779
0.570831298828125	0.010614013671875	5379.65301941768
0.57525634765625	0.0106475830078125	5379.69726941757
0.579681396484375	0.0106781005859375	5379.74151941746
0.5841064453125	0.010711669921875	5379.78576941735
0.588531494140625	0.0107391357421875	5379.83001941724
0.59295654296875	0.0107696533203125	5379.87426941712
0.597381591796875	0.0108001708984375	5379.91851941701
0.601806640625	0.0108306884765625	5379.9627694169
0.606231689453125	0.010858154296875	5380.00701941679
0.61065673828125	0.0108856201171875	5380.05126941668
0.615081787109375	0.0109130859375	5380.09551941656
0.6195068359375	0.0109375	5380.13976941645
0.623931884765625	0.0109619140625	5380.18401941634
0.62835693359375	0.010992431640625	5380.22826941623
0.632781982421875	0.0110137939453125	5380.27251941612
0.63720703125	0.0110382080078125	5380.31676941601
0.641632080078125	0.0110626220703125	5380.36101941589
0.64605712890625	0.011083984375	5380.40526941578
0.650482177734375	0.0111053466796875	5380.44951941567
0.6549072265625	0.011126708984375	5380.49376941556
0.659332275390625	0.0111480712890625	5380.53801941545
0.66375732421875	0.0111663818359375	5380.58226941534
0.668182373046875	0.0111846923828125	5380.62651941522
0.672607421875	0.0112030029296875	5380.67076941511
0.677032470703125	0.0112213134765625	5380.715019415
0.68145751953125	0.0112396240234375	5380.75926941489
0.685882568359375	0.0112548828125	5380.80351941478
0.6903076171875	0.0112701416015625	5380.84776941466
0.694732666015625	0.011285400390625	5380.89201941455
0.69915771484375	0.011297607421875	5380.93626941444
0.703582763671875	0.011309814453125	5380.98051941433
0.7080078125	0.0113250732421875	5381.02476941422
0.712432861328125	0.0113372802734375	5381.06901941411
0.71685791015625	0.0113494873046875	5381.113269414
0.721282958984375	0.011358642578125	5381.15751941388
0.7257080078125	0.011370849609375	5381.20176941377
0.730133056640625	0.0113800048828125	5381.24601941366
0.73455810546875	0.0113922119140625	5381.29026941355
0.738983154296875	0.0114013671875	5381.33451941344
0.743408203125	0.011407470703125	5381.37876941332
0.747833251953125	0.0114166259765625	5381.42301941321
0.75225830078125	0.0114227294921875	5381.4672694131
0.756683349609375	0.011431884765625	5381.51151941299
0.7611083984375	0.0114410400390625	5381.55576941288
0.765533447265625	0.0114471435546875	5381.60001941277
0.76995849609375	0.011456298828125	5381.64426941265
0.774383544921875	0.01146240234375	5381.68851941254
0.77880859375	0.011468505859375	5381.73276941243
0.783233642578125	0.011474609375	5381.77701941232
0.78765869140625	0.0114837646484375	5381.82126941221
0.792083740234375	0.0114898681640625	5381.8655194121
0.7965087890625	0.0114959716796875	5381.90976941198
0.800933837890625	0.0115020751953125	5381.95401941187
0.80535888671875	0.01151123046875	5381.99826941176
0.809783935546875	0.011517333984375	5382.04251941165
0.814208984375	0.0115264892578125	5382.08676941154
0.818634033203125	0.0115325927734375	5382.13101941143
0.82305908203125	0.011541748046875	5382.17526941131
0.827484130859375	0.0115509033203125	5382.2195194112
0.8319091796875	0.0115570068359375	5382.26376941109
0.836334228515625	0.011566162109375	5382.30801941098
0.84075927734375	0.011578369140625	5382.35226941087
0.845184326171875	0.0115875244140625	5382.39651941075
0.849609375	0.0115966796875	5382.44076941064
0.854034423828125	0.01160888671875	5382.48501941053
0.85845947265625	0.0116180419921875	5382.52926941042
0.862884521484375	0.0116302490234375	5382.57351941031
0.8673095703125	0.0116424560546875	5382.6177694102
0.871734619140625	0.0116546630859375	5382.66201941009
0.87615966796875	0.011669921875	5382.70626940997
0.880584716796875	0.0116851806640625	5382.75051940986
0.885009765625	0.011700439453125	5382.79476940975
0.889434814453125	0.0117156982421875	5382.83901940964
0.89385986328125	0.0117340087890625	5382.88326940953
0.898284912109375	0.0117523193359375	5382.92751940941
0.9027099609375	0.0117706298828125	5382.9717694093
0.907135009765625	0.0117919921875	5383.01601940919
0.91156005859375	0.0118133544921875	5383.06026940908
0.915985107421875	0.011834716796875	5383.10451940897
0.92041015625	0.011859130859375	5383.14876940886
0.924835205078125	0.011883544921875	5383.19301940874
0.92926025390625	0.0119110107421875	5383.23726940863
0.933685302734375	0.0119384765625	5383.28151940852
0.9381103515625	0.0119720458984375	5383.32576940841
0.942535400390625	0.0120025634765625	5383.3700194083
0.94696044921875	0.0120330810546875	5383.41426940819
0.951385498046875	0.012066650390625	5383.45851940807
0.955810546875	0.012103271484375	5383.50276940796
0.960235595703125	0.012139892578125	5383.54701940785
0.96466064453125	0.0121795654296875	5383.59126940774
0.969085693359375	0.01221923828125	5383.63551940763
0.9735107421875	0.012261962890625	5383.67976940751
0.977935791015625	0.0123046875	5383.7240194074
0.98236083984375	0.0123504638671875	5383.76826940729
0.986785888671875	0.0123992919921875	5383.81251940718
0.9912109375	0.0124481201171875	5383.85676940707
0.995635986328125	0.0125	5383.90101940696
1.00006103515625	0.0125518798828125	5383.94526940685
0.995635986328125	0.0118316650390625	5383.98951940673
0.9912109375	0.011163330078125	5384.03376940662
0.986785888671875	0.0105316162109375	5384.07801940651
0.98236083984375	0.009930419921875	5384.1222694064
0.977935791015625	0.009356689453125	5384.16651940629
0.9735107421875	0.008807373046875	5384.21076940617
0.969085693359375	0.0082763671875	5384.25501940606
0.96466064453125	0.0077667236328125	5384.29926940595
0.960235595703125	0.0072723388671875	5384.34351940584
0.955810546875	0.0067962646484375	5384.38776940573
0.951385498046875	0.00633544921875	5384.43201940562
0.94696044921875	0.0058868408203125	5384.4762694055
0.942535400390625	0.0054534912109375	5384.52051940539
0.9381103515625	0.0050323486328125	5384.56476940528
0.933685302734375	0.0046221923828125	5384.60901940517
0.92926025390625	0.00422515869140625	5384.65326940506
0.924835205078125	0.0038397216796875	5384.69751940495
0.92041015625	0.00346405029296875	5384.74176940483
0.915985107421875	0.00309906005859375	5384.78601940472
0.91156005859375	0.0027459716796875	5384.83026940461
0.907135009765625	0.002398681640625	5384.8745194045
0.9027099609375	0.00206024169921875	5384.91876940439
0.898284912109375	0.00173065185546875	5384.96301940428
0.89385986328125	0.0014093017578125	5385.00726940416
0.889434814453125	0.0010955810546875	5385.05151940405
0.885009765625	0.00079010009765625	5385.09576940394
0.880584716796875	0.000491943359375	5385.14001940383
0.87615966796875	0.000200958251953125	5385.18426940372
0.871734619140625	-8.33740234375E-05	5385.2285194036
0.8673095703125	-0.000360107421875	5385.27276940349
0.862884521484375	-0.0006304931640625	5385.31701940338
0.85845947265625	-0.0008935546875	5385.36126940327
0.854034423828125	-0.00115081787109375	5385.40551940316
0.849609375	-0.001402587890625	5385.44976940305
0.845184326171875	-0.00164794921875	5385.49401940294
0.84075927734375	-0.00188720703125	5385.53826940282
0.836334228515625	-0.0021209716796875	5385.58251940271
0.8319091796875	-0.00234893798828125	5385.6267694026
0.827484130859375	-0.00257110595703125	5385.67101940249
0.82305908203125	-0.00278839111328125	5385.71526940238
0.818634033203125	-0.002999267578125	5385.75951940226
0.814208984375	-0.0032061767578125	5385.80376940215
0.809783935546875	-0.0034075927734375	5385.84801940204
0.80535888671875	-0.00360382080078125	5385.89226940193
0.800933837890625	-0.00379547119140625	5385.93651940182
0.7965087890625	-0.00398223876953125	5385.98076940171
0.792083740234375	-0.00416412353515625	5386.02501940159
0.78765869140625	-0.00434112548828125	5386.06926940148
0.783233642578125	-0.00451446533203125	5386.11351940137
0.77880859375	-0.00468231201171875	5386.15776940126
0.774383544921875	-0.0048468017578125	5386.20201940115
0.76995849609375	-0.0050067138671875	5386.24626940104
0.765533447265625	-0.00516204833984375	5386.29051940092
0.7611083984375	-0.0053143310546875	5386.33476940081
0.756683349609375	-0.00546173095703125	5386.3790194007
0.75225830078125	-0.00560577392578125	5386.42326940059
0.747833251953125	-0.00574554443359375	5386.46751940048
0.743408203125	-0.0058819580078125	5386.51176940036
0.738983154296875	-0.0060125732421875	5386.55601940025
0.73455810546875	-0.0061187744140625	5386.60026940014
0.730133056640625	-0.006243896484375	5386.64451940003
0.7257080078125	-0.006365966796875	5386.68876939992
0.721282958984375	-0.006488037109375	5386.73301939981
0.71685791015625	-0.00660400390625	5386.77726939969
0.712432861328125	-0.0067138671875	5386.82151939958
0.7080078125	-0.00682373046875	5386.86576939947
0.703582763671875	-0.0069305419921875	5386.91001939936
0.69915771484375	-0.00703125	5386.95426939925
0.694732666015625	-0.0071319580078125	5386.99851939914
0.6903076171875	-0.007232666015625	5387.04276939902
0.685882568359375	-0.0073272705078125	5387.08701939891
0.68145751953125	-0.0074188232421875	5387.1312693988
0.677032470703125	-0.0075103759765625	5387.17551939869
0.672607421875	-0.007598876953125	5387.21976939858
0.668182373046875	-0.007684326171875	5387.26401939847
0.66375732421875	-0.0077667236328125	5387.30826939835
0.659332275390625	-0.007843017578125	5387.35251939824
0.6549072265625	-0.00792236328125	5387.39676939813
0.650482177734375	-0.0079986572265625	5387.44101939802
0.64605712890625	-0.0080718994140625	5387.48526939791
0.641632080078125	-0.0081451416015625	5387.5295193978
0.63720703125	-0.00821533203125	5387.57376939768
0.632781982421875	-0.0082855224609375	5387.61801939757
0.62835693359375	-0.0083526611328125	5387.66226939746
0.623931884765625	-0.0084197998046875	5387.70651939735
0.6195068359375	-0.00848388671875	5387.75076939724
0.615081787109375	-0.008544921875	5387.79501939713
0.61065673828125	-0.00860595703125	5387.83926939701
0.606231689453125	-0.0086639404296875	5387.8835193969
0.601806640625	-0.008721923828125	5387.92776939679
0.597381591796875	-0.0087799072265625	5387.97201939668
0.59295654296875	-0.0088348388671875	5388.01626939657
0.588531494140625	-0.00888671875	5388.06051939645
0.5841064453125	-0.0089385986328125	5388.10476939634
0.579681396484375	-0.008990478515625	5388.14901939623
0.57525634765625	-0.009039306640625	5388.19326939612
0.570831298828125	-0.009088134765625	5388.23751939601
0.56640625	-0.009136962890625	5388.2817693959
0.561981201171875	-0.0091827392578125	5388.32601939578
0.55755615234375	-0.0092315673828125	5388.37026939567
0.553131103515625	-0.0092742919921875	5388.41451939556
0.5487060546875	-0.009320068359375	5388.45876939545
0.544281005859375	-0.0093597412109375	5388.50301939534
0.53985595703125	-0.0094024658203125	5388.54726939523
0.535430908203125	-0.0094451904296875	5388.59151939511
0.531005859375	-0.0094879150390625	5388.635769395
0.526580810546875	-0.009527587890625	5388.68001939489
0.52215576171875	-0.0095672607421875	5388.72426939478
0.517730712890625	-0.00960693359375	5388.76851939467
0.5133056640625	-0.0096466064453125	5388.81276939456
0.508880615234375	-0.0096832275390625	5388.85701939444
0.50445556640625	-0.0097198486328125	5388.90126939433
0.500030517578125	-0.009759521484375	5388.94551939422
0.49560546875	-0.009796142578125	5388.98976939411
0.491180419921875	-0.009832763671875	5389.034019394
0.48675537109375	-0.009869384765625	5389.07826939389
0.482330322265625	-0.0099029541015625	5389.12251939377
0.4779052734375	-0.0099395751953125	5389.16676939366
0.473480224609375	-0.00997314453125	5389.21101939355
0.46905517578125	-0.010009765625	5389.25526939344
0.464630126953125	-0.0100433349609375	5389.29951939333
0.460205078125	-0.010076904296875	5389.34376939321
0.455780029296875	-0.010113525390625	5389.3880193931
0.45135498046875	-0.01014404296875	5389.43226939299
0.446929931640625	-0.0101806640625	5389.47651939288
0.4425048828125	-0.0102142333984375	5389.52076939277
0.438079833984375	-0.0102447509765625	5389.56501939266
0.43365478515625	-0.0102783203125	5389.60926939254
0.429229736328125	-0.0103118896484375	5389.65351939243
0.4248046875	-0.0103485107421875	5389.69776939232
0.420379638671875	-0.0103790283203125	5389.74201939221
0.41595458984375	-0.01041259765625	5389.7862693921
0.411529541015625	-0.0104461669921875	5389.83051939199
0.4071044921875	-0.010479736328125	5389.87476939187
0.402679443359375	-0.0105133056640625	5389.91901939176
0.39825439453125	-0.010546875	5389.96326939165
0.393829345703125	-0.0105804443359375	5390.00751939154
0.389404296875	-0.010614013671875	5390.05176939143
0.384979248046875	-0.0106475830078125	5390.09601939132
0.38055419921875	-0.0106781005859375	5390.1402693912
0.376129150390625	-0.010711669921875	5390.18451939109
0.3717041015625	-0.0107452392578125	5390.22876939098
0.367279052734375	-0.01077880859375	5390.27301939087
0.36285400390625	-0.0108123779296875	5390.31726939076
0.358428955078125	-0.010845947265625	5390.36151939065
0.35400390625	-0.0108795166015625	5390.40576939053
0.349578857421875	-0.0109100341796875	5390.45001939042
0.34515380859375	-0.010943603515625	5390.49426939031
0.340728759765625	-0.01097412109375	5390.5385193902
0.3363037109375	-0.0110076904296875	5390.58276939009
0.331878662109375	-0.011041259765625	5390.62701938998
0.32745361328125	-0.01107177734375	5390.67126938986
0.323028564453125	-0.0111053466796875	5390.71551938975
0.318603515625	-0.011138916015625	5390.75976938964
0.314178466796875	-0.01116943359375	5390.80401938953
0.30975341796875	-0.0112060546875	5390.84826938942
0.305328369140625	-0.011236572265625	5390.8925193893
0.3009033203125	-0.01126708984375	5390.93676938919
0.296478271484375	-0.0113006591796875	5390.98101938908
0.29205322265625	-0.0113311767578125	5391.02526938897
0.287628173828125	-0.0113616943359375	5391.06951938886
0.283203125	-0.0113922119140625	5391.11376938875
0.278778076171875	-0.0114227294921875	5391.15801938863
0.27435302734375	-0.0114532470703125	5391.20226938852
0.269927978515625	-0.011480712890625	5391.24651938841
0.2655029296875	-0.01151123046875	5391.2907693883
0.261077880859375	-0.0115386962890625	5391.33501938819
0.25665283203125	-0.011566162109375	5391.37926938808
0.252227783203125	-0.0115936279296875	5391.42351938796
0.247802734375	-0.01162109375	5391.46776938785
0.243377685546875	-0.0116485595703125	5391.51201938774
0.23895263671875	-0.011676025390625	5391.55626938763
0.234527587890625	-0.011700439453125	5391.60051938752
0.2301025390625	-0.011724853515625	5391.64476938741
0.225677490234375	-0.011749267578125	5391.68901938729
0.22125244140625	-0.0117767333984375	5391.73326938718
0.216827392578125	-0.0118011474609375	5391.77751938707
0.21240234375	-0.011822509765625	5391.82176938696
0.207977294921875	-0.011846923828125	5391.86601938685
0.20355224609375	-0.011871337890625	5391.91026938674
0.199127197265625	-0.0118927001953125	5391.95451938662
0.1947021484375	-0.0119171142578125	5391.99876938651
0.190277099609375	-0.0119384765625	5392.0430193864
0.18585205078125	-0.0119598388671875	5392.08726938629
0.181427001953125	-0.011981201171875	5392.13151938618
0.177001953125	-0.01199951171875	5392.17576938606
0.172576904296875	-0.0120208740234375	5392.22001938595
0.16815185546875	-0.012042236328125	5392.26426938584
0.163726806640625	-0.012060546875	5392.30851938573
0.1593017578125	-0.012078857421875	5392.35276938562
0.154876708984375	-0.0121002197265625	5392.39701938551
0.15045166015625	-0.0121185302734375	5392.44126938539
0.146026611328125	-0.0121368408203125	5392.48551938528
0.1416015625	-0.0121551513671875	5392.52976938517
0.137176513671875	-0.0121734619140625	5392.57401938506
0.13275146484375	-0.0121917724609375	5392.61826938495
0.128326416015625	-0.0122100830078125	5392.66251938484
0.1239013671875	-0.012225341796875	5392.70676938472
0.119476318359375	-0.01224365234375	5392.75101938461
0.11505126953125	-0.0122589111328125	5392.7952693845
0.110626220703125	-0.0122772216796875	5392.83951938439
0.106201171875	-0.01229248046875	5392.88376938428
0.101776123046875	-0.012310791015625	5392.92801938417
0.09735107421875	-0.0123291015625	5392.97226938405
0.092926025390625	-0.0123443603515625	5393.01651938394
0.0885009765625	-0.012359619140625	5393.06076938383
0.084075927734375	-0.0123779296875	5393.10501938372
0.07965087890625	-0.0123931884765625	5393.14926938361
0.075225830078125	-0.012408447265625	5393.1935193835
0.07080078125	-0.0124267578125	5393.23776938338
0.066375732421875	-0.0124420166015625	5393.28201938327
0.06195068359375	-0.0124603271484375	5393.32626938316
0.057525634765625	-0.0124755859375	5393.37051938305
0.0531005859375	-0.0124908447265625	5393.41476938294
0.048675537109375	-0.0125091552734375	5393.45901938283
0.04425048828125	-0.0125274658203125	5393.50326938271
0.039825439453125	-0.012542724609375	5393.5475193826
0.035400390625	-0.0125579833984375	5393.59176938249
0.030975341796875	-0.0125762939453125	5393.63601938238
0.02655029296875	-0.0125946044921875	5393.68026938227
0.022125244140625	-0.012615966796875	5393.72451938215
0.0177001953125	-0.01263427734375	5393.76876938204
0.013275146484375	-0.012652587890625	5393.81301938193
0.00885009765625	-0.0126708984375	5393.85726938182
0.004425048828125	-0.0126922607421875	5393.90151938171
0	-0.012713623046875	5393.9457693816
0.004425048828125	-0.0119659423828125	5393.99001938148
0.00885009765625	-0.01126708984375	5394.03426938137
0.013275146484375	-0.0106048583984375	5394.07851938126
0.0177001953125	-0.00997314453125	5394.12276938115
0.022125244140625	-0.009368896484375	5394.16701938104
0.02655029296875	-0.0087860107421875	5394.21126938093
0.030975341796875	-0.0082275390625	5394.25551938081
0.035400390625	-0.0076934814453125	5394.2997693807
0.039825439453125	-0.0071746826171875	5394.34401938059
0.04425048828125	-0.0066741943359375	5394.38826938048
0.048675537109375	-0.00618896484375	5394.43251938037
0.0531005859375	-0.005718994140625	5394.47676938026
0.057525634765625	-0.005267333984375	5394.52101938014
0.06195068359375	-0.0048321533203125	5394.56526938003
0.066375732421875	-0.00440765380859375	5394.60951937992
0.07080078125	-0.00399658203125	5394.65376937981
0.075225830078125	-0.00359771728515625	5394.6980193797
0.07965087890625	-0.003212890625	5394.74226937959
0.084075927734375	-0.00284881591796875	5394.78651937947
0.0885009765625	-0.00248382568359375	5394.83076937936
0.092926025390625	-0.00212890625	5394.87501937925
0.09735107421875	-0.00178497314453125	5394.91926937914
0.101776123046875	-0.0014508056640625	5394.96351937903
0.106201171875	-0.00112640380859375	5395.00776937891
0.110626220703125	-0.0008111572265625	5395.0520193788
0.11505126953125	-0.00050445556640625	5395.09626937869
0.119476318359375	-0.00020843505859375	5395.14051937858
0.1239013671875	8.1329345703125E-05	5395.18476937847
0.128326416015625	0.0003629150390625	5395.22901937836
0.13275146484375	0.00063720703125	5395.27326937824
0.137176513671875	0.00090423583984375	5395.31751937813
0.1416015625	0.00116363525390625	5395.36176937802
0.146026611328125	0.00141632080078125	5395.40601937791
0.15045166015625	0.00166168212890625	5395.4502693778
0.154876708984375	0.001900634765625	5395.49451937769
0.1593017578125	0.0021319580078125	5395.53876937757
0.163726806640625	0.00235809326171875	5395.58301937746
0.16815185546875	0.00257843017578125	5395.62726937735
0.172576904296875	0.0027935791015625	5395.67151937724
0.177001953125	0.00300201416015625	5395.71576937713
0.181427001953125	0.00320587158203125	5395.76001937702
0.18585205078125	0.00340301513671875	5395.8042693769
0.190277099609375	0.00359619140625	5395.84851937679
0.1947021484375	0.00378387451171875	5395.89276937668
0.199127197265625	0.0039666748046875	5395.93701937657
0.20355224609375	0.00414459228515625	5395.98126937646
0.207977294921875	0.0043182373046875	5396.02551937635
0.21240234375	0.0044873046875	5396.06976937623
0.216827392578125	0.00465240478515625	5396.11401937612
0.22125244140625	0.004813232421875	5396.15826937601
0.225677490234375	0.00496917724609375	5396.2025193759
0.2301025390625	0.0051214599609375	5396.24676937579
0.234527587890625	0.0052691650390625	5396.29101937568
0.23895263671875	0.005413818359375	5396.33526937556
0.243377685546875	0.00555511474609375	5396.37951937545
0.247802734375	0.0056927490234375	5396.42376937534
0.252227783203125	0.005826416015625	5396.46801937523
0.25665283203125	0.00595733642578125	5396.51226937512
0.261077880859375	0.006085205078125	5396.556519375
0.2655029296875	0.006201171875	5396.60076937489
0.269927978515625	0.0063201904296875	5396.64501937478
0.27435302734375	0.006439208984375	5396.68926937467
0.278778076171875	0.0065521240234375	5396.73351937456
0.283203125	0.0066650390625	5396.77776937445
0.287628173828125	0.00677490234375	5396.82201937433
0.29205322265625	0.0068817138671875	5396.86626937422
0.296478271484375	0.0069854736328125	5396.91051937411
0.3009033203125	0.007086181640625	5396.954769374
0.305328369140625	0.0071868896484375	5396.99901937389
0.30975341796875	0.0072845458984375	5397.04326937378
0.314178466796875	0.0073822021484375	5397.08751937366
0.318603515625	0.0074737548828125	5397.13176937355
0.323028564453125	0.0075653076171875	5397.17601937344
0.32745361328125	0.00765380859375	5397.22026937333
0.331878662109375	0.0077392578125	5397.26451937322
0.3363037109375	0.0078216552734375	5397.3087693731
0.340728759765625	0.007904052734375	5397.35301937299
0.34515380859375	0.0079864501953125	5397.39726937288
0.349578857421875	0.0080657958984375	5397.44151937277
0.35400390625	0.00814208984375	5397.48576937266
0.358428955078125	0.0082183837890625	5397.53001937255
0.36285400390625	0.0082916259765625	5397.57426937244
0.367279052734375	0.0083648681640625	5397.61851937232
0.3717041015625	0.0084381103515625	5397.66276937221
0.376129150390625	0.00850830078125	5397.7070193721
0.38055419921875	0.0085784912109375	5397.75126937199
0.384979248046875	0.008642578125	5397.79551937188
0.389404296875	0.008709716796875	5397.83976937176
0.393829345703125	0.0087738037109375	5397.88401937165
0.39825439453125	0.008837890625	5397.92826937154
0.402679443359375	0.0089019775390625	5397.97251937143
0.4071044921875	0.0089630126953125	5398.01676937132
0.411529541015625	0.0090240478515625	5398.06101937121
0.41595458984375	0.00908203125	5398.10526937109
0.420379638671875	0.0091400146484375	5398.14951937098
0.4248046875	0.009197998046875	5398.19376937087
0.429229736328125	0.0092529296875	5398.23801937076
0.43365478515625	0.0093109130859375	5398.28226937065
0.438079833984375	0.0093658447265625	5398.32651937054
0.4425048828125	0.009417724609375	5398.37076937042
0.446929931640625	0.00947265625	5398.41501937031
0.45135498046875	0.009521484375	5398.4592693702
0.455780029296875	0.0095703125	5398.50351937009
0.460205078125	0.009619140625	5398.54776936998
0.464630126953125	0.0096710205078125	5398.59201936987
0.46905517578125	0.009716796875	5398.63626936975
0.473480224609375	0.0097625732421875	5398.68051936964
0.4779052734375	0.009808349609375	5398.72476936953
0.482330322265625	0.009857177734375	5398.76901936942
0.48675537109375	0.0099029541015625	5398.81326936931
0.491180419921875	0.00994873046875	5398.85751936919
0.49560546875	0.009991455078125	5398.90176936908
0.500030517578125	0.0100341796875	5398.94601936897
0.50445556640625	0.010076904296875	5398.99026936886
0.508880615234375	0.01011962890625	5399.03451936875
0.5133056640625	0.0101593017578125	5399.07876936864
0.517730712890625	0.010198974609375	5399.12301936853
0.52215576171875	0.0102386474609375	5399.16726936841
0.526580810546875	0.0102783203125	5399.2115193683
0.531005859375	0.0103179931640625	5399.25576936819
0.535430908203125	0.0103546142578125	5399.30001936808
0.53985595703125	0.0103912353515625	5399.34426936797
0.544281005859375	0.0104278564453125	5399.38851936785
0.5487060546875	0.0104644775390625	5399.43276936774
0.553131103515625	0.0105010986328125	5399.47701936763
0.55755615234375	0.01053466796875	5399.52126936752
0.561981201171875	0.0105682373046875	5399.56551936741
0.56640625	0.010601806640625	5399.6097693673
0.570831298828125	0.0106353759765625	5399.65401936718
0.57525634765625	0.0106689453125	5399.69826936707
0.579681396484375	0.0107025146484375	5399.74251936696
0.5841064453125	0.0107330322265625	5399.78676936685
0.588531494140625	0.010760498046875	5399.83101936674
0.59295654296875	0.010791015625	5399.87526936663
0.597381591796875	0.010821533203125	5399.91951936651
0.601806640625	0.0108489990234375	5399.9637693664
0.606231689453125	0.01087646484375	5400.00801936629
0.61065673828125	0.010906982421875	5400.05226936618
0.615081787109375	0.010931396484375	5400.09651936607
0.6195068359375	0.010955810546875	5400.14076936595
0.623931884765625	0.010980224609375	5400.18501936584
0.62835693359375	0.0110107421875	5400.22926936573
0.632781982421875	0.01103515625	5400.27351936562
0.63720703125	0.0110565185546875	5400.31776936551
0.641632080078125	0.0110809326171875	5400.3620193654
0.64605712890625	0.011102294921875	5400.40626936528
0.650482177734375	0.0111236572265625	5400.45051936517
0.6549072265625	0.0111419677734375	5400.49476936506
0.659332275390625	0.011163330078125	5400.53901936495
0.66375732421875	0.011181640625	5400.58326936484
0.668182373046875	0.011199951171875	5400.62751936473
0.672607421875	0.01121826171875	5400.67176936461
0.677032470703125	0.011236572265625	5400.7160193645
0.68145751953125	0.0112518310546875	5400.76026936439
0.685882568359375	0.01126708984375	5400.80451936428
0.6903076171875	0.0112823486328125	5400.84876936417
0.694732666015625	0.011297607421875	5400.89301936406
0.69915771484375	0.011309814453125	5400.93726936394
0.703582763671875	0.011322021484375	5400.98151936383
0.7080078125	0.011334228515625	5401.02576936372
0.712432861328125	0.011346435546875	5401.07001936361
0.71685791015625	0.011358642578125	5401.1142693635
0.721282958984375	0.0113677978515625	5401.15851936339
0.7257080078125	0.0113800048828125	5401.20276936327
0.730133056640625	0.01138916015625	5401.24701936316
0.73455810546875	0.0113983154296875	5401.29126936305
0.738983154296875	0.011407470703125	5401.33551936294
0.743408203125	0.01141357421875	5401.37976936283
0.747833251953125	0.0114227294921875	5401.42401936272
0.75225830078125	0.0114288330078125	5401.4682693626
0.756683349609375	0.01143798828125	5401.51251936249
0.7611083984375	0.011444091796875	5401.55676936238
0.765533447265625	0.0114532470703125	5401.60101936227
0.76995849609375	0.0114593505859375	5401.64526936216
0.774383544921875	0.0114654541015625	5401.68951936204
0.77880859375	0.011474609375	5401.73376936193
0.783233642578125	0.011480712890625	5401.77801936182
0.78765869140625	0.01148681640625	5401.82226936171
0.792083740234375	0.011492919921875	5401.8665193616
0.7965087890625	0.0114990234375	5401.91076936149
0.800933837890625	0.011505126953125	5401.95501936137
0.80535888671875	0.0115142822265625	5401.99926936126
0.809783935546875	0.0115203857421875	5402.04351936115
0.814208984375	0.0115264892578125	5402.08776936104
0.818634033203125	0.01153564453125	5402.13201936093
0.82305908203125	0.011541748046875	5402.17626936082
0.827484130859375	0.0115509033203125	5402.2205193607
0.8319091796875	0.01156005859375	5402.26476936059
0.836334228515625	0.0115692138671875	5402.30901936048
0.84075927734375	0.011578369140625	5402.35326936037
0.845184326171875	0.0115875244140625	5402.39751936026
0.849609375	0.0115966796875	5402.44176936015
0.854034423828125	0.01160888671875	5402.48601936003
0.85845947265625	0.0116180419921875	5402.53026935992
0.862884521484375	0.0116302490234375	5402.57451935981
0.8673095703125	0.0116424560546875	5402.6187693597
0.871734619140625	0.0116546630859375	5402.66301935959
0.87615966796875	0.011669921875	5402.70726935948
0.880584716796875	0.0116851806640625	5402.75151935936
0.885009765625	0.0116973876953125	5402.79576935925
0.889434814453125	0.0117156982421875	5402.84001935914
0.89385986328125	0.01173095703125	5402.88426935903
0.898284912109375	0.011749267578125	5402.92851935892
0.9027099609375	0.0117706298828125	5402.9727693588
0.907135009765625	0.0117889404296875	5403.01701935869
0.91156005859375	0.011810302734375	5403.06126935858
0.915985107421875	0.011834716796875	5403.10551935847
0.92041015625	0.011859130859375	5403.14976935836
0.924835205078125	0.011883544921875	5403.19401935825
0.92926025390625	0.0119110107421875	5403.23826935813
0.933685302734375	0.0119384765625	5403.28251935802
0.9381103515625	0.0119720458984375	5403.32676935791
0.942535400390625	0.0120025634765625	5403.3710193578
0.94696044921875	0.0120361328125	5403.41526935769
0.951385498046875	0.0120697021484375	5403.45951935758
0.955810546875	0.012103271484375	5403.50376935746
0.960235595703125	0.0121429443359375	5403.54801935735
0.96466064453125	0.0121826171875	5403.59226935724
0.969085693359375	0.0122222900390625	5403.63651935713
0.9735107421875	0.0122650146484375	5403.68076935702
0.977935791015625	0.0123077392578125	5403.72501935691
0.98236083984375	0.012353515625	5403.76926935679
0.986785888671875	0.01240234375	5403.81351935668
0.9912109375	0.0124542236328125	5403.85776935657
0.995635986328125	0.012506103515625	5403.90201935646
1.00006103515625	0.0125579833984375	5403.94626935635
0.995635986328125	0.0118408203125	5403.99051935624
0.9912109375	0.01116943359375	5404.03476935612
0.986785888671875	0.010540771484375	5404.07901935601
0.98236083984375	0.0099395751953125	5404.1232693559
0.977935791015625	0.0093658447265625	5404.16751935579
0.9735107421875	0.0088165283203125	5404.21176935568
0.969085693359375	0.0082855224609375	5404.25601935557
0.96466064453125	0.0077789306640625	5404.30026935545
0.960235595703125	0.0072845458984375	5404.34451935534
0.955810546875	0.0068084716796875	5404.38876935523
0.951385498046875	0.00634765625	5404.43301935512
0.94696044921875	0.005902099609375	5404.47726935501
0.942535400390625	0.00546875	5404.52151935489
0.9381103515625	0.005047607421875	5404.56576935478
0.933685302734375	0.00463836669921875	5404.61001935467
0.92926025390625	0.00424224853515625	5404.65426935456
0.924835205078125	0.00385711669921875	5404.69851935445
0.92041015625	0.00348175048828125	5404.74276935434
0.915985107421875	0.00311767578125	5404.78701935422
0.91156005859375	0.00276458740234375	5404.83126935411
0.907135009765625	0.00241790771484375	5404.875519354
0.9027099609375	0.00207977294921875	5404.91976935389
0.898284912109375	0.00175048828125	5404.96401935378
0.89385986328125	0.00142974853515625	5405.00826935367
0.889434814453125	0.00111663818359375	5405.05251935355
0.885009765625	0.00081085205078125	5405.09676935344
0.880584716796875	0.00051300048828125	5405.14101935333
0.87615966796875	0.000222259521484375	5405.18526935322
0.871734619140625	-6.14013671875E-05	5405.22951935311
0.8673095703125	-0.0003382568359375	5405.273769353
0.862884521484375	-0.00060821533203125	5405.31801935288
0.85845947265625	-0.0008709716796875	5405.36226935277
0.854034423828125	-0.00112823486328125	5405.40651935266
0.849609375	-0.0013800048828125	5405.45076935255
0.845184326171875	-0.00162506103515625	5405.49501935244
0.84075927734375	-0.001864013671875	5405.53926935233
0.836334228515625	-0.00209747314453125	5405.58351935221
0.8319091796875	-0.00232574462890625	5405.6277693521
0.827484130859375	-0.002547607421875	5405.67201935199
0.82305908203125	-0.0027642822265625	5405.71626935188
0.818634033203125	-0.0029754638671875	5405.76051935177
0.814208984375	-0.003182373046875	5405.80476935165
0.809783935546875	-0.0033831787109375	5405.84901935154
0.80535888671875	-0.00358001708984375	5405.89326935143
0.800933837890625	-0.0037713623046875	5405.93751935132
0.7965087890625	-0.00395782470703125	5405.98176935121
0.792083740234375	-0.00413970947265625	5406.0260193511
0.78765869140625	-0.0043170166015625	5406.07026935098
0.783233642578125	-0.00449005126953125	5406.11451935087
0.77880859375	-0.00465789794921875	5406.15876935076
0.774383544921875	-0.00482208251953125	5406.20301935065
0.76995849609375	-0.00498199462890625	5406.24726935054
0.765533447265625	-0.0051373291015625	5406.29151935043
0.7611083984375	-0.005289306640625	5406.33576935031
0.756683349609375	-0.00543670654296875	5406.3800193502
0.75225830078125	-0.00558074951171875	5406.42426935009
0.747833251953125	-0.00572052001953125	5406.46851934998
0.743408203125	-0.0058563232421875	5406.51276934987
0.738983154296875	-0.00598663330078125	5406.55701934976
0.73455810546875	-0.00611602783203125	5406.60126934964
0.730133056640625	-0.006219482421875	5406.64551934953
0.7257080078125	-0.006341552734375	5406.68976934942
0.721282958984375	-0.0064605712890625	5406.73401934931
0.71685791015625	-0.0065765380859375	5406.7782693492
0.712432861328125	-0.006689453125	5406.82251934909
0.7080078125	-0.00679931640625	5406.86676934897
0.703582763671875	-0.0069061279296875	5406.91101934886
0.69915771484375	-0.0070068359375	5406.95526934875
0.694732666015625	-0.0071075439453125	5406.99951934864
0.6903076171875	-0.0072052001953125	5407.04376934853
0.685882568359375	-0.0072998046875	5407.08801934842
0.68145751953125	-0.0073944091796875	5407.1322693483
0.677032470703125	-0.00748291015625	5407.17651934819
0.672607421875	-0.0075714111328125	5407.22076934808
0.668182373046875	-0.0076568603515625	5407.26501934797
0.66375732421875	-0.0077423095703125	5407.30926934786
0.659332275390625	-0.007818603515625	5407.35351934774
0.6549072265625	-0.0078948974609375	5407.39776934763
0.650482177734375	-0.00797119140625	5407.44201934752
0.64605712890625	-0.0080474853515625	5407.48626934741
0.641632080078125	-0.00811767578125	5407.5305193473
0.63720703125	-0.00819091796875	5407.57476934719
0.632781982421875	-0.008258056640625	5407.61901934707
0.62835693359375	-0.0083251953125	5407.66326934696
0.623931884765625	-0.0083953857421875	5407.70751934685
0.6195068359375	-0.0084564208984375	5407.75176934674
0.615081787109375	-0.0085205078125	5407.79601934663
0.61065673828125	-0.0085784912109375	5407.84026934652
0.606231689453125	-0.008636474609375	5407.8845193464
0.601806640625	-0.0086944580078125	5407.92876934629
0.597381591796875	-0.00875244140625	5407.97301934618
0.59295654296875	-0.008807373046875	5408.01726934607
0.588531494140625	-0.0088623046875	5408.06151934596
0.5841064453125	-0.0089111328125	5408.10576934585
0.579681396484375	-0.0089630126953125	5408.15001934573
0.57525634765625	-0.009014892578125	5408.19426934562
0.570831298828125	-0.009063720703125	5408.23851934551
0.56640625	-0.009112548828125	5408.2827693454
0.561981201171875	-0.0091583251953125	5408.32701934529
0.55755615234375	-0.0092041015625	5408.37126934518
0.553131103515625	-0.0092498779296875	5408.41551934506
0.5487060546875	-0.009295654296875	5408.45976934495
0.544281005859375	-0.0093353271484375	5408.50401934484
0.53985595703125	-0.0093780517578125	5408.54826934473
0.535430908203125	-0.009417724609375	5408.59251934462
0.531005859375	-0.00946044921875	5408.6367693445
0.526580810546875	-0.009503173828125	5408.68101934439
0.52215576171875	-0.0095428466796875	5408.72526934428
0.517730712890625	-0.00958251953125	5408.76951934417
0.5133056640625	-0.0096221923828125	5408.81376934406
0.508880615234375	-0.009661865234375	5408.85801934395
0.50445556640625	-0.009698486328125	5408.90226934383
0.500030517578125	-0.009735107421875	5408.94651934372
0.49560546875	-0.009771728515625	5408.99076934361
0.491180419921875	-0.009808349609375	5409.0350193435
0.48675537109375	-0.009844970703125	5409.07926934339
0.482330322265625	-0.009881591796875	5409.12351934328
0.4779052734375	-0.009918212890625	5409.16776934316
0.473480224609375	-0.0099517822265625	5409.21201934305
0.46905517578125	-0.0099884033203125	5409.25626934294
0.464630126953125	-0.01002197265625	5409.30051934283
0.460205078125	-0.0100555419921875	5409.34476934272
0.455780029296875	-0.010089111328125	5409.38901934261
0.45135498046875	-0.010125732421875	5409.43326934249
0.446929931640625	-0.01015625	5409.47751934238
0.4425048828125	-0.01019287109375	5409.52176934227
0.438079833984375	-0.010223388671875	5409.56601934216
0.43365478515625	-0.0102569580078125	5409.61026934205
0.429229736328125	-0.01029052734375	5409.65451934194
0.4248046875	-0.0103240966796875	5409.69876934182
0.420379638671875	-0.0103607177734375	5409.74301934171
0.41595458984375	-0.010394287109375	5409.7872693416
0.411529541015625	-0.0104248046875	5409.83151934149
0.4071044921875	-0.0104583740234375	5409.87576934138
0.402679443359375	-0.010491943359375	5409.92001934127
0.39825439453125	-0.0105255126953125	5409.96426934115
0.393829345703125	-0.01055908203125	5410.00851934104
0.389404296875	-0.0105926513671875	5410.05276934093
0.384979248046875	-0.010626220703125	5410.09701934082
0.38055419921875	-0.0106597900390625	5410.14126934071
0.376129150390625	-0.010693359375	5410.18551934059
0.3717041015625	-0.0107269287109375	5410.22976934048
0.367279052734375	-0.010760498046875	5410.27401934037
0.36285400390625	-0.0107940673828125	5410.31826934026
0.358428955078125	-0.01082763671875	5410.36251934015
0.35400390625	-0.0108612060546875	5410.40676934004
0.349578857421875	-0.0108917236328125	5410.45101933992
0.34515380859375	-0.01092529296875	5410.49526933981
0.340728759765625	-0.010955810546875	5410.5395193397
0.3363037109375	-0.010986328125	5410.58376933959
0.331878662109375	-0.0110198974609375	5410.62801933948
0.32745361328125	-0.011053466796875	5410.67226933937
0.323028564453125	-0.0110870361328125	5410.71651933925
0.318603515625	-0.01112060546875	5410.76076933914
0.314178466796875	-0.011151123046875	5410.80501933903
0.30975341796875	-0.011187744140625	5410.84926933892
0.305328369140625	-0.01121826171875	5410.89351933881
0.3009033203125	-0.011248779296875	5410.9377693387
0.296478271484375	-0.0112823486328125	5410.98201933858
0.29205322265625	-0.0113128662109375	5411.02626933847
0.287628173828125	-0.0113433837890625	5411.07051933836
0.283203125	-0.0113739013671875	5411.11476933825
0.278778076171875	-0.0114044189453125	5411.15901933814
0.27435302734375	-0.011431884765625	5411.20326933803
0.269927978515625	-0.01146240234375	5411.24751933791
0.2655029296875	-0.011492919921875	5411.2917693378
0.261077880859375	-0.0115203857421875	5411.33601933769
0.25665283203125	-0.0115478515625	5411.38026933758
0.252227783203125	-0.0115753173828125	5411.42451933747
0.247802734375	-0.011602783203125	5411.46876933735
0.243377685546875	-0.0116302490234375	5411.51301933724
0.23895263671875	-0.0116546630859375	5411.55726933713
0.234527587890625	-0.01168212890625	5411.60151933702
0.2301025390625	-0.01170654296875	5411.64576933691
0.225677490234375	-0.01173095703125	5411.6900193368
0.22125244140625	-0.01175537109375	5411.73426933668
0.216827392578125	-0.01177978515625	5411.77851933657
0.21240234375	-0.0118011474609375	5411.82276933646
0.207977294921875	-0.0118255615234375	5411.86701933635
0.20355224609375	-0.0118499755859375	5411.91126933624
0.199127197265625	-0.011871337890625	5411.95551933613
0.1947021484375	-0.0118927001953125	5411.99976933601
0.190277099609375	-0.0119140625	5412.0440193359
0.18585205078125	-0.0119354248046875	5412.08826933579
0.181427001953125	-0.011956787109375	5412.13251933568
0.177001953125	-0.0119781494140625	5412.17676933557
0.172576904296875	-0.0119964599609375	5412.22101933546
0.16815185546875	-0.012017822265625	5412.26526933534
0.163726806640625	-0.0120361328125	5412.30951933523
0.1593017578125	-0.012054443359375	5412.35376933512
0.154876708984375	-0.01207275390625	5412.39801933501
0.15045166015625	-0.0120941162109375	5412.4422693349
0.146026611328125	-0.0121124267578125	5412.48651933479
0.1416015625	-0.0121307373046875	5412.53076933467
0.137176513671875	-0.01214599609375	5412.57501933456
0.13275146484375	-0.012164306640625	5412.61926933445
0.128326416015625	-0.0121826171875	5412.66351933434
0.1239013671875	-0.012200927734375	5412.70776933423
0.119476318359375	-0.0122161865234375	5412.75201933412
0.11505126953125	-0.0122314453125	5412.796269334
0.110626220703125	-0.012249755859375	5412.84051933389
0.106201171875	-0.0122650146484375	5412.88476933378
0.101776123046875	-0.0122833251953125	5412.92901933367
0.09735107421875	-0.012298583984375	5412.97326933356
0.092926025390625	-0.01231689453125	5413.01751933344
0.0885009765625	-0.0123321533203125	5413.06176933333
0.084075927734375	-0.012347412109375	5413.10601933322
0.07965087890625	-0.01236572265625	5413.15026933311
0.075225830078125	-0.0123809814453125	5413.194519333
0.07080078125	-0.012396240234375	5413.23876933289
0.066375732421875	-0.0124114990234375	5413.28301933277
0.06195068359375	-0.0124298095703125	5413.32726933266
0.057525634765625	-0.012445068359375	5413.37151933255
0.0531005859375	-0.01246337890625	5413.41576933244
0.048675537109375	-0.0124786376953125	5413.46001933233
0.04425048828125	-0.012493896484375	5413.50426933222
0.039825439453125	-0.01251220703125	5413.5485193321
0.035400390625	-0.0125274658203125	5413.59276933199
0.030975341796875	-0.0125457763671875	5413.63701933188
0.02655029296875	-0.0125640869140625	5413.68126933177
0.022125244140625	-0.0125823974609375	5413.72551933166
0.0177001953125	-0.012603759765625	5413.76976933154
0.013275146484375	-0.0126220703125	5413.81401933143
0.00885009765625	-0.012640380859375	5413.85826933132
0.004425048828125	-0.01265869140625	5413.90251933121
0	-0.0126800537109375	5413.9467693311
0.004425048828125	-0.0119354248046875	5413.99101933099
0.00885009765625	-0.0112335205078125	5414.03526933088
0.013275146484375	-0.0105743408203125	5414.07951933076
0.0177001953125	-0.009942626953125	5414.12376933065
0.022125244140625	-0.00933837890625	5414.16801933054
0.02655029296875	-0.0087554931640625	5414.21226933043
0.030975341796875	-0.008197021484375	5414.25651933032
0.035400390625	-0.0076629638671875	5414.3007693302
0.039825439453125	-0.0071441650390625	5414.34501933009
0.04425048828125	-0.0066436767578125	5414.38926932998
0.048675537109375	-0.006158447265625	5414.43351932987
0.0531005859375	-0.0056915283203125	5414.47776932976
0.057525634765625	-0.00523681640625	5414.52201932965
0.06195068359375	-0.00480255126953125	5414.56626932953
0.066375732421875	-0.0043780517578125	5414.61051932942
0.07080078125	-0.00396728515625	5414.65476932931
0.075225830078125	-0.00356903076171875	5414.6990193292
0.07965087890625	-0.0031842041015625	5414.74326932909
0.084075927734375	-0.00282012939453125	5414.78751932898
0.0885009765625	-0.00245513916015625	5414.83176932886
0.092926025390625	-0.002100830078125	5414.87601932875
0.09735107421875	-0.0017572021484375	5414.92026932864
0.101776123046875	-0.00142333984375	5414.96451932853
0.106201171875	-0.0010992431640625	5415.00876932842
0.110626220703125	-0.00078460693359375	5415.05301932831
0.11505126953125	-0.00047821044921875	5415.09726932819
0.119476318359375	-0.0001824951171875	5415.14151932808
0.1239013671875	0.000107147216796875	5415.18576932797
0.128326416015625	0.0003883056640625	5415.23001932786
0.13275146484375	0.0006622314453125	5415.27426932775
0.137176513671875	0.000928955078125	5415.31851932763
0.1416015625	0.00118804931640625	5415.36276932752
0.146026611328125	0.0014398193359375	5415.40701932741
0.15045166015625	0.0016851806640625	5415.4512693273
0.154876708984375	0.001923828125	5415.49551932719
0.1593017578125	0.0021551513671875	5415.53976932708
0.163726806640625	0.00238067626953125	5415.58401932697
0.16815185546875	0.00260040283203125	5415.62826932685
0.172576904296875	0.00281494140625	5415.67251932674
0.177001953125	0.003023681640625	5415.71676932663
0.181427001953125	0.00322662353515625	5415.76101932652
0.18585205078125	0.00342376708984375	5415.80526932641
0.190277099609375	0.0036163330078125	5415.84951932629
0.1947021484375	0.0038037109375	5415.89376932618
0.199127197265625	0.00398590087890625	5415.93801932607
0.20355224609375	0.004163818359375	5415.98226932596
0.207977294921875	0.00433685302734375	5416.02651932585
0.21240234375	0.00450592041015625	5416.07076932574
0.216827392578125	0.00467010498046875	5416.11501932562
0.22125244140625	0.00483001708984375	5416.15926932551
0.225677490234375	0.0049859619140625	5416.2035193254
0.2301025390625	0.0051385498046875	5416.24776932529
0.234527587890625	0.00528564453125	5416.29201932518
0.23895263671875	0.00542999267578125	5416.33626932507
0.243377685546875	0.00557098388671875	5416.38051932495
0.247802734375	0.0057080078125	5416.42476932484
0.252227783203125	0.0058416748046875	5416.46901932473
0.25665283203125	0.0059722900390625	5416.51326932462
0.261077880859375	0.006099853515625	5416.55751932451
0.2655029296875	0.00621337890625	5416.60176932439
0.269927978515625	0.00633544921875	5416.64601932428
0.27435302734375	0.006451416015625	5416.69026932417
0.278778076171875	0.0065673828125	5416.73451932406
0.283203125	0.00667724609375	5416.77876932395
0.287628173828125	0.006787109375	5416.82301932384
0.29205322265625	0.0068939208984375	5416.86726932372
0.296478271484375	0.0069976806640625	5416.91151932361
0.3009033203125	0.007098388671875	5416.9557693235
0.305328369140625	0.007196044921875	5417.00001932339
0.30975341796875	0.007293701171875	5417.04426932328
0.314178466796875	0.007391357421875	5417.08851932317
0.318603515625	0.00748291015625	5417.13276932305
0.323028564453125	0.007574462890625	5417.17701932294
0.32745361328125	0.0076629638671875	5417.22126932283
0.331878662109375	0.0077484130859375	5417.26551932272
0.3363037109375	0.007830810546875	5417.30976932261
0.340728759765625	0.0079132080078125	5417.3540193225
0.34515380859375	0.0079925537109375	5417.39826932238
0.349578857421875	0.0080718994140625	5417.44251932227
0.35400390625	0.008148193359375	5417.48676932216
0.358428955078125	0.0082244873046875	5417.53101932205
0.36285400390625	0.00830078125	5417.57526932194
0.367279052734375	0.0083740234375	5417.61951932183
0.3717041015625	0.0084442138671875	5417.66376932171
0.376129150390625	0.008514404296875	5417.7080193216
0.38055419921875	0.00858154296875	5417.75226932149
0.384979248046875	0.008648681640625	5417.79651932138
0.389404296875	0.0087158203125	5417.84076932127
0.393829345703125	0.0087799072265625	5417.88501932116
0.39825439453125	0.008843994140625	5417.92926932104
0.402679443359375	0.008905029296875	5417.97351932093
0.4071044921875	0.008966064453125	5418.01776932082
0.411529541015625	0.009027099609375	5418.06201932071
0.41595458984375	0.009088134765625	5418.1062693206
0.420379638671875	0.00914306640625	5418.15051932048
0.4248046875	0.0092010498046875	5418.19476932037
0.429229736328125	0.009259033203125	5418.23901932026
0.43365478515625	0.0093170166015625	5418.28326932015
0.438079833984375	0.009368896484375	5418.32751932004
0.4425048828125	0.0094207763671875	5418.37176931993
0.446929931640625	0.00947265625	5418.41601931981
0.45135498046875	0.0095245361328125	5418.4602693197
0.455780029296875	0.0095733642578125	5418.50451931959
0.460205078125	0.0096221923828125	5418.54876931948
0.464630126953125	0.00966796875	5418.59301931937
0.46905517578125	0.009716796875	5418.63726931926
0.473480224609375	0.009765625	5418.68151931914
0.4779052734375	0.0098114013671875	5418.72576931903
0.482330322265625	0.009857177734375	5418.77001931892
0.48675537109375	0.0099029541015625	5418.81426931881
0.491180419921875	0.0099456787109375	5418.8585193187
0.49560546875	0.009991455078125	5418.90276931859
0.500030517578125	0.0100341796875	5418.94701931847
0.50445556640625	0.010076904296875	5418.99126931836
0.508880615234375	0.01011962890625	5419.03551931825
0.5133056640625	0.0101593017578125	5419.07976931814
0.517730712890625	0.010198974609375	5419.12401931803
0.52215576171875	0.0102386474609375	5419.16826931792
0.526580810546875	0.0102783203125	5419.2125193178
0.531005859375	0.01031494140625	5419.25676931769
0.535430908203125	0.0103546142578125	5419.30101931758
0.53985595703125	0.0103912353515625	5419.34526931747
0.544281005859375	0.0104278564453125	5419.38951931736
0.5487060546875	0.01046142578125	5419.43376931724
0.553131103515625	0.010498046875	5419.47801931713
0.55755615234375	0.01053466796875	5419.52226931702
0.561981201171875	0.0105682373046875	5419.56651931691
0.56640625	0.010601806640625	5419.6107693168
0.570831298828125	0.0106353759765625	5419.65501931669
0.57525634765625	0.0106658935546875	5419.69926931657
0.579681396484375	0.010699462890625	5419.74351931646
0.5841064453125	0.01072998046875	5419.78776931635
0.588531494140625	0.010760498046875	5419.83201931624
0.59295654296875	0.0107879638671875	5419.87626931613
0.597381591796875	0.0108184814453125	5419.92051931602
0.601806640625	0.010845947265625	5419.9647693159
0.606231689453125	0.01087646484375	5420.00901931579
0.61065673828125	0.01090087890625	5420.05326931568
0.615081787109375	0.0109283447265625	5420.09751931557
0.6195068359375	0.0109527587890625	5420.14176931546
0.623931884765625	0.0109771728515625	5420.18601931535
0.62835693359375	0.011004638671875	5420.23026931523
0.632781982421875	0.011029052734375	5420.27451931512
0.63720703125	0.0110504150390625	5420.31876931501
0.641632080078125	0.0110748291015625	5420.3630193149
0.64605712890625	0.01109619140625	5420.40726931479
0.650482177734375	0.0111175537109375	5420.45151931468
0.6549072265625	0.011138916015625	5420.49576931456
0.659332275390625	0.0111572265625	5420.54001931445
0.66375732421875	0.011175537109375	5420.58426931434
0.668182373046875	0.01119384765625	5420.62851931423
0.672607421875	0.011212158203125	5420.67276931412
0.677032470703125	0.0112274169921875	5420.71701931401
0.68145751953125	0.0112457275390625	5420.76126931389
0.685882568359375	0.011260986328125	5420.80551931378
0.6903076171875	0.0112762451171875	5420.84976931367
0.694732666015625	0.0112884521484375	5420.89401931356
0.69915771484375	0.0113037109375	5420.93826931345
0.703582763671875	0.0113128662109375	5420.98251931333
0.7080078125	0.011328125	5421.02676931322
0.712432861328125	0.0113372802734375	5421.07101931311
0.71685791015625	0.0113494873046875	5421.115269313
0.721282958984375	0.011358642578125	5421.15951931289
0.7257080078125	0.011370849609375	5421.20376931278
0.730133056640625	0.0113800048828125	5421.24801931266
0.73455810546875	0.01138916015625	5421.29226931255
0.738983154296875	0.0113983154296875	5421.33651931244
0.743408203125	0.0114044189453125	5421.38076931233
0.747833251953125	0.01141357421875	5421.42501931222
0.75225830078125	0.011419677734375	5421.46926931211
0.756683349609375	0.0114288330078125	5421.51351931199
0.7611083984375	0.0114349365234375	5421.55776931188
0.765533447265625	0.011444091796875	5421.60201931177
0.76995849609375	0.0114501953125	5421.64626931166
0.774383544921875	0.011456298828125	5421.69051931155
0.77880859375	0.01146240234375	5421.73476931144
0.783233642578125	0.011468505859375	5421.77901931132
0.78765869140625	0.011474609375	5421.82326931121
0.792083740234375	0.011480712890625	5421.8675193111
0.7965087890625	0.01148681640625	5421.91176931099
0.800933837890625	0.0114959716796875	5421.95601931088
0.80535888671875	0.0115020751953125	5422.00026931077
0.809783935546875	0.0115081787109375	5422.04451931065
0.814208984375	0.0115142822265625	5422.08876931054
0.818634033203125	0.0115234375	5422.13301931043
0.82305908203125	0.011529541015625	5422.17726931032
0.827484130859375	0.0115386962890625	5422.22151931021
0.8319091796875	0.0115478515625	5422.26576931009
0.836334228515625	0.0115570068359375	5422.31001930998
0.84075927734375	0.011566162109375	5422.35426930987
0.845184326171875	0.011572265625	5422.39851930976
0.849609375	0.01158447265625	5422.44276930965
0.854034423828125	0.0115936279296875	5422.48701930954
0.85845947265625	0.0116058349609375	5422.53126930942
0.862884521484375	0.011614990234375	5422.57551930931
0.8673095703125	0.011627197265625	5422.6197693092
0.871734619140625	0.0116424560546875	5422.66401930909
0.87615966796875	0.0116546630859375	5422.70826930898
0.880584716796875	0.011669921875	5422.75251930887
0.885009765625	0.0116851806640625	5422.79676930875
0.889434814453125	0.0117034912109375	5422.84101930864
0.89385986328125	0.01171875	5422.88526930853
0.898284912109375	0.011737060546875	5422.92951930842
0.9027099609375	0.01175537109375	5422.97376930831
0.907135009765625	0.0117767333984375	5423.0180193082
0.91156005859375	0.011798095703125	5423.06226930808
0.915985107421875	0.011822509765625	5423.10651930797
0.92041015625	0.0118438720703125	5423.15076930786
0.924835205078125	0.011871337890625	5423.19501930775
0.92926025390625	0.011895751953125	5423.23926930764
0.933685302734375	0.01192626953125	5423.28351930753
0.9381103515625	0.011956787109375	5423.32776930741
0.942535400390625	0.0119873046875	5423.3720193073
0.94696044921875	0.0120208740234375	5423.41626930719
0.951385498046875	0.012054443359375	5423.46051930708
0.955810546875	0.012091064453125	5423.50476930697
0.960235595703125	0.0121307373046875	5423.54901930686
0.96466064453125	0.0121673583984375	5423.59326930674
0.969085693359375	0.0122100830078125	5423.63751930663
0.9735107421875	0.0122528076171875	5423.68176930652
0.977935791015625	0.0122955322265625	5423.72601930641
0.98236083984375	0.01234130859375	5423.7702693063
0.986785888671875	0.01239013671875	5423.81451930618
0.9912109375	0.0124420166015625	5423.85876930607
