Time (s)	WE(1).Potential (V)
2725.18331011957	0.0403106689453125
2726.18331011705	0.15472412109375
2727.18331011452	0.261810302734375
2728.183310112	0.361236572265625
2729.18331010947	0.45050048828125
2730.18331010695	0.5303955078125
2731.18331010442	0.6048583984375
2732.1833101019	0.6787109375
2733.18331009938	0.75469970703125
2734.18331009685	0.828857421875
2735.18331009433	0.89752197265625
2736.1833100918	0.9564208984375
2737.18331008928	1.00341796875
