Time (s)	WE(1).Potential (V)
2683.53696422472	0.74066162109375
2684.5369642222	0.65093994140625
2685.53696421967	0.562744140625
2686.53696421715	0.471771240234375
2687.53696421462	0.3817138671875
2688.5369642121	0.29449462890625
2689.53696420957	0.2091064453125
2690.53696420705	0.124847412109375
2691.53696420452	0.0419891357421875
2692.536964202	-0.0381561279296875
2693.53696419947	-0.11395263671875
2694.53696419695	-0.1842041015625
2695.53696419442	-0.245361328125
