Potential applied (V)	WE(1).Current (A)	Time (s)
0.004425048828125	5.96923828125E-06	2760.06182703151
0.00885009765625	7.3638916015625E-05	2760.94683702928
0.013275146484375	0.000118194580078125	2761.83184702705
0.0177001953125	0.000152099609375	2762.71685702481
0.022125244140625	0.000179473876953125	2763.60186702258
0.02655029296875	0.000203125	2764.48687702034
0.030975341796875	0.00022332763671875	2765.37188701811
0.035400390625	0.000241912841796875	2766.25689701587
0.039825439453125	0.000258819580078125	2767.14190701364
0.04425048828125	0.00027435302734375	2768.0269170114
0.048675537109375	0.000288604736328125	2768.91192700917
0.0531005859375	0.00030181884765625	2769.79693700693
0.057525634765625	0.000314178466796875	2770.6819470047
0.06195068359375	0.000325408935546875	2771.56695700247
0.066375732421875	0.000335968017578125	2772.45196700023
0.07080078125	0.000345428466796875	2773.336976998
0.075225830078125	0.000354888916015625	2774.22198699576
0.07965087890625	0.00036309814453125	2775.10699699353
0.084075927734375	0.00037164306640625	2775.99200699129
0.0885009765625	0.000379638671875	2776.87701698906
0.092926025390625	0.000386962890625	2777.76202698682
0.09735107421875	0.000393890380859375	2778.64703698459
0.101776123046875	0.000400543212890625	2779.53204698236
0.106201171875	0.000407196044921875	2780.41705698012
0.110626220703125	0.0004130859375	2781.30206697789
0.11505126953125	0.000418792724609375	2782.18707697565
0.119476318359375	0.0004237060546875	2783.07208697342
0.1239013671875	0.000429412841796875	2783.95709697118
0.128326416015625	0.000434844970703125	2784.84210696895
0.13275146484375	0.00043988037109375	2785.72711696672
0.137176513671875	0.000444854736328125	2786.61212696448
0.1416015625	0.000449462890625	2787.49713696225
0.146026611328125	0.0004539794921875	2788.38214696001
0.15045166015625	0.0004583740234375	2789.26715695778
0.154876708984375	0.00046295166015625	2790.15216695554
0.1593017578125	0.000467132568359375	2791.03717695331
0.163726806640625	0.00047161865234375	2791.92218695107
0.16815185546875	0.00047552490234375	2792.80719694884
0.172576904296875	0.00047979736328125	2793.69220694661
0.177001953125	0.00048388671875	2794.57721694437
0.181427001953125	0.00048773193359375	2795.46222694214
0.18585205078125	0.000491973876953125	2796.3472369399
0.190277099609375	0.000495819091796875	2797.23224693767
0.1947021484375	0.000500030517578125	2798.11725693543
0.199127197265625	0.000504150390625	2799.0022669332
0.20355224609375	0.00050811767578125	2799.88727693096
0.207977294921875	0.000511871337890625	2800.77228692873
0.21240234375	0.000516082763671875	2801.6572969265
0.216827392578125	0.000520416259765625	2802.54230692426
0.22125244140625	0.000524444580078125	2803.42731692203
0.225677490234375	0.000528533935546875	2804.31232691979
0.2301025390625	0.000532867431640625	2805.19733691756
0.234527587890625	0.000536651611328125	2806.08234691532
0.23895263671875	0.00054107666015625	2806.96735691309
0.243377685546875	0.00054541015625	2807.85236691085
0.247802734375	0.000549774169921875	2808.73737690862
0.252227783203125	0.000553924560546875	2809.62238690639
0.25665283203125	0.0005582275390625	2810.50739690415
0.261077880859375	0.0005623779296875	2811.39240690192
0.2655029296875	0.000566925048828125	2812.27741689968
0.269927978515625	0.00057159423828125	2813.16242689745
0.27435302734375	0.0005758056640625	2814.04743689521
0.278778076171875	0.00058038330078125	2814.93244689298
0.283203125	0.00058489990234375	2815.81745689074
0.287628173828125	0.0005897216796875	2816.70246688851
0.29205322265625	0.000594451904296875	2817.58747688628
0.296478271484375	0.00059881591796875	2818.47248688404
0.3009033203125	0.000603485107421875	2819.35749688181
0.305328369140625	0.0006085205078125	2820.24250687957
0.30975341796875	0.00061309814453125	2821.12751687734
0.314178466796875	0.000618896484375	2822.0125268751
0.318603515625	0.0006231689453125	2822.89753687287
0.323028564453125	0.00062774658203125	2823.78254687063
0.32745361328125	0.00063201904296875	2824.6675568684
0.331878662109375	0.00063690185546875	2825.55256686617
0.3363037109375	0.000640869140625	2826.43757686393
0.340728759765625	0.0006451416015625	2827.3225868617
0.34515380859375	0.00064910888671875	2828.20759685946
0.349578857421875	0.000653076171875	2829.09260685723
0.35400390625	0.0006561279296875	2829.97761685499
0.358428955078125	0.000660400390625	2830.86262685276
0.36285400390625	0.0006640625	2831.74763685052
0.367279052734375	0.00066741943359375	2832.63264684829
0.3717041015625	0.000670166015625	2833.51765684606
0.376129150390625	0.0006732177734375	2834.40266684382
0.38055419921875	0.00067596435546875	2835.28767684159
0.384979248046875	0.00067840576171875	2836.17268683935
0.389404296875	0.00068084716796875	2837.05769683712
0.393829345703125	0.00068206787109375	2837.94270683488
0.39825439453125	0.00068359375	2838.82771683265
0.402679443359375	0.00068572998046875	2839.71272683041
0.4071044921875	0.00068695068359375	2840.59773682818
0.411529541015625	0.0006884765625	2841.48274682595
0.41595458984375	0.000689697265625	2842.36775682371
0.420379638671875	0.00069061279296875	2843.25276682148
0.4248046875	0.00069122314453125	2844.13777681924
0.429229736328125	0.000692138671875	2845.02278681701
0.43365478515625	0.000692138671875	2845.90779681477
0.438079833984375	0.0006927490234375	2846.79280681254
0.4425048828125	0.0006927490234375	2847.6778168103
0.446929931640625	0.0006927490234375	2848.56282680807
0.45135498046875	0.00069305419921875	2849.44783680584
0.455780029296875	0.00069305419921875	2850.3328468036
0.460205078125	0.0006927490234375	2851.21785680137
0.464630126953125	0.000692138671875	2852.10286679913
0.46905517578125	0.00069122314453125	2852.9878767969
0.473480224609375	0.00069091796875	2853.87288679466
0.4779052734375	0.0006903076171875	2854.75789679243
0.482330322265625	0.00069000244140625	2855.64290679019
0.48675537109375	0.0006890869140625	2856.52791678796
0.491180419921875	0.0006884765625	2857.41292678573
0.49560546875	0.000687255859375	2858.29793678349
0.500030517578125	0.0006866455078125	2859.18294678126
0.50445556640625	0.00068572998046875	2860.06795677902
0.508880615234375	0.00068450927734375	2860.95296677679
0.5133056640625	0.0006842041015625	2861.83797677455
0.517730712890625	0.0006829833984375	2862.72298677232
0.52215576171875	0.000682373046875	2863.60799677008
0.526580810546875	0.00068145751953125	2864.49300676785
0.531005859375	0.0006805419921875	2865.37801676562
0.535430908203125	0.00067962646484375	2866.26302676338
0.53985595703125	0.00067840576171875	2867.14803676115
0.544281005859375	0.00067718505859375	2868.03304675891
0.5487060546875	0.00067596435546875	2868.91805675668
0.553131103515625	0.00067535400390625	2869.80306675444
0.55755615234375	0.0006744384765625	2870.68807675221
0.561981201171875	0.000673828125	2871.57308674998
0.56640625	0.00067291259765625	2872.45809674774
0.570831298828125	0.000672607421875	2873.34310674551
0.57525634765625	0.0006719970703125	2874.22811674327
0.579681396484375	0.00067169189453125	2875.11312674104
0.5841064453125	0.0006707763671875	2875.9981367388
0.588531494140625	0.00066986083984375	2876.88314673657
0.59295654296875	0.000670166015625	2877.76815673433
0.597381591796875	0.000670166015625	2878.6531667321
0.601806640625	0.00066986083984375	2879.53817672986
0.606231689453125	0.00067047119140625	2880.42318672763
0.61065673828125	0.00067047119140625	2881.3081967254
0.615081787109375	0.0006707763671875	2882.19320672316
0.6195068359375	0.00067138671875	2883.07821672093
0.623931884765625	0.00067230224609375	2883.96322671869
0.62835693359375	0.000675048828125	2884.84823671646
0.632781982421875	0.000675048828125	2885.73324671422
0.63720703125	0.00067535400390625	2886.61825671199
0.641632080078125	0.00067657470703125	2887.50326670975
0.64605712890625	0.0006781005859375	2888.38827670752
0.650482177734375	0.0006793212890625	2889.27328670529
0.6549072265625	0.00068145751953125	2890.15829670305
0.659332275390625	0.00068267822265625	2891.04330670082
0.66375732421875	0.00068450927734375	2891.92831669858
0.668182373046875	0.000687255859375	2892.81332669635
0.672607421875	0.00069000244140625	2893.69833669411
0.677032470703125	0.0006927490234375	2894.58334669188
0.68145751953125	0.00069549560546875	2895.46835668965
0.685882568359375	0.00069854736328125	2896.35336668741
0.6903076171875	0.00070220947265625	2897.23837668518
0.694732666015625	0.00070556640625	2898.12338668294
0.69915771484375	0.0007098388671875	2899.00839668071
0.703582763671875	0.0007135009765625	2899.89340667847
0.7080078125	0.0007183837890625	2900.77841667624
0.712432861328125	0.00072357177734375	2901.663426674
0.71685791015625	0.0007293701171875	2902.54843667177
0.721282958984375	0.00073516845703125	2903.43344666954
0.7257080078125	0.000740966796875	2904.3184566673
0.730133056640625	0.00074798583984375	2905.20346666507
0.73455810546875	0.00075531005859375	2906.08847666283
0.738983154296875	0.00076324462890625	2906.9734866606
0.743408203125	0.00077056884765625	2907.85849665836
0.747833251953125	0.00077972412109375	2908.74350665613
0.75225830078125	0.00078887939453125	2909.62851665389
0.756683349609375	0.00079925537109375	2910.51352665166
0.7611083984375	0.00081024169921875	2911.39853664943
0.765533447265625	0.00082183837890625	2912.28354664719
0.76995849609375	0.00083465576171875	2913.16855664496
0.774383544921875	0.0008477783203125	2914.05356664272
0.77880859375	0.00086181640625	2914.93857664049
0.783233642578125	0.00087646484375	2915.82358663825
0.78765869140625	0.0008929443359375	2916.70859663602
0.792083740234375	0.00091033935546875	2917.59360663378
0.7965087890625	0.000928955078125	2918.47861663155
0.800933837890625	0.0009478759765625	2919.36362662932
0.80535888671875	0.0009686279296875	2920.24863662708
0.809783935546875	0.000989990234375	2921.13364662485
0.814208984375	0.0010125732421875	2922.01865662261
0.818634033203125	0.0010369873046875	2922.90366662038
0.82305908203125	0.00106201171875	2923.78867661814
0.827484130859375	0.0010888671875	2924.67368661591
0.8319091796875	0.0011163330078125	2925.55869661367
0.836334228515625	0.00114593505859375	2926.44370661144
0.84075927734375	0.0011761474609375	2927.32871660921
0.845184326171875	0.00120849609375	2928.21372660697
0.849609375	0.0012420654296875	2929.09873660474
0.854034423828125	0.00127716064453125	2929.9837466025
0.85845947265625	0.00131378173828125	2930.86875660027
0.862884521484375	0.0013507080078125	2931.75376659803
0.8673095703125	0.001390380859375	2932.6387765958
0.871734619140625	0.00143096923828125	2933.52378659356
0.87615966796875	0.001473388671875	2934.40879659133
0.880584716796875	0.00151763916015625	2935.2938065891
0.885009765625	0.0015625	2936.17881658686
0.889434814453125	0.00160919189453125	2937.06382658463
0.89385986328125	0.00165679931640625	2937.94883658239
0.898284912109375	0.0017059326171875	2938.83384658016
0.9027099609375	0.00175628662109375	2939.71885657792
0.907135009765625	0.00180755615234375	2940.60386657569
0.91156005859375	0.0018597412109375	2941.48887657345
0.915985107421875	0.00191314697265625	2942.37388657122
0.92041015625	0.00196685791015625	2943.25889656899
0.924835205078125	0.00202178955078125	2944.14390656675
0.92926025390625	0.002076416015625	2945.02891656452
0.933685302734375	0.00213104248046875	2945.91392656228
0.9381103515625	0.0021875	2946.79893656005
0.942535400390625	0.00224151611328125	2947.68394655781
0.94696044921875	0.0022955322265625	2948.56895655558
0.951385498046875	0.0023486328125	2949.45396655334
0.955810546875	0.00240142822265625	2950.33897655111
0.960235595703125	0.0024530029296875	2951.22398654888
0.96466064453125	0.0025030517578125	2952.10899654664
0.969085693359375	0.00255279541015625	2952.99400654441
0.9735107421875	0.00260101318359375	2953.87901654217
0.977935791015625	0.002646484375	2954.76402653994
0.98236083984375	0.00269195556640625	2955.6490365377
0.986785888671875	0.00273590087890625	2956.53404653547
0.9912109375	0.00277923583984375	2957.41905653323
0.995635986328125	0.00282135009765625	2958.304066531
1.00006103515625	0.00286407470703125	2959.18907652877
0.995635986328125	0.002408447265625	2960.07408652653
0.9912109375	0.00206085205078125	2960.9590965243
0.986785888671875	0.00177734375	2961.84410652206
0.98236083984375	0.00153656005859375	2962.72911651983
0.977935791015625	0.00132659912109375	2963.61412651759
0.9735107421875	0.00114227294921875	2964.49913651536
0.969085693359375	0.000975341796875	2965.38414651312
0.96466064453125	0.0008251953125	2966.26915651089
0.960235595703125	0.00068939208984375	2967.15416650866
0.955810546875	0.00056427001953125	2968.03917650642
0.951385498046875	0.000450469970703125	2968.92418650419
0.94696044921875	0.000345245361328125	2969.80919650195
0.942535400390625	0.000248199462890625	2970.69420649972
0.9381103515625	0.0001585693359375	2971.57921649748
0.933685302734375	7.354736328125E-05	2972.46422649525
0.92926025390625	-3.69873046875E-06	2973.34923649301
0.924835205078125	-7.53173828125E-05	2974.23424649078
0.92041015625	-0.000141998291015625	2975.11925648855
0.915985107421875	-0.000203948974609375	2976.00426648631
0.91156005859375	-0.000261993408203125	2976.88927648408
0.907135009765625	-0.000316131591796875	2977.77428648184
0.9027099609375	-0.0003665771484375	2978.65929647961
0.898284912109375	-0.000413482666015625	2979.54430647737
0.89385986328125	-0.000457611083984375	2980.42931647514
0.889434814453125	-0.000498260498046875	2981.31432647291
0.885009765625	-0.000536407470703125	2982.19933647067
0.880584716796875	-0.000571502685546875	2983.08434646844
0.87615966796875	-0.000604156494140625	2983.9693564662
0.871734619140625	-0.00063446044921875	2984.85436646397
0.8673095703125	-0.00066253662109375	2985.73937646173
0.862884521484375	-0.00068817138671875	2986.6243864595
0.85845947265625	-0.0007110595703125	2987.50939645726
0.854034423828125	-0.00073272705078125	2988.39440645503
0.849609375	-0.00075225830078125	2989.27941645279
0.845184326171875	-0.00076995849609375	2990.16442645056
0.84075927734375	-0.0007855224609375	2991.04943644833
0.836334228515625	-0.00079925537109375	2991.93444644609
0.8319091796875	-0.000811767578125	2992.81945644386
0.827484130859375	-0.00082275390625	2993.70446644162
0.82305908203125	-0.0008319091796875	2994.58947643939
0.818634033203125	-0.00083984375	2995.47448643715
0.814208984375	-0.00084686279296875	2996.35949643492
0.809783935546875	-0.00085205078125	2997.24450643268
0.80535888671875	-0.0008563232421875	2998.12951643045
0.800933837890625	-0.000859375	2999.01452642822
0.7965087890625	-0.00086090087890625	2999.89953642598
0.792083740234375	-0.00086181640625	3000.78454642375
0.78765869140625	-0.00086181640625	3001.66955642151
0.783233642578125	-0.000860595703125	3002.55456641928
0.77880859375	-0.000858154296875	3003.43957641704
0.774383544921875	-0.00085601806640625	3004.32458641481
0.76995849609375	-0.00085235595703125	3005.20959641258
0.765533447265625	-0.00084869384765625	3006.09460641034
0.7611083984375	-0.0008441162109375	3006.97961640811
0.756683349609375	-0.00083892822265625	3007.86462640587
0.75225830078125	-0.00083343505859375	3008.74963640364
0.747833251953125	-0.00082763671875	3009.6346464014
0.743408203125	-0.00082122802734375	3010.51965639917
0.738983154296875	-0.00081390380859375	3011.40466639693
0.73455810546875	-0.00080780029296875	3012.2896763947
0.730133056640625	-0.00080108642578125	3013.17468639247
0.7257080078125	-0.000794677734375	3014.05969639023
0.721282958984375	-0.00078704833984375	3014.944706388
0.71685791015625	-0.0007806396484375	3015.82971638576
0.712432861328125	-0.00077392578125	3016.71472638353
0.7080078125	-0.00076751708984375	3017.59973638129
0.703582763671875	-0.00076080322265625	3018.48474637906
0.69915771484375	-0.0007537841796875	3019.36975637682
0.694732666015625	-0.00074737548828125	3020.25476637459
0.6903076171875	-0.000740966796875	3021.13977637236
0.685882568359375	-0.00073455810546875	3022.02478637012
0.68145751953125	-0.00072845458984375	3022.90979636789
0.677032470703125	-0.00072265625	3023.79480636565
0.672607421875	-0.000716552734375	3024.67981636342
0.668182373046875	-0.00071136474609375	3025.56482636118
0.66375732421875	-0.00070587158203125	3026.44983635895
0.659332275390625	-0.00070098876953125	3027.33484635671
0.6549072265625	-0.00069580078125	3028.21985635448
0.650482177734375	-0.00069122314453125	3029.10486635225
0.64605712890625	-0.0006866455078125	3029.98987635001
0.641632080078125	-0.00068267822265625	3030.87488634778
0.63720703125	-0.00067840576171875	3031.75989634554
0.632781982421875	-0.0006744384765625	3032.64490634331
0.62835693359375	-0.00067108154296875	3033.52991634107
0.623931884765625	-0.00066925048828125	3034.41492633884
0.6195068359375	-0.0006658935546875	3035.2999363366
0.615081787109375	-0.0006622314453125	3036.18494633437
0.61065673828125	-0.00065948486328125	3037.06995633214
0.606231689453125	-0.00065704345703125	3037.9549663299
0.601806640625	-0.00065460205078125	3038.83997632767
0.597381591796875	-0.00065277099609375	3039.72498632543
0.59295654296875	-0.000650634765625	3040.6099963232
0.588531494140625	-0.00064910888671875	3041.49500632096
0.5841064453125	-0.00064666748046875	3042.38001631873
0.579681396484375	-0.000645751953125	3043.26502631649
0.57525634765625	-0.0006451416015625	3044.15003631426
0.570831298828125	-0.00064483642578125	3045.03504631203
0.56640625	-0.00064453125	3045.92005630979
0.561981201171875	-0.00064361572265625	3046.80506630756
0.55755615234375	-0.000643310546875	3047.69007630532
0.553131103515625	-0.000643310546875	3048.57508630309
0.5487060546875	-0.00064361572265625	3049.46009630085
0.544281005859375	-0.000643310546875	3050.34510629862
0.53985595703125	-0.0006439208984375	3051.23011629638
0.535430908203125	-0.00064483642578125	3052.11512629415
0.531005859375	-0.00064544677734375	3053.00013629192
0.526580810546875	-0.000645751953125	3053.88514628968
0.52215576171875	-0.00064666748046875	3054.77015628745
0.517730712890625	-0.0006475830078125	3055.65516628521
0.5133056640625	-0.0006488037109375	3056.54017628298
0.508880615234375	-0.0006500244140625	3057.42518628074
0.50445556640625	-0.00065093994140625	3058.31019627851
0.500030517578125	-0.00065216064453125	3059.19520627627
0.49560546875	-0.00065338134765625	3060.08021627404
0.491180419921875	-0.000654296875	3060.96522627181
0.48675537109375	-0.00065582275390625	3061.85023626957
0.482330322265625	-0.00065704345703125	3062.73524626734
0.4779052734375	-0.000657958984375	3063.6202562651
0.473480224609375	-0.00065887451171875	3064.50526626287
0.46905517578125	-0.000660400390625	3065.39027626063
0.464630126953125	-0.00066070556640625	3066.2752862584
0.460205078125	-0.00066192626953125	3067.16029625616
0.455780029296875	-0.000662841796875	3068.04530625393
0.45135498046875	-0.0006634521484375	3068.9303162517
0.446929931640625	-0.00066436767578125	3069.81532624946
0.4425048828125	-0.00066497802734375	3070.70033624723
0.438079833984375	-0.0006658935546875	3071.58534624499
0.43365478515625	-0.00066680908203125	3072.47035624276
0.429229736328125	-0.00066680908203125	3073.35536624052
0.4248046875	-0.00066741943359375	3074.24037623829
0.420379638671875	-0.0006683349609375	3075.12538623605
0.41595458984375	-0.00066864013671875	3076.01039623382
0.411529541015625	-0.00066925048828125	3076.89540623159
0.4071044921875	-0.0006695556640625	3077.78041622935
0.402679443359375	-0.00066986083984375	3078.66542622712
0.39825439453125	-0.0006707763671875	3079.55043622488
0.393829345703125	-0.00067108154296875	3080.43544622265
0.389404296875	-0.00067108154296875	3081.32045622041
0.384979248046875	-0.0006719970703125	3082.20546621818
0.38055419921875	-0.00067291259765625	3083.09047621594
0.376129150390625	-0.00067352294921875	3083.97548621371
0.3717041015625	-0.0006744384765625	3084.86049621148
0.367279052734375	-0.00067535400390625	3085.74550620924
0.36285400390625	-0.00067626953125	3086.63051620701
0.358428955078125	-0.00067718505859375	3087.51552620477
0.35400390625	-0.00067779541015625	3088.40053620254
0.349578857421875	-0.00067779541015625	3089.2855462003
0.34515380859375	-0.00067962646484375	3090.17055619807
0.340728759765625	-0.00068023681640625	3091.05556619584
0.3363037109375	-0.00068206787109375	3091.9405761936
0.331878662109375	-0.00068359375	3092.82558619137
0.32745361328125	-0.000684814453125	3093.71059618913
0.323028564453125	-0.00068634033203125	3094.5956061869
0.318603515625	-0.000687255859375	3095.48061618466
0.314178466796875	-0.00068878173828125	3096.36562618243
0.30975341796875	-0.0006915283203125	3097.25063618019
0.305328369140625	-0.00069244384765625	3098.13564617796
0.3009033203125	-0.00069366455078125	3099.02065617572
0.296478271484375	-0.0006951904296875	3099.90566617349
0.29205322265625	-0.00069671630859375	3100.79067617126
0.287628173828125	-0.0006982421875	3101.67568616902
0.283203125	-0.00069976806640625	3102.56069616679
0.278778076171875	-0.0007012939453125	3103.44570616455
0.27435302734375	-0.000703125	3104.33071616232
0.269927978515625	-0.000704345703125	3105.21572616008
0.2655029296875	-0.00070587158203125	3106.10073615785
0.261077880859375	-0.00070770263671875	3106.98574615561
0.25665283203125	-0.000709228515625	3107.87075615338
0.252227783203125	-0.00071075439453125	3108.75576615115
0.247802734375	-0.00071258544921875	3109.64077614891
0.243377685546875	-0.0007135009765625	3110.52578614668
0.23895263671875	-0.00071533203125	3111.41079614444
0.234527587890625	-0.000716552734375	3112.29580614221
0.2301025390625	-0.0007177734375	3113.18081613997
0.225677490234375	-0.0007196044921875	3114.06582613774
0.22125244140625	-0.00072113037109375	3114.95083613551
0.216827392578125	-0.00072265625	3115.83584613327
0.21240234375	-0.00072418212890625	3116.72085613104
0.207977294921875	-0.0007257080078125	3117.6058661288
0.20355224609375	-0.00072662353515625	3118.49087612657
0.199127197265625	-0.000728759765625	3119.37588612433
0.1947021484375	-0.00072998046875	3120.2608961221
0.190277099609375	-0.000731201171875	3121.14590611986
0.18585205078125	-0.0007330322265625	3122.03091611763
0.181427001953125	-0.00073455810546875	3122.9159261154
0.177001953125	-0.00073638916015625	3123.80093611316
0.172576904296875	-0.00073822021484375	3124.68594611093
0.16815185546875	-0.00074005126953125	3125.57095610869
0.163726806640625	-0.00074188232421875	3126.45596610646
0.1593017578125	-0.00074432373046875	3127.34097610422
0.154876708984375	-0.00074615478515625	3128.22598610199
0.15045166015625	-0.00074859619140625	3129.11099609975
0.146026611328125	-0.00075103759765625	3129.99600609752
0.1416015625	-0.0007537841796875	3130.88101609529
0.137176513671875	-0.00075653076171875	3131.76602609305
0.13275146484375	-0.0007598876953125	3132.65103609082
0.128326416015625	-0.00076263427734375	3133.53604608858
0.1239013671875	-0.00076568603515625	3134.42105608635
0.119476318359375	-0.00076873779296875	3135.30606608411
0.11505126953125	-0.000771484375	3136.19107608188
0.110626220703125	-0.00077484130859375	3137.07608607964
0.106201171875	-0.00077850341796875	3137.96109607741
0.101776123046875	-0.00078155517578125	3138.84610607518
0.09735107421875	-0.00078460693359375	3139.73111607294
0.092926025390625	-0.00078765869140625	3140.61612607071
0.0885009765625	-0.000791015625	3141.50113606847
0.084075927734375	-0.00079376220703125	3142.38614606624
0.07965087890625	-0.00079681396484375	3143.271156064
0.075225830078125	-0.000799560546875	3144.15616606177
0.07080078125	-0.0008026123046875	3145.04117605953
0.066375732421875	-0.00080535888671875	3145.9261860573
0.06195068359375	-0.0008087158203125	3146.81119605507
0.057525634765625	-0.00081207275390625	3147.69620605283
0.0531005859375	-0.00081512451171875	3148.5812160506
0.048675537109375	-0.0008184814453125	3149.46622604836
0.04425048828125	-0.0008221435546875	3150.35123604613
0.039825439453125	-0.0008258056640625	3151.23624604389
0.035400390625	-0.0008294677734375	3152.12125604166
0.030975341796875	-0.00083404541015625	3153.00626603942
0.02655029296875	-0.0008380126953125	3153.89127603719
0.022125244140625	-0.00084320068359375	3154.77628603496
0.0177001953125	-0.000848388671875	3155.66129603272
0.013275146484375	-0.00085357666015625	3156.54630603049
0.00885009765625	-0.00085968017578125	3157.43131602825
0.004425048828125	-0.00086578369140625	3158.31632602602
0	-0.00087249755859375	3159.20133602378
0.004425048828125	-0.00051361083984375	3160.08634602155
0.00885009765625	-0.000299346923828125	3160.97135601931
0.013275146484375	-0.0001573486328125	3161.85636601708
0.0177001953125	-5.6732177734375E-05	3162.74137601485
0.022125244140625	1.84967041015625E-05	3163.62638601261
0.02655029296875	7.7606201171875E-05	3164.51139601038
0.030975341796875	0.000125030517578125	3165.39640600814
0.035400390625	0.000164398193359375	3166.28141600591
0.039825439453125	0.00019720458984375	3167.16642600367
0.04425048828125	0.0002252197265625	3168.05143600144
0.048675537109375	0.00025006103515625	3168.9364459992
0.0531005859375	0.000271514892578125	3169.82145599697
0.057525634765625	0.0002906494140625	3170.70646599474
0.06195068359375	0.000307708740234375	3171.5914759925
0.066375732421875	0.000322967529296875	3172.47648599027
0.07080078125	0.00033599853515625	3173.36149598803
0.075225830078125	0.000348663330078125	3174.2465059858
0.07965087890625	0.000359619140625	3175.13151598356
0.084075927734375	0.0003702392578125	3176.01652598133
0.0885009765625	0.0003797607421875	3176.90153597909
0.092926025390625	0.000388946533203125	3177.78654597686
0.09735107421875	0.000397216796875	3178.67155597463
0.101776123046875	0.00040460205078125	3179.55656597239
0.106201171875	0.000411834716796875	3180.44157597016
0.110626220703125	0.000418792724609375	3181.32658596792
0.11505126953125	0.000425201416015625	3182.21159596569
0.119476318359375	0.00043035888671875	3183.09660596345
0.1239013671875	0.000436431884765625	3183.98161596122
0.128326416015625	0.000442108154296875	3184.86662595898
0.13275146484375	0.00044757080078125	3185.75163595675
0.137176513671875	0.00045269775390625	3186.63664595452
0.1416015625	0.000457611083984375	3187.52165595228
0.146026611328125	0.0004622802734375	3188.40666595005
0.15045166015625	0.000466827392578125	3189.29167594781
0.154876708984375	0.000471435546875	3190.17668594558
0.1593017578125	0.000475250244140625	3191.06169594334
0.163726806640625	0.00047991943359375	3191.94670594111
0.16815185546875	0.00048431396484375	3192.83171593887
0.172576904296875	0.000488433837890625	3193.71672593664
0.177001953125	0.00049267578125	3194.60173593441
0.181427001953125	0.000496826171875	3195.48674593217
0.18585205078125	0.000500762939453125	3196.37175592994
0.190277099609375	0.000505035400390625	3197.2567659277
0.1947021484375	0.000508880615234375	3198.14177592547
0.199127197265625	0.0005126953125	3199.02678592323
0.20355224609375	0.000516815185546875	3199.911795921
0.207977294921875	0.00052081298828125	3200.79680591877
0.21240234375	0.000524749755859375	3201.68181591653
0.216827392578125	0.0005291748046875	3202.5668259143
0.22125244140625	0.00053277587890625	3203.45183591206
0.225677490234375	0.000536834716796875	3204.33684590983
0.2301025390625	0.000540771484375	3205.22185590759
0.234527587890625	0.0005445556640625	3206.10686590536
0.23895263671875	0.000548583984375	3206.99187590312
0.243377685546875	0.00055291748046875	3207.87688590089
0.247802734375	0.000557281494140625	3208.76189589865
0.252227783203125	0.0005609130859375	3209.64690589642
0.25665283203125	0.00056512451171875	3210.53191589419
0.261077880859375	0.000569244384765625	3211.41692589195
0.2655029296875	0.000573577880859375	3212.30193588972
0.269927978515625	0.0005777587890625	3213.18694588748
0.27435302734375	0.0005816650390625	3214.07195588525
0.278778076171875	0.000586212158203125	3214.95696588301
0.283203125	0.000589599609375	3215.84197588078
0.287628173828125	0.00059442138671875	3216.72698587854
0.29205322265625	0.0005986328125	3217.61199587631
0.296478271484375	0.00060284423828125	3218.49700587408
0.3009033203125	0.0006072998046875	3219.38201587184
0.305328369140625	0.00061126708984375	3220.26702586961
0.30975341796875	0.00061553955078125	3221.15203586737
0.314178466796875	0.00062103271484375	3222.03704586514
0.318603515625	0.0006243896484375	3222.9220558629
0.323028564453125	0.00062835693359375	3223.80706586067
0.32745361328125	0.00063201904296875	3224.69207585844
0.331878662109375	0.00063629150390625	3225.5770858562
0.3363037109375	0.0006396484375	3226.46209585397
0.340728759765625	0.0006439208984375	3227.34710585173
0.34515380859375	0.00064666748046875	3228.2321158495
0.349578857421875	0.00065032958984375	3229.11712584726
0.35400390625	0.0006524658203125	3230.00213584503
0.358428955078125	0.00065643310546875	3230.88714584279
0.36285400390625	0.0006591796875	3231.77215584056
0.367279052734375	0.0006622314453125	3232.65716583833
0.3717041015625	0.00066497802734375	3233.54217583609
0.376129150390625	0.00066741943359375	3234.42718583386
0.38055419921875	0.0006695556640625	3235.31219583162
0.384979248046875	0.00067169189453125	3236.19720582939
0.389404296875	0.0006732177734375	3237.08221582715
0.393829345703125	0.00067474365234375	3237.96722582492
0.39825439453125	0.00067657470703125	3238.85223582268
0.402679443359375	0.0006781005859375	3239.73724582045
0.4071044921875	0.0006793212890625	3240.62225581822
0.411529541015625	0.00068023681640625	3241.50726581598
0.41595458984375	0.0006817626953125	3242.39227581375
0.420379638671875	0.000682373046875	3243.27728581151
0.4248046875	0.00068328857421875	3244.16229580928
0.429229736328125	0.0006842041015625	3245.04730580704
0.43365478515625	0.000684814453125	3245.93231580481
0.438079833984375	0.0006854248046875	3246.81732580257
0.4425048828125	0.00068603515625	3247.70233580034
0.446929931640625	0.00068634033203125	3248.58734579811
0.45135498046875	0.00068695068359375	3249.47235579587
0.455780029296875	0.000687255859375	3250.35736579364
0.460205078125	0.000687255859375	3251.2423757914
0.464630126953125	0.0006878662109375	3252.12738578917
0.46905517578125	0.00068695068359375	3253.01239578693
0.473480224609375	0.000687255859375	3253.8974057847
0.4779052734375	0.0006866455078125	3254.78241578246
0.482330322265625	0.00068634033203125	3255.66742578023
0.48675537109375	0.00068634033203125	3256.552435778
0.491180419921875	0.00068511962890625	3257.43744577576
0.49560546875	0.000684814453125	3258.32245577353
0.500030517578125	0.00068450927734375	3259.20746577129
0.50445556640625	0.00068389892578125	3260.09247576906
0.508880615234375	0.0006829833984375	3260.97748576682
0.5133056640625	0.000682373046875	3261.86249576459
0.517730712890625	0.0006817626953125	3262.74750576235
0.52215576171875	0.00068115234375	3263.63251576012
0.526580810546875	0.0006805419921875	3264.51752575789
0.531005859375	0.00068023681640625	3265.40253575565
0.535430908203125	0.0006793212890625	3266.28754575342
0.53985595703125	0.00067901611328125	3267.17255575118
0.544281005859375	0.00067840576171875	3268.05756574895
0.5487060546875	0.00067718505859375	3268.94257574671
0.553131103515625	0.00067718505859375	3269.82758574448
0.55755615234375	0.0006768798828125	3270.71259574224
0.561981201171875	0.00067657470703125	3271.59760574001
0.56640625	0.00067626953125	3272.48261573778
0.570831298828125	0.00067626953125	3273.36762573554
0.57525634765625	0.00067626953125	3274.25263573331
0.579681396484375	0.00067596435546875	3275.13764573107
0.5841064453125	0.00067626953125	3276.02265572884
0.588531494140625	0.00067535400390625	3276.9076657266
0.59295654296875	0.00067596435546875	3277.79267572437
0.597381591796875	0.00067657470703125	3278.67768572213
0.601806640625	0.00067657470703125	3279.5626957199
0.606231689453125	0.000677490234375	3280.44770571767
0.61065673828125	0.000677490234375	3281.33271571543
0.615081787109375	0.00067840576171875	3282.2177257132
0.6195068359375	0.00067901611328125	3283.10273571096
0.623931884765625	0.000679931640625	3283.98774570873
0.62835693359375	0.0006829833984375	3284.87275570649
0.632781982421875	0.00068328857421875	3285.75776570426
0.63720703125	0.00068389892578125	3286.64277570202
0.641632080078125	0.00068511962890625	3287.52778569979
0.64605712890625	0.00068634033203125	3288.41279569756
0.650482177734375	0.00068817138671875	3289.29780569532
0.6549072265625	0.000689697265625	3290.18281569309
0.659332275390625	0.0006915283203125	3291.06782569085
0.66375732421875	0.00069366455078125	3291.95283568862
0.668182373046875	0.00069549560546875	3292.83784568638
0.672607421875	0.00069793701171875	3293.72285568415
0.677032470703125	0.00070098876953125	3294.60786568191
0.68145751953125	0.0007037353515625	3295.49287567968
0.685882568359375	0.000706787109375	3296.37788567745
0.6903076171875	0.0007098388671875	3297.26289567521
0.694732666015625	0.0007135009765625	3298.14790567298
0.69915771484375	0.00071685791015625	3299.03291567074
0.703582763671875	0.0007208251953125	3299.91792566851
0.7080078125	0.00072509765625	3300.80293566627
0.712432861328125	0.00072998046875	3301.68794566404
0.71685791015625	0.00073486328125	3302.5729556618
0.721282958984375	0.00074005126953125	3303.45796565957
0.7257080078125	0.00074615478515625	3304.34297565734
0.730133056640625	0.00075225830078125	3305.2279856551
0.73455810546875	0.00075836181640625	3306.11299565287
0.738983154296875	0.000765380859375	3306.99800565063
0.743408203125	0.00077178955078125	3307.8830156484
0.747833251953125	0.000780029296875	3308.76802564616
0.75225830078125	0.00078826904296875	3309.65303564393
0.756683349609375	0.0007977294921875	3310.5380456417
0.7611083984375	0.0008074951171875	3311.42305563946
0.765533447265625	0.00081787109375	3312.30806563723
0.76995849609375	0.000828857421875	3313.19307563499
0.774383544921875	0.00084075927734375	3314.07808563276
0.77880859375	0.00085296630859375	3314.96309563052
0.783233642578125	0.0008660888671875	3315.84810562829
0.78765869140625	0.00088043212890625	3316.73311562605
0.792083740234375	0.0008953857421875	3317.61812562382
0.7965087890625	0.0009112548828125	3318.50313562158
0.800933837890625	0.00092803955078125	3319.38814561935
0.80535888671875	0.00094573974609375	3320.27315561712
0.809783935546875	0.00096405029296875	3321.15816561488
0.814208984375	0.00098358154296875	3322.04317561265
0.818634033203125	0.00100433349609375	3322.92818561041
0.82305908203125	0.001025390625	3323.81319560818
0.827484130859375	0.00104827880859375	3324.69820560594
0.8319091796875	0.00107177734375	3325.58321560371
0.836334228515625	0.00109588623046875	3326.46822560147
0.84075927734375	0.00112152099609375	3327.35323559924
0.845184326171875	0.001148681640625	3328.23824559701
0.849609375	0.00117584228515625	3329.12325559477
0.854034423828125	0.00120452880859375	3330.00826559254
0.85845947265625	0.00123443603515625	3330.8932755903
0.862884521484375	0.00126434326171875	3331.77828558807
0.8673095703125	0.00129638671875	3332.66329558583
0.871734619140625	0.00132904052734375	3333.5483055836
0.87615966796875	0.00136199951171875	3334.43331558137
0.880584716796875	0.001396484375	3335.31832557913
0.885009765625	0.0014312744140625	3336.2033355769
0.889434814453125	0.0014666748046875	3337.08834557466
0.89385986328125	0.001502685546875	3337.97335557243
0.898284912109375	0.0015399169921875	3338.85836557019
0.9027099609375	0.001575927734375	3339.74337556796
0.907135009765625	0.00161376953125	3340.62838556572
0.91156005859375	0.0016510009765625	3341.51339556349
0.915985107421875	0.001689453125	3342.39840556126
0.92041015625	0.0017266845703125	3343.28341555902
0.924835205078125	0.00176483154296875	3344.16842555679
0.92926025390625	0.0018023681640625	3345.05343555455
0.933685302734375	0.001839599609375	3345.93844555232
0.9381103515625	0.00187835693359375	3346.82345555008
0.942535400390625	0.00191436767578125	3347.70846554785
0.94696044921875	0.0019500732421875	3348.59347554561
0.951385498046875	0.00198516845703125	3349.47848554338
0.955810546875	0.00201904296875	3350.36349554115
0.960235595703125	0.00205291748046875	3351.24850553891
0.96466064453125	0.00208587646484375	3352.13351553668
0.969085693359375	0.00211822509765625	3353.01852553444
0.9735107421875	0.00215087890625	3353.90353553221
0.977935791015625	0.0021820068359375	3354.78854552997
0.98236083984375	0.00221466064453125	3355.67355552774
0.986785888671875	0.00224884033203125	3356.5585655255
0.9912109375	0.00228363037109375	3357.44357552327
0.995635986328125	0.0023211669921875	3358.32858552104
1.00006103515625	0.00235992431640625	3359.2135955188
0.995635986328125	0.00192718505859375	3360.09860551657
0.9912109375	0.00160980224609375	3360.98361551433
0.986785888671875	0.0013580322265625	3361.8686255121
0.98236083984375	0.001148681640625	3362.75363550986
0.977935791015625	0.00097015380859375	3363.63864550763
0.9735107421875	0.00081512451171875	3364.52365550539
0.969085693359375	0.0006768798828125	3365.40866550316
0.96466064453125	0.000552978515625	3366.29367550093
0.960235595703125	0.000441497802734375	3367.17868549869
0.955810546875	0.00034027099609375	3368.06369549646
0.951385498046875	0.00024761962890625	3368.94870549422
0.94696044921875	0.000162994384765625	3369.83371549199
0.942535400390625	8.53271484375E-05	3370.71872548975
0.9381103515625	1.30706787109375E-05	3371.60373548752
0.933685302734375	-5.5328369140625E-05	3372.48874548528
0.92926025390625	-0.00011688232421875	3373.37375548305
0.924835205078125	-0.000173828125	3374.25876548082
0.92041015625	-0.000227447509765625	3375.14377547858
0.915985107421875	-0.0002769775390625	3376.02878547635
0.91156005859375	-0.00032354736328125	3376.91379547411
0.907135009765625	-0.000366455078125	3377.79880547188
0.9027099609375	-0.00040673828125	3378.68381546964
0.898284912109375	-0.0004443359375	3379.56882546741
0.89385986328125	-0.00047882080078125	3380.45383546517
0.889434814453125	-0.000511932373046875	3381.33884546294
0.885009765625	-0.000541961669921875	3382.22385546071
0.880584716796875	-0.000569976806640625	3383.10886545847
0.87615966796875	-0.00059613037109375	3383.99387545624
0.871734619140625	-0.000620025634765625	3384.878885454
0.8673095703125	-0.0006414794921875	3385.76389545177
0.862884521484375	-0.00066192626953125	3386.64890544953
0.85845947265625	-0.000679931640625	3387.5339154473
0.854034423828125	-0.00069671630859375	3388.41892544506
0.849609375	-0.00071197509765625	3389.30393544283
0.845184326171875	-0.00072601318359375	3390.1889454406
0.84075927734375	-0.0007379150390625	3391.07395543836
0.836334228515625	-0.0007489013671875	3391.95896543613
0.8319091796875	-0.00075836181640625	3392.84397543389
0.827484130859375	-0.0007666015625	3393.72898543166
0.82305908203125	-0.0007733154296875	3394.61399542942
0.818634033203125	-0.00077911376953125	3395.49900542719
0.814208984375	-0.00078399658203125	3396.38401542495
0.809783935546875	-0.00078765869140625	3397.26902542272
0.80535888671875	-0.00079071044921875	3398.15403542049
0.800933837890625	-0.00079315185546875	3399.03904541825
0.7965087890625	-0.00079376220703125	3399.92405541602
0.792083740234375	-0.000794677734375	3400.80906541378
0.78765869140625	-0.00079376220703125	3401.69407541155
0.783233642578125	-0.00079315185546875	3402.57908540931
0.77880859375	-0.00079132080078125	3403.46409540708
0.774383544921875	-0.00078887939453125	3404.34910540484
0.76995849609375	-0.0007861328125	3405.23411540261
0.765533447265625	-0.00078277587890625	3406.11912540038
0.7611083984375	-0.0007794189453125	3407.00413539814
0.756683349609375	-0.0007757568359375	3407.88914539591
0.75225830078125	-0.000771484375	3408.77415539367
0.747833251953125	-0.00076629638671875	3409.65916539144
0.743408203125	-0.00076171875	3410.5441753892
0.738983154296875	-0.000755615234375	3411.42918538697
0.73455810546875	-0.000750732421875	3412.31419538473
0.730133056640625	-0.00074554443359375	3413.1992053825
0.7257080078125	-0.00073974609375	3414.08421538027
0.721282958984375	-0.0007342529296875	3414.96922537803
0.71685791015625	-0.00072906494140625	3415.8542353758
0.712432861328125	-0.00072357177734375	3416.73924537356
0.7080078125	-0.00071807861328125	3417.62425537133
0.703582763671875	-0.000712890625	3418.50926536909
0.69915771484375	-0.000706787109375	3419.39427536686
0.694732666015625	-0.00070220947265625	3420.27928536463
0.6903076171875	-0.00069732666015625	3421.16429536239
0.685882568359375	-0.000692138671875	3422.04930536016
0.68145751953125	-0.000687255859375	3422.93431535792
0.677032470703125	-0.00068267822265625	3423.81932535569
0.672607421875	-0.0006781005859375	3424.70433535345
0.668182373046875	-0.00067352294921875	3425.58934535122
0.66375732421875	-0.00066925048828125	3426.47435534898
0.659332275390625	-0.00066558837890625	3427.35936534675
0.6549072265625	-0.00066162109375	3428.24437534451
0.650482177734375	-0.000657958984375	3429.12938534228
0.64605712890625	-0.000654296875	3430.01439534005
0.641632080078125	-0.000650634765625	3430.89940533781
0.63720703125	-0.000648193359375	3431.78441533558
0.632781982421875	-0.00064544677734375	3432.66942533334
0.62835693359375	-0.00064239501953125	3433.55443533111
0.623931884765625	-0.00064178466796875	3434.43944532887
0.6195068359375	-0.00063873291015625	3435.32445532664
0.615081787109375	-0.0006365966796875	3436.2094653244
0.61065673828125	-0.00063446044921875	3437.09447532217
0.606231689453125	-0.0006329345703125	3437.97948531994
0.601806640625	-0.00063079833984375	3438.8644953177
0.597381591796875	-0.00062957763671875	3439.74950531547
0.59295654296875	-0.000628662109375	3440.63451531323
0.588531494140625	-0.00062774658203125	3441.519525311
0.5841064453125	-0.000626220703125	3442.40453530876
0.579681396484375	-0.00062591552734375	3443.28954530653
0.57525634765625	-0.0006256103515625	3444.1745553043
0.570831298828125	-0.00062530517578125	3445.05956530206
0.56640625	-0.00062591552734375	3445.94457529983
0.561981201171875	-0.00062591552734375	3446.82958529759
0.55755615234375	-0.000626220703125	3447.71459529536
0.553131103515625	-0.00062652587890625	3448.59960529312
0.5487060546875	-0.00062713623046875	3449.48461529089
0.544281005859375	-0.00062744140625	3450.36962528865
0.53985595703125	-0.0006280517578125	3451.25463528642
0.535430908203125	-0.00062957763671875	3452.13964528419
0.531005859375	-0.0006304931640625	3453.02465528195
0.526580810546875	-0.0006317138671875	3453.90966527972
0.52215576171875	-0.0006329345703125	3454.79467527748
0.517730712890625	-0.0006341552734375	3455.67968527525
0.5133056640625	-0.0006353759765625	3456.56469527301
0.508880615234375	-0.00063720703125	3457.44970527078
0.50445556640625	-0.00063873291015625	3458.33471526854
0.500030517578125	-0.0006402587890625	3459.21972526631
0.49560546875	-0.00064178466796875	3460.10473526408
0.491180419921875	-0.000643310546875	3460.98974526184
0.48675537109375	-0.00064483642578125	3461.87475525961
0.482330322265625	-0.00064666748046875	3462.75976525737
0.4779052734375	-0.00064788818359375	3463.64477525514
0.473480224609375	-0.0006494140625	3464.5297852529
0.46905517578125	-0.00065093994140625	3465.41479525067
0.464630126953125	-0.00065155029296875	3466.29980524843
0.460205078125	-0.00065338134765625	3467.1848152462
0.455780029296875	-0.000654296875	3468.06982524397
0.45135498046875	-0.000655517578125	3468.95483524173
0.446929931640625	-0.00065673828125	3469.8398452395
0.4425048828125	-0.00065765380859375	3470.72485523726
0.438079833984375	-0.0006585693359375	3471.60986523503
0.43365478515625	-0.0006591796875	3472.49487523279
0.429229736328125	-0.0006597900390625	3473.37988523056
0.4248046875	-0.000660400390625	3474.26489522832
0.420379638671875	-0.0006610107421875	3475.14990522609
0.41595458984375	-0.00066162109375	3476.03491522386
0.411529541015625	-0.00066192626953125	3476.91992522162
0.4071044921875	-0.00066253662109375	3477.80493521939
0.402679443359375	-0.00066314697265625	3478.68994521715
0.39825439453125	-0.00066375732421875	3479.57495521492
0.393829345703125	-0.00066375732421875	3480.45996521268
0.389404296875	-0.0006640625	3481.34497521045
0.384979248046875	-0.0006646728515625	3482.22998520821
0.38055419921875	-0.000665283203125	3483.11499520598
0.376129150390625	-0.0006658935546875	3484.00000520375
0.3717041015625	-0.00066680908203125	3484.88501520151
0.367279052734375	-0.00066741943359375	3485.77002519928
0.36285400390625	-0.000667724609375	3486.65503519704
0.358428955078125	-0.00066925048828125	3487.54004519481
0.35400390625	-0.00066986083984375	3488.42505519257
0.349578857421875	-0.00066986083984375	3489.31006519034
0.34515380859375	-0.00067108154296875	3490.1950751881
0.340728759765625	-0.0006719970703125	3491.08008518587
0.3363037109375	-0.00067291259765625	3491.96509518364
0.331878662109375	-0.000673828125	3492.8501051814
0.32745361328125	-0.000675048828125	3493.73511517917
0.323028564453125	-0.00067657470703125	3494.62012517693
0.318603515625	-0.000677490234375	3495.5051351747
0.314178466796875	-0.00067901611328125	3496.39014517246
0.30975341796875	-0.00068145751953125	3497.27515517023
0.305328369140625	-0.000682373046875	3498.16016516799
0.3009033203125	-0.00068328857421875	3499.04517516576
0.296478271484375	-0.0006842041015625	3499.93018516353
0.29205322265625	-0.0006854248046875	3500.81519516129
0.287628173828125	-0.00068695068359375	3501.70020515906
0.283203125	-0.0006884765625	3502.58521515682
0.278778076171875	-0.000689697265625	3503.47022515459
0.27435302734375	-0.00069122314453125	3504.35523515235
0.269927978515625	-0.0006927490234375	3505.24024515012
0.2655029296875	-0.00069427490234375	3506.12525514788
0.261077880859375	-0.0006951904296875	3507.01026514565
0.25665283203125	-0.00069671630859375	3507.89527514342
0.252227783203125	-0.00069793701171875	3508.78028514118
0.247802734375	-0.00069976806640625	3509.66529513895
0.243377685546875	-0.0007012939453125	3510.55030513671
0.23895263671875	-0.0007025146484375	3511.43531513448
0.234527587890625	-0.00070404052734375	3512.32032513224
0.2301025390625	-0.0007049560546875	3513.20533513001
0.225677490234375	-0.00070648193359375	3514.09034512777
0.22125244140625	-0.0007080078125	3514.97535512554
0.216827392578125	-0.000709228515625	3515.86036512331
0.21240234375	-0.00071075439453125	3516.74537512107
0.207977294921875	-0.00071197509765625	3517.63038511884
0.20355224609375	-0.0007135009765625	3518.5153951166
0.199127197265625	-0.00071502685546875	3519.40040511437
0.1947021484375	-0.000716552734375	3520.28541511213
0.190277099609375	-0.0007177734375	3521.1704251099
0.18585205078125	-0.0007196044921875	3522.05543510766
0.181427001953125	-0.00072113037109375	3522.94044510543
0.177001953125	-0.00072296142578125	3523.8254551032
0.172576904296875	-0.00072479248046875	3524.71046510096
0.16815185546875	-0.0007269287109375	3525.59547509873
0.163726806640625	-0.000728759765625	3526.48048509649
0.1593017578125	-0.000731201171875	3527.36549509426
0.154876708984375	-0.0007330322265625	3528.25050509202
0.15045166015625	-0.00073577880859375	3529.13551508979
0.146026611328125	-0.000738525390625	3530.02052508756
0.1416015625	-0.00074127197265625	3530.90553508532
0.137176513671875	-0.00074432373046875	3531.79054508309
0.13275146484375	-0.0007470703125	3532.67555508085
0.128326416015625	-0.0007501220703125	3533.56056507862
0.1239013671875	-0.000753173828125	3534.44557507638
0.119476318359375	-0.00075653076171875	3535.33058507415
0.11505126953125	-0.00075897216796875	3536.21559507191
0.110626220703125	-0.00076263427734375	3537.10060506968
0.106201171875	-0.0007666015625	3537.98561506744
0.101776123046875	-0.000770263671875	3538.87062506521
0.09735107421875	-0.00077362060546875	3539.75563506298
0.092926025390625	-0.000777587890625	3540.64064506074
0.0885009765625	-0.00078125	3541.52565505851
0.084075927734375	-0.00078399658203125	3542.41066505627
0.07965087890625	-0.0007879638671875	3543.29567505404
0.075225830078125	-0.00079132080078125	3544.1806850518
0.07080078125	-0.0007952880859375	3545.06569504957
0.066375732421875	-0.000799560546875	3545.95070504733
0.06195068359375	-0.00080352783203125	3546.8357150451
0.057525634765625	-0.00080780029296875	3547.72072504287
0.0531005859375	-0.00081207275390625	3548.60573504063
0.048675537109375	-0.000816650390625	3549.4907450384
0.04425048828125	-0.000821533203125	3550.37575503616
0.039825439453125	-0.00082672119140625	3551.26076503393
0.035400390625	-0.00083221435546875	3552.14577503169
0.030975341796875	-0.00083770751953125	3553.03078502946
0.02655029296875	-0.0008441162109375	3553.91579502723
0.022125244140625	-0.000850830078125	3554.80080502499
0.0177001953125	-0.00085723876953125	3555.68581502276
0.013275146484375	-0.00086456298828125	3556.57082502052
0.00885009765625	-0.00087188720703125	3557.45583501829
0.004425048828125	-0.0008795166015625	3558.34084501605
0	-0.0008880615234375	3559.22585501382
0.004425048828125	-0.00052581787109375	3560.11086501158
0.00885009765625	-0.000308624267578125	3560.99587500935
0.013275146484375	-0.0001641845703125	3561.88088500712
0.0177001953125	-6.134033203125E-05	3562.76589500488
0.022125244140625	1.6094970703125E-05	3563.65090500265
0.02655029296875	7.666015625E-05	3564.53591500041
0.030975341796875	0.00012567138671875	3565.42092499818
0.035400390625	0.000165985107421875	3566.30593499594
0.039825439453125	0.000200042724609375	3567.19094499371
0.04425048828125	0.000229400634765625	3568.07595499147
0.048675537109375	0.00025506591796875	3568.96096498924
0.0531005859375	0.000277435302734375	3569.84597498701
0.057525634765625	0.00029766845703125	3570.73098498477
0.06195068359375	0.000315155029296875	3571.61599498254
0.066375732421875	0.000330718994140625	3572.5010049803
0.07080078125	0.000344482421875	3573.38601497807
0.075225830078125	0.000357757568359375	3574.27102497583
0.07965087890625	0.00036871337890625	3575.1560349736
0.084075927734375	0.0003798828125	3576.04104497136
0.0885009765625	0.000389556884765625	3576.92605496913
0.092926025390625	0.000398834228515625	3577.8110649669
0.09735107421875	0.000407318115234375	3578.69607496466
0.101776123046875	0.00041534423828125	3579.58108496243
0.106201171875	0.000422332763671875	3580.46609496019
0.110626220703125	0.0004290771484375	3581.35110495796
0.11505126953125	0.000435577392578125	3582.23611495572
0.119476318359375	0.000440582275390625	3583.12112495349
0.1239013671875	0.000446563720703125	3584.00613495125
0.128326416015625	0.000451812744140625	3584.89114494902
0.13275146484375	0.000457122802734375	3585.77615494679
0.137176513671875	0.000461944580078125	3586.66116494455
0.1416015625	0.00046636962890625	3587.54617494232
0.146026611328125	0.00047088623046875	3588.43118494008
0.15045166015625	0.00047540283203125	3589.31619493785
0.154876708984375	0.000479400634765625	3590.20120493561
0.1593017578125	0.00048309326171875	3591.08621493338
0.163726806640625	0.000487274169921875	3591.97122493114
0.16815185546875	0.00049114990234375	3592.85623492891
0.172576904296875	0.00049493408203125	3593.74124492668
0.177001953125	0.000498565673828125	3594.62625492444
0.181427001953125	0.000502349853515625	3595.51126492221
0.18585205078125	0.000505950927734375	3596.39627491997
0.190277099609375	0.000509521484375	3597.28128491774
0.1947021484375	0.000512725830078125	3598.1662949155
0.199127197265625	0.00051629638671875	3599.05130491327
0.20355224609375	0.0005196533203125	3599.93631491103
0.207977294921875	0.000522918701171875	3600.8213249088
0.21240234375	0.000526519775390625	3601.70633490657
0.216827392578125	0.000530120849609375	3602.59134490433
0.22125244140625	0.000533416748046875	3603.4763549021
0.225677490234375	0.000536529541015625	3604.36136489986
0.2301025390625	0.000540252685546875	3605.24637489763
0.234527587890625	0.000543060302734375	3606.13138489539
0.23895263671875	0.000546783447265625	3607.01639489316
0.243377685546875	0.000550262451171875	3607.90140489092
0.247802734375	0.0005535888671875	3608.78641488869
0.252227783203125	0.0005572509765625	3609.67142488646
0.25665283203125	0.000560760498046875	3610.55643488422
0.261077880859375	0.00056427001953125	3611.44144488199
0.2655029296875	0.000567596435546875	3612.32645487975
0.269927978515625	0.000571441650390625	3613.21146487752
0.27435302734375	0.0005745849609375	3614.09647487528
0.278778076171875	0.000578155517578125	3614.98148487305
0.283203125	0.000581817626953125	3615.86649487081
0.287628173828125	0.000585479736328125	3616.75150486858
0.29205322265625	0.00058892822265625	3617.63651486635
0.296478271484375	0.0005927734375	3618.52152486411
0.3009033203125	0.000596282958984375	3619.40653486188
0.305328369140625	0.00059991455078125	3620.29154485964
0.30975341796875	0.000603485107421875	3621.17655485741
0.314178466796875	0.0006085205078125	3622.06156485517
0.318603515625	0.000611572265625	3622.94657485294
0.323028564453125	0.00061492919921875	3623.8315848507
0.32745361328125	0.00061737060546875	3624.71659484847
0.331878662109375	0.00062103271484375	3625.60160484624
0.3363037109375	0.0006243896484375	3626.486614844
0.340728759765625	0.00062774658203125	3627.37162484177
0.34515380859375	0.0006304931640625	3628.25663483953
0.349578857421875	0.000633544921875	3629.1416448373
0.35400390625	0.0006353759765625	3630.02665483506
0.358428955078125	0.00063873291015625	3630.91166483283
0.36285400390625	0.0006414794921875	3631.79667483059
0.367279052734375	0.0006439208984375	3632.68168482836
0.3717041015625	0.00064666748046875	3633.56669482613
0.376129150390625	0.0006488037109375	3634.45170482389
0.38055419921875	0.00065093994140625	3635.33671482166
0.384979248046875	0.00065277099609375	3636.22172481942
0.389404296875	0.000654296875	3637.10673481719
0.393829345703125	0.000655517578125	3637.99174481495
0.39825439453125	0.00065704345703125	3638.87675481272
0.402679443359375	0.0006585693359375	3639.76176481049
0.4071044921875	0.0006597900390625	3640.64677480825
0.411529541015625	0.0006610107421875	3641.53178480602
0.41595458984375	0.0006622314453125	3642.41679480378
0.420379638671875	0.00066314697265625	3643.30180480155
0.4248046875	0.00066436767578125	3644.18681479931
0.429229736328125	0.00066497802734375	3645.07182479708
0.43365478515625	0.00066619873046875	3645.95683479484
0.438079833984375	0.0006671142578125	3646.84184479261
0.4425048828125	0.00066741943359375	3647.72685479038
0.446929931640625	0.0006683349609375	3648.61186478814
0.45135498046875	0.0006689453125	3649.49687478591
0.455780029296875	0.0006695556640625	3650.38188478367
0.460205078125	0.00066986083984375	3651.26689478144
0.464630126953125	0.00067047119140625	3652.1519047792
0.46905517578125	0.000670166015625	3653.03691477697
0.473480224609375	0.00067047119140625	3653.92192477473
0.4779052734375	0.00067047119140625	3654.8069347725
0.482330322265625	0.00067047119140625	3655.69194477026
0.48675537109375	0.000670166015625	3656.57695476803
0.491180419921875	0.000670166015625	3657.4619647658
0.49560546875	0.000670166015625	3658.34697476356
0.500030517578125	0.00066986083984375	3659.23198476133
0.50445556640625	0.0006695556640625	3660.11699475909
0.508880615234375	0.0006689453125	3661.00200475686
0.5133056640625	0.00066925048828125	3661.88701475462
0.517730712890625	0.0006689453125	3662.77202475239
0.52215576171875	0.0006683349609375	3663.65703475016
0.526580810546875	0.00066802978515625	3664.54204474792
0.531005859375	0.000667724609375	3665.42705474569
0.535430908203125	0.00066741943359375	3666.31206474345
0.53985595703125	0.00066680908203125	3667.19707474122
0.544281005859375	0.00066650390625	3668.08208473898
0.5487060546875	0.00066558837890625	3668.96709473675
0.553131103515625	0.00066558837890625	3669.85210473451
0.55755615234375	0.00066558837890625	3670.73711473228
0.561981201171875	0.0006658935546875	3671.62212473005
0.56640625	0.00066558837890625	3672.50713472781
0.570831298828125	0.00066558837890625	3673.39214472558
0.57525634765625	0.00066558837890625	3674.27715472334
0.579681396484375	0.00066558837890625	3675.16216472111
0.5841064453125	0.00066558837890625	3676.04717471887
0.588531494140625	0.000665283203125	3676.93218471664
0.59295654296875	0.0006658935546875	3677.8171947144
0.597381591796875	0.00066619873046875	3678.70220471217
0.601806640625	0.00066680908203125	3679.58721470994
0.606231689453125	0.0006671142578125	3680.4722247077
0.61065673828125	0.00066802978515625	3681.35723470547
0.615081787109375	0.00066864013671875	3682.24224470323
0.6195068359375	0.00066925048828125	3683.127254701
0.623931884765625	0.0006695556640625	3684.01226469876
0.62835693359375	0.000672607421875	3684.89727469653
0.632781982421875	0.00067230224609375	3685.78228469429
0.63720703125	0.0006732177734375	3686.66729469206
0.641632080078125	0.00067413330078125	3687.55230468983
0.64605712890625	0.0006756591796875	3688.43731468759
0.650482177734375	0.00067718505859375	3689.32232468536
0.6549072265625	0.0006781005859375	3690.20733468312
0.659332275390625	0.000679931640625	3691.09234468089
0.66375732421875	0.0006817626953125	3691.97735467865
0.668182373046875	0.00068359375	3692.86236467642
0.672607421875	0.0006854248046875	3693.74737467418
0.677032470703125	0.0006878662109375	3694.63238467195
0.68145751953125	0.0006903076171875	3695.51739466972
0.685882568359375	0.0006927490234375	3696.40240466748
0.6903076171875	0.0006951904296875	3697.28741466525
0.694732666015625	0.00069854736328125	3698.17242466301
0.69915771484375	0.00070159912109375	3699.05743466078
0.703582763671875	0.000704345703125	3699.94244465854
0.7080078125	0.00070831298828125	3700.82745465631
0.712432861328125	0.00071258544921875	3701.71246465407
0.71685791015625	0.000716552734375	3702.59747465184
0.721282958984375	0.00072113037109375	3703.48248464961
0.7257080078125	0.00072601318359375	3704.36749464737
0.730133056640625	0.000731201171875	3705.25250464514
0.73455810546875	0.00073699951171875	3706.1375146429
0.738983154296875	0.0007427978515625	3707.02252464067
0.743408203125	0.00074798583984375	3707.90753463843
0.747833251953125	0.000755615234375	3708.7925446362
0.75225830078125	0.000762939453125	3709.67755463396
0.756683349609375	0.00077117919921875	3710.56256463173
0.7611083984375	0.00077972412109375	3711.4475746295
0.765533447265625	0.0007879638671875	3712.33258462726
0.76995849609375	0.0007977294921875	3713.21759462503
0.774383544921875	0.00080810546875	3714.10260462279
0.77880859375	0.00081878662109375	3714.98761462056
0.783233642578125	0.00083038330078125	3715.87262461832
0.78765869140625	0.00084259033203125	3716.75763461609
0.792083740234375	0.00085540771484375	3717.64264461385
0.7965087890625	0.00086944580078125	3718.52765461162
0.800933837890625	0.00088409423828125	3719.41266460939
0.80535888671875	0.000899658203125	3720.29767460715
0.809783935546875	0.0009161376953125	3721.18268460492
0.814208984375	0.00093292236328125	3722.06769460268
0.818634033203125	0.000950927734375	3722.95270460045
0.82305908203125	0.0009698486328125	3723.83771459821
0.827484130859375	0.0009893798828125	3724.72272459598
0.8319091796875	0.0010101318359375	3725.60773459374
0.836334228515625	0.00103179931640625	3726.49274459151
0.84075927734375	0.0010540771484375	3727.37775458928
0.845184326171875	0.0010772705078125	3728.26276458704
0.849609375	0.00110107421875	3729.14777458481
0.854034423828125	0.00112640380859375	3730.03278458257
0.85845947265625	0.00115203857421875	3730.91779458034
0.862884521484375	0.001177978515625	3731.8028045781
0.8673095703125	0.0012060546875	3732.68781457587
0.871734619140625	0.001234130859375	3733.57282457363
0.87615966796875	0.00126312255859375	3734.4578345714
0.880584716796875	0.00129241943359375	3735.34284456917
0.885009765625	0.0013226318359375	3736.22785456693
0.889434814453125	0.0013531494140625	3737.1128645647
0.89385986328125	0.00138397216796875	3737.99787456246
0.898284912109375	0.001414794921875	3738.88288456023
0.9027099609375	0.00144622802734375	3739.76789455799
0.907135009765625	0.001478271484375	3740.65290455576
0.91156005859375	0.00150970458984375	3741.53791455352
0.915985107421875	0.00154144287109375	3742.42292455129
0.92041015625	0.001572265625	3743.30793454906
0.924835205078125	0.00160369873046875	3744.19294454682
0.92926025390625	0.00163482666015625	3745.07795454459
0.933685302734375	0.00166534423828125	3745.96296454235
0.9381103515625	0.00169647216796875	3746.84797454012
0.942535400390625	0.001724853515625	3747.73298453788
0.94696044921875	0.0017529296875	3748.61799453565
0.951385498046875	0.00178070068359375	3749.50300453342
0.955810546875	0.0018072509765625	3750.38801453118
0.960235595703125	0.00183380126953125	3751.27302452895
0.96466064453125	0.00186004638671875	3752.15803452671
0.969085693359375	0.00188568115234375	3753.04304452448
0.9735107421875	0.00191192626953125	3753.92805452224
0.977935791015625	0.0019384765625	3754.81306452001
0.98236083984375	0.0019671630859375	3755.69807451777
0.986785888671875	0.0019976806640625	3756.58308451554
0.9912109375	0.00202972412109375	3757.46809451331
0.995635986328125	0.00206512451171875	3758.35310451107
1.00006103515625	0.00210296630859375	3759.23811450884
0.995635986328125	0.001683349609375	3760.1231245066
0.9912109375	0.00138275146484375	3761.00813450437
0.986785888671875	0.0011480712890625	3761.89314450213
0.98236083984375	0.00095550537109375	3762.7781544999
0.977935791015625	0.0007928466796875	3763.66316449766
0.9735107421875	0.0006536865234375	3764.54817449543
0.969085693359375	0.00052947998046875	3765.43318449319
0.96466064453125	0.0004197998046875	3766.31819449096
0.960235595703125	0.000321197509765625	3767.20320448873
0.955810546875	0.000232177734375	3768.08821448649
0.951385498046875	0.000151123046875	3768.97322448426
0.94696044921875	7.71484375E-05	3769.85823448202
0.942535400390625	9.429931640625E-06	3770.74324447979
0.9381103515625	-5.3802490234375E-05	3771.62825447755
0.933685302734375	-0.00011334228515625	3772.51326447532
0.92926025390625	-0.000166473388671875	3773.39827447309
0.924835205078125	-0.000215972900390625	3774.28328447085
0.92041015625	-0.000262542724609375	3775.16829446862
0.915985107421875	-0.00030535888671875	3776.05330446638
0.91156005859375	-0.000345703125	3776.93831446415
0.907135009765625	-0.000383544921875	3777.82332446191
0.9027099609375	-0.000418670654296875	3778.70833445968
0.898284912109375	-0.00045147705078125	3779.59334445744
0.89385986328125	-0.000482147216796875	3780.47835445521
0.889434814453125	-0.0005106201171875	3781.36336445298
0.885009765625	-0.000536529541015625	3782.24837445074
0.880584716796875	-0.000561126708984375	3783.13338444851
0.87615966796875	-0.00058380126953125	3784.01839444627
0.871734619140625	-0.00060467529296875	3784.90340444404
0.8673095703125	-0.00062347412109375	3785.7884144418
0.862884521484375	-0.00064056396484375	3786.67342443957
0.85845947265625	-0.00065673828125	3787.55843443733
0.854034423828125	-0.0006707763671875	3788.4434444351
0.849609375	-0.0006842041015625	3789.32845443287
0.845184326171875	-0.00069580078125	3790.21346443063
0.84075927734375	-0.00070648193359375	3791.0984744284
0.836334228515625	-0.00071563720703125	3791.98348442616
0.8319091796875	-0.0007232666015625	3792.86849442393
0.827484130859375	-0.0007305908203125	3793.75350442169
0.82305908203125	-0.00073638916015625	3794.63851441946
0.818634033203125	-0.00074066162109375	3795.52352441722
0.814208984375	-0.00074493408203125	3796.40853441499
0.809783935546875	-0.00074798583984375	3797.29354441276
0.80535888671875	-0.00074981689453125	3798.17855441052
0.800933837890625	-0.00075164794921875	3799.06356440829
0.7965087890625	-0.000751953125	3799.94857440605
0.792083740234375	-0.00075164794921875	3800.83358440382
0.78765869140625	-0.000750732421875	3801.71859440158
0.783233642578125	-0.00074981689453125	3802.60360439935
0.77880859375	-0.0007476806640625	3803.48861439711
0.774383544921875	-0.0007452392578125	3804.37362439488
0.76995849609375	-0.00074249267578125	3805.25863439265
0.765533447265625	-0.0007391357421875	3806.14364439041
0.7611083984375	-0.0007354736328125	3807.02865438818
0.756683349609375	-0.0007318115234375	3807.91366438594
0.75225830078125	-0.00072784423828125	3808.79867438371
0.747833251953125	-0.0007232666015625	3809.68368438147
0.743408203125	-0.000718994140625	3810.56869437924
0.738983154296875	-0.0007135009765625	3811.453704377
0.73455810546875	-0.00070892333984375	3812.33871437477
0.730133056640625	-0.00070465087890625	3813.22372437254
0.7257080078125	-0.00069976806640625	3814.1087343703
0.721282958984375	-0.0006951904296875	3814.99374436807
0.71685791015625	-0.0006903076171875	3815.87875436583
0.712432861328125	-0.00068511962890625	3816.7637643636
0.7080078125	-0.0006805419921875	3817.64877436136
0.703582763671875	-0.00067596435546875	3818.53378435913
0.69915771484375	-0.00067047119140625	3819.41879435689
0.694732666015625	-0.00066619873046875	3820.30380435466
0.6903076171875	-0.00066192626953125	3821.18881435243
0.685882568359375	-0.00065765380859375	3822.07382435019
0.68145751953125	-0.00065338134765625	3822.95883434796
0.677032470703125	-0.0006494140625	3823.84384434572
0.672607421875	-0.00064544677734375	3824.72885434349
0.668182373046875	-0.00064178466796875	3825.61386434125
0.66375732421875	-0.00063812255859375	3826.49887433902
0.659332275390625	-0.000634765625	3827.38388433678
0.6549072265625	-0.0006317138671875	3828.26889433455
0.650482177734375	-0.000628662109375	3829.15390433232
0.64605712890625	-0.000626220703125	3830.03891433008
0.641632080078125	-0.00062347412109375	3830.92392432785
0.63720703125	-0.00062103271484375	3831.80893432561
0.632781982421875	-0.000618896484375	3832.69394432338
0.62835693359375	-0.000616455078125	3833.57895432114
0.623931884765625	-0.000616455078125	3834.46396431891
0.6195068359375	-0.000614013671875	3835.34897431667
0.615081787109375	-0.0006121826171875	3836.23398431444
0.61065673828125	-0.0006103515625	3837.11899431221
0.606231689453125	-0.0006097412109375	3838.00400430997
0.601806640625	-0.0006085205078125	3838.88901430774
0.597381591796875	-0.0006072998046875	3839.7740243055
0.59295654296875	-0.0006072998046875	3840.65903430327
0.588531494140625	-0.00060699462890625	3841.54404430103
0.5841064453125	-0.00060546875	3842.4290542988
0.579681396484375	-0.0006060791015625	3843.31406429656
0.57525634765625	-0.00060638427734375	3844.19907429433
0.570831298828125	-0.000606689453125	3845.0840842921
0.56640625	-0.0006072998046875	3845.96909428986
0.561981201171875	-0.00060791015625	3846.85410428763
0.55755615234375	-0.000609130859375	3847.73911428539
0.553131103515625	-0.00060943603515625	3848.62412428316
0.5487060546875	-0.00061065673828125	3849.50913428092
0.544281005859375	-0.00061126708984375	3850.39414427869
0.53985595703125	-0.00061248779296875	3851.27915427645
0.535430908203125	-0.000614013671875	3852.16416427422
0.531005859375	-0.0006158447265625	3853.04917427199
0.526580810546875	-0.00061737060546875	3853.93418426975
0.52215576171875	-0.000618896484375	3854.81919426752
0.517730712890625	-0.0006207275390625	3855.70420426528
0.5133056640625	-0.00062255859375	3856.58921426305
0.508880615234375	-0.0006243896484375	3857.47422426081
0.50445556640625	-0.000626220703125	3858.35923425858
0.500030517578125	-0.00062774658203125	3859.24424425635
0.49560546875	-0.0006298828125	3860.12925425411
0.491180419921875	-0.00063201904296875	3861.01426425188
0.48675537109375	-0.00063385009765625	3861.89927424964
0.482330322265625	-0.00063568115234375	3862.78428424741
0.4779052734375	-0.00063751220703125	3863.66929424517
0.473480224609375	-0.00063873291015625	3864.55430424294
0.46905517578125	-0.000640869140625	3865.4393142407
0.464630126953125	-0.00064208984375	3866.32432423847
0.460205078125	-0.0006439208984375	3867.20933423624
0.455780029296875	-0.0006451416015625	3868.094344234
0.45135498046875	-0.00064666748046875	3868.97935423177
0.446929931640625	-0.00064788818359375	3869.86436422953
0.4425048828125	-0.0006488037109375	3870.7493742273
0.438079833984375	-0.00064971923828125	3871.63438422506
0.43365478515625	-0.00065093994140625	3872.51939422283
0.429229736328125	-0.00065185546875	3873.40440422059
0.4248046875	-0.0006524658203125	3874.28941421836
0.420379638671875	-0.000653076171875	3875.17442421612
0.41595458984375	-0.0006536865234375	3876.05943421389
0.411529541015625	-0.00065460205078125	3876.94444421166
0.4071044921875	-0.00065521240234375	3877.82945420942
0.402679443359375	-0.000655517578125	3878.71446420719
0.39825439453125	-0.00065582275390625	3879.59947420495
0.393829345703125	-0.00065643310546875	3880.48448420272
0.389404296875	-0.00065673828125	3881.36949420048
0.384979248046875	-0.00065704345703125	3882.25450419825
0.38055419921875	-0.00065765380859375	3883.13951419602
0.376129150390625	-0.0006585693359375	3884.02452419378
0.3717041015625	-0.0006591796875	3884.90953419155
0.367279052734375	-0.00066009521484375	3885.79454418931
0.36285400390625	-0.00066070556640625	3886.67955418708
0.358428955078125	-0.00066131591796875	3887.56456418484
0.35400390625	-0.00066192626953125	3888.44957418261
0.349578857421875	-0.00066192626953125	3889.33458418037
0.34515380859375	-0.00066314697265625	3890.21959417814
0.340728759765625	-0.0006640625	3891.10460417591
0.3363037109375	-0.000665283203125	3891.98961417367
0.331878662109375	-0.00066619873046875	3892.87462417144
0.32745361328125	-0.00066741943359375	3893.7596341692
0.323028564453125	-0.0006683349609375	3894.64464416697
0.318603515625	-0.0006695556640625	3895.52965416473
0.314178466796875	-0.00067047119140625	3896.4146641625
0.30975341796875	-0.00067291259765625	3897.29967416026
0.305328369140625	-0.000673828125	3898.18468415803
0.3009033203125	-0.00067474365234375	3899.0696941558
0.296478271484375	-0.00067535400390625	3899.95470415356
0.29205322265625	-0.00067657470703125	3900.83971415133
0.287628173828125	-0.0006781005859375	3901.72472414909
0.283203125	-0.0006793212890625	3902.60973414686
0.278778076171875	-0.0006805419921875	3903.49474414462
0.27435302734375	-0.00068206787109375	3904.37975414239
0.269927978515625	-0.0006829833984375	3905.26476414015
0.2655029296875	-0.0006842041015625	3906.14977413792
0.261077880859375	-0.00068572998046875	3907.03478413569
0.25665283203125	-0.000687255859375	3907.91979413345
0.252227783203125	-0.00068817138671875	3908.80480413122
0.247802734375	-0.000689697265625	3909.68981412898
0.243377685546875	-0.00069091796875	3910.57482412675
0.23895263671875	-0.000692138671875	3911.45983412451
0.234527587890625	-0.0006939697265625	3912.34484412228
0.2301025390625	-0.000694580078125	3913.22985412004
0.225677490234375	-0.00069610595703125	3914.11486411781
0.22125244140625	-0.00069732666015625	3914.99987411558
0.216827392578125	-0.0006988525390625	3915.88488411334
0.21240234375	-0.0007000732421875	3916.76989411111
0.207977294921875	-0.00070159912109375	3917.65490410887
0.20355224609375	-0.0007025146484375	3918.53991410664
0.199127197265625	-0.00070404052734375	3919.4249241044
0.1947021484375	-0.00070556640625	3920.30993410217
0.190277099609375	-0.00070709228515625	3921.19494409993
0.18585205078125	-0.00070892333984375	3922.0799540977
0.181427001953125	-0.00071044921875	3922.96496409547
0.177001953125	-0.0007122802734375	3923.84997409323
0.172576904296875	-0.000714111328125	3924.734984091
0.16815185546875	-0.00071624755859375	3925.61999408876
0.163726806640625	-0.0007183837890625	3926.50500408653
0.1593017578125	-0.00072052001953125	3927.39001408429
0.154876708984375	-0.00072235107421875	3928.27502408206
0.15045166015625	-0.00072509765625	3929.16003407982
0.146026611328125	-0.0007275390625	3930.04504407759
0.1416015625	-0.0007305908203125	3930.93005407536
0.137176513671875	-0.0007330322265625	3931.81506407312
0.13275146484375	-0.00073638916015625	3932.70007407089
0.128326416015625	-0.0007391357421875	3933.58508406865
0.1239013671875	-0.00074249267578125	3934.47009406642
0.119476318359375	-0.000745849609375	3935.35510406418
0.11505126953125	-0.000748291015625	3936.24011406195
0.110626220703125	-0.00075225830078125	3937.12512405971
0.106201171875	-0.00075592041015625	3938.01013405748
0.101776123046875	-0.00075958251953125	3938.89514405525
0.09735107421875	-0.00076385498046875	3939.78015405301
0.092926025390625	-0.0007672119140625	3940.66516405078
0.0885009765625	-0.00077117919921875	3941.55017404854
0.084075927734375	-0.000775146484375	3942.43518404631
0.07965087890625	-0.00077972412109375	3943.32019404407
0.075225830078125	-0.00078277587890625	3944.20520404184
0.07080078125	-0.000787353515625	3945.0902140396
0.066375732421875	-0.00079193115234375	3945.97522403737
0.06195068359375	-0.0007965087890625	3946.86023403514
0.057525634765625	-0.00080230712890625	3947.7452440329
0.0531005859375	-0.000806884765625	3948.63025403067
0.048675537109375	-0.00081268310546875	3949.51526402843
0.04425048828125	-0.0008184814453125	3950.4002740262
0.039825439453125	-0.00082427978515625	3951.28528402396
0.035400390625	-0.00083099365234375	3952.17029402173
0.030975341796875	-0.00083740234375	3953.05530401949
0.02655029296875	-0.00084442138671875	3953.94031401726
0.022125244140625	-0.00085205078125	3954.82532401503
0.0177001953125	-0.00085968017578125	3955.71033401279
0.013275146484375	-0.00086761474609375	3956.59534401056
0.00885009765625	-0.00087646484375	3957.48035400832
0.004425048828125	-0.0008856201171875	3958.36536400609
0	-0.00089508056640625	3959.25037400385
0.004425048828125	-0.00053070068359375	3960.13538400162
0.00885009765625	-0.00031158447265625	3961.02039399938
0.013275146484375	-0.000165771484375	3961.90540399715
0.0177001953125	-6.1279296875E-05	3962.79041399492
0.022125244140625	1.728515625E-05	3963.67542399268
0.02655029296875	7.8643798828125E-05	3964.56043399045
0.030975341796875	0.000128448486328125	3965.44544398821
0.035400390625	0.00017010498046875	3966.33045398598
0.039825439453125	0.000204986572265625	3967.21546398374
0.04425048828125	0.00023468017578125	3968.10047398151
0.048675537109375	0.000261016845703125	3968.98548397928
0.0531005859375	0.00028387451171875	3969.87049397704
0.057525634765625	0.00030426025390625	3970.75550397481
0.06195068359375	0.00032232666015625	3971.64051397257
0.066375732421875	0.000338287353515625	3972.52552397034
0.07080078125	0.000352630615234375	3973.4105339681
0.075225830078125	0.000365814208984375	3974.29554396587
0.07965087890625	0.00037725830078125	3975.18055396363
0.084075927734375	0.000388031005859375	3976.0655639614
0.0885009765625	0.000398193359375	3976.95057395917
0.092926025390625	0.000407135009765625	3977.83558395693
0.09735107421875	0.0004158935546875	3978.7205939547
0.101776123046875	0.000423675537109375	3979.60560395246
0.106201171875	0.00043115234375	3980.49061395023
0.110626220703125	0.0004376220703125	3981.37562394799
0.11505126953125	0.000443756103515625	3982.26063394576
0.119476318359375	0.000449188232421875	3983.14564394352
0.1239013671875	0.000454925537109375	3984.03065394129
0.128326416015625	0.000460052490234375	3984.91566393905
0.13275146484375	0.00046490478515625	3985.80067393682
0.137176513671875	0.00046978759765625	3986.68568393459
0.1416015625	0.000474273681640625	3987.57069393235
0.146026611328125	0.000478515625	3988.45570393012
0.15045166015625	0.00048248291015625	3989.34071392788
0.154876708984375	0.00048602294921875	3990.22572392565
0.1593017578125	0.000489501953125	3991.11073392341
0.163726806640625	0.00049310302734375	3991.99574392118
0.16815185546875	0.000496795654296875	3992.88075391895
0.172576904296875	0.00050030517578125	3993.76576391671
0.177001953125	0.000503326416015625	3994.65077391448
0.181427001953125	0.00050665283203125	3995.53578391224
0.18585205078125	0.000509857177734375	3996.42079391001
0.190277099609375	0.00051300048828125	3997.30580390777
0.1947021484375	0.00051593017578125	3998.19081390554
0.199127197265625	0.000519073486328125	3999.0758239033
0.20355224609375	0.00052203369140625	3999.96083390107
0.207977294921875	0.00052490234375	4000.84584389884
0.21240234375	0.0005281982421875	4001.7308538966
0.216827392578125	0.0005308837890625	4002.61586389437
0.22125244140625	0.000534332275390625	4003.50087389213
0.225677490234375	0.000536865234375	4004.3858838899
0.2301025390625	0.000539886474609375	4005.27089388766
0.234527587890625	0.000542266845703125	4006.15590388543
0.23895263671875	0.00054547119140625	4007.04091388319
0.243377685546875	0.00054852294921875	4007.92592388096
0.247802734375	0.000551727294921875	4008.81093387873
0.252227783203125	0.000554718017578125	4009.69594387649
0.25665283203125	0.000557525634765625	4010.58095387426
0.261077880859375	0.000560302734375	4011.46596387202
0.2655029296875	0.000563629150390625	4012.35097386979
0.269927978515625	0.00056646728515625	4013.23598386755
0.27435302734375	0.00056939697265625	4014.12099386532
0.278778076171875	0.00057275390625	4015.00600386308
0.283203125	0.000575653076171875	4015.89101386085
0.287628173828125	0.000579071044921875	4016.77602385862
0.29205322265625	0.000582366943359375	4017.66103385638
0.296478271484375	0.000585357666015625	4018.54604385415
0.3009033203125	0.00058880615234375	4019.43105385191
0.305328369140625	0.00059197998046875	4020.31606384968
0.30975341796875	0.000595001220703125	4021.20107384744
0.314178466796875	0.00059942626953125	4022.08608384521
0.318603515625	0.0006016845703125	4022.97109384297
0.323028564453125	0.0006048583984375	4023.85610384074
0.32745361328125	0.00060791015625	4024.74111383851
0.331878662109375	0.00061065673828125	4025.62612383627
0.3363037109375	0.00061370849609375	4026.51113383404
0.340728759765625	0.00061676025390625	4027.3961438318
0.34515380859375	0.0006195068359375	4028.28115382957
0.349578857421875	0.00062255859375	4029.16616382733
0.35400390625	0.00062347412109375	4030.0511738251
0.358428955078125	0.0006268310546875	4030.93618382286
0.36285400390625	0.00062896728515625	4031.82119382063
0.367279052734375	0.0006317138671875	4032.7062038184
0.3717041015625	0.00063385009765625	4033.59121381616
0.376129150390625	0.00063629150390625	4034.47622381393
0.38055419921875	0.000638427734375	4035.36123381169
0.384979248046875	0.00063995361328125	4036.24624380946
0.389404296875	0.00064117431640625	4037.13125380722
0.393829345703125	0.0006427001953125	4038.01626380499
0.39825439453125	0.0006439208984375	4038.90127380275
0.402679443359375	0.00064544677734375	4039.78628380052
0.4071044921875	0.0006463623046875	4040.67129379829
0.411529541015625	0.00064788818359375	4041.55630379605
0.41595458984375	0.00064910888671875	4042.44131379382
0.420379638671875	0.00064971923828125	4043.32632379158
0.4248046875	0.00065093994140625	4044.21133378935
0.429229736328125	0.00065185546875	4045.09634378711
0.43365478515625	0.00065277099609375	4045.98135378488
0.438079833984375	0.00065399169921875	4046.86636378264
0.4425048828125	0.00065460205078125	4047.75137378041
0.446929931640625	0.00065521240234375	4048.63638377818
0.45135498046875	0.00065643310546875	4049.52139377594
0.455780029296875	0.00065673828125	4050.40640377371
0.460205078125	0.0006573486328125	4051.29141377147
0.464630126953125	0.0006585693359375	4052.17642376924
0.46905517578125	0.000657958984375	4053.061433767
0.473480224609375	0.0006585693359375	4053.94644376477
0.4779052734375	0.00065887451171875	4054.83145376253
0.482330322265625	0.0006591796875	4055.7164637603
0.48675537109375	0.0006591796875	4056.60147375807
0.491180419921875	0.00065887451171875	4057.48648375583
0.49560546875	0.00065887451171875	4058.3714937536
0.500030517578125	0.0006591796875	4059.25650375136
0.50445556640625	0.0006591796875	4060.14151374913
0.508880615234375	0.00065887451171875	4061.02652374689
0.5133056640625	0.0006585693359375	4061.91153374466
0.517730712890625	0.0006585693359375	4062.79654374242
0.52215576171875	0.0006585693359375	4063.68155374019
0.526580810546875	0.00065826416015625	4064.56656373796
0.531005859375	0.00065826416015625	4065.45157373572
0.535430908203125	0.000657958984375	4066.33658373349
0.53985595703125	0.000657958984375	4067.22159373125
0.544281005859375	0.00065765380859375	4068.10660372902
0.5487060546875	0.0006573486328125	4068.99161372678
0.553131103515625	0.0006573486328125	4069.87662372455
0.55755615234375	0.00065643310546875	4070.76163372231
0.561981201171875	0.00065704345703125	4071.64664372008
0.56640625	0.00065704345703125	4072.53165371785
0.570831298828125	0.00065704345703125	4073.41666371561
0.57525634765625	0.00065704345703125	4074.30167371338
0.579681396484375	0.0006573486328125	4075.18668371114
0.5841064453125	0.0006573486328125	4076.07169370891
0.588531494140625	0.00065673828125	4076.95670370667
0.59295654296875	0.0006573486328125	4077.84171370444
0.597381591796875	0.000657958984375	4078.72672370221
0.601806640625	0.0006585693359375	4079.61173369997
0.606231689453125	0.00065887451171875	4080.49674369774
0.61065673828125	0.00065948486328125	4081.3817536955
0.615081787109375	0.00066009521484375	4082.26676369327
0.6195068359375	0.000660400390625	4083.15177369103
0.623931884765625	0.00066131591796875	4084.0367836888
0.62835693359375	0.00066375732421875	4084.92179368656
0.632781982421875	0.00066436767578125	4085.80680368433
0.63720703125	0.00066436767578125	4086.6918136821
0.641632080078125	0.00066558837890625	4087.57682367986
0.64605712890625	0.00066650390625	4088.46183367763
0.650482177734375	0.000667724609375	4089.34684367539
0.6549072265625	0.0006689453125	4090.23185367316
0.659332275390625	0.00067047119140625	4091.11686367092
0.66375732421875	0.00067230224609375	4092.00187366869
0.668182373046875	0.000673828125	4092.88688366645
0.672607421875	0.0006756591796875	4093.77189366422
0.677032470703125	0.00067779541015625	4094.65690366198
0.68145751953125	0.0006793212890625	4095.54191365975
0.685882568359375	0.0006817626953125	4096.42692365752
0.6903076171875	0.00068450927734375	4097.31193365528
0.694732666015625	0.000687255859375	4098.19694365305
0.69915771484375	0.000689697265625	4099.08195365081
0.703582763671875	0.000692138671875	4099.96696364858
0.7080078125	0.00069580078125	4100.85197364634
0.712432861328125	0.000699462890625	4101.73698364411
0.71685791015625	0.000703125	4102.62199364187
0.721282958984375	0.0007073974609375	4103.50700363964
0.7257080078125	0.000711669921875	4104.39201363741
0.730133056640625	0.00071624755859375	4105.27702363517
0.73455810546875	0.00072113037109375	4106.16203363294
0.738983154296875	0.000726318359375	4107.0470436307
0.743408203125	0.00073150634765625	4107.93205362847
0.747833251953125	0.0007379150390625	4108.81706362623
0.75225830078125	0.00074462890625	4109.702073624
0.756683349609375	0.00075164794921875	4110.58708362177
0.7611083984375	0.00075958251953125	4111.47209361953
0.765533447265625	0.000767822265625	4112.3571036173
0.76995849609375	0.00077606201171875	4113.24211361506
0.774383544921875	0.000784912109375	4114.12712361283
0.77880859375	0.00079437255859375	4115.01213361059
0.783233642578125	0.00080474853515625	4115.89714360836
0.78765869140625	0.00081573486328125	4116.78215360612
0.792083740234375	0.00082763671875	4117.66716360389
0.7965087890625	0.00083953857421875	4118.55217360166
0.800933837890625	0.00085296630859375	4119.43718359942
0.80535888671875	0.00086669921875	4120.32219359719
0.809783935546875	0.00088134765625	4121.20720359495
0.814208984375	0.0008966064453125	4122.09221359272
0.818634033203125	0.00091278076171875	4122.97722359048
0.82305908203125	0.00092987060546875	4123.86223358825
0.827484130859375	0.00094757080078125	4124.74724358601
0.8319091796875	0.0009661865234375	4125.63225358378
0.836334228515625	0.00098541259765625	4126.51726358155
0.84075927734375	0.001005859375	4127.40227357931
0.845184326171875	0.00102691650390625	4128.28728357708
0.849609375	0.001048583984375	4129.17229357484
0.854034423828125	0.00107147216796875	4130.05730357261
0.85845947265625	0.00109466552734375	4130.94231357037
0.862884521484375	0.0011181640625	4131.82732356814
0.8673095703125	0.0011431884765625	4132.7123335659
0.871734619140625	0.0011688232421875	4133.59734356367
0.87615966796875	0.00119476318359375	4134.48235356144
0.880584716796875	0.0012213134765625	4135.3673635592
0.885009765625	0.00124786376953125	4136.25237355697
0.889434814453125	0.0012750244140625	4137.13738355473
0.89385986328125	0.00130279541015625	4138.0223935525
0.898284912109375	0.00133087158203125	4138.90740355026
0.9027099609375	0.00135833740234375	4139.79241354803
0.907135009765625	0.00138641357421875	4140.67742354579
0.91156005859375	0.00141387939453125	4141.56243354356
0.915985107421875	0.001441650390625	4142.44744354133
0.92041015625	0.00146942138671875	4143.33245353909
0.924835205078125	0.00149627685546875	4144.21746353686
0.92926025390625	0.0015228271484375	4145.10247353462
0.933685302734375	0.00154876708984375	4145.98748353239
0.9381103515625	0.0015753173828125	4146.87249353015
0.942535400390625	0.00159942626953125	4147.75750352792
0.94696044921875	0.0016229248046875	4148.64251352568
0.951385498046875	0.0016461181640625	4149.52752352345
0.955810546875	0.0016680908203125	4150.41253352122
0.960235595703125	0.0016900634765625	4151.29754351898
0.96466064453125	0.001712646484375	4152.18255351675
0.969085693359375	0.001734619140625	4153.06756351451
0.9735107421875	0.00175811767578125	4153.95257351228
0.977935791015625	0.0017816162109375	4154.83758351004
0.98236083984375	0.0018084716796875	4155.72259350781
0.986785888671875	0.001837158203125	4156.60760350557
0.9912109375	0.0018682861328125	4157.49261350334
