Potential applied (V)	WE(1).Current (A)	Time (s)
0.004425048828125	-0.053997802734375	4159.99868649701
0.00885009765625	-0.0394805908203125	4160.4411914959
0.013275146484375	-0.029827880859375	4160.88369649478
0.0177001953125	-0.0230224609375	4161.32620149366
0.022125244140625	-0.0180389404296875	4161.76870649254
0.02655029296875	-0.014312744140625	4162.21121149143
0.030975341796875	-0.0114776611328125	4162.65371649031
0.035400390625	-0.009295654296875	4163.09622148919
0.039825439453125	-0.0075897216796875	4163.53872648808
0.04425048828125	-0.0062408447265625	4163.98123148696
0.048675537109375	-0.0051605224609375	4164.42373648584
0.0531005859375	-0.00429412841796875	4164.86624148472
0.057525634765625	-0.00358642578125	4165.30874648361
0.06195068359375	-0.003004150390625	4165.75125148249
0.066375732421875	-0.00252105712890625	4166.19375648137
0.07080078125	-0.00211700439453125	4166.63626148025
0.075225830078125	-0.00178436279296875	4167.07876647914
0.07965087890625	-0.0014947509765625	4167.52127147802
0.084075927734375	-0.001246337890625	4167.9637764769
0.0885009765625	-0.00103240966796875	4168.40628147579
0.092926025390625	-0.0008465576171875	4168.84878647467
0.09735107421875	-0.0006842041015625	4169.29129147355
0.101776123046875	-0.0005419921875	4169.73379647243
0.106201171875	-0.000415863037109375	4170.17630147132
0.110626220703125	-0.000303955078125	4170.6188064702
0.11505126953125	-0.000204254150390625	4171.06131146908
0.119476318359375	-0.0001162109375	4171.50381646797
0.1239013671875	-3.533935546875E-05	4171.94632146685
0.128326416015625	3.74755859375E-05	4172.38882646573
0.13275146484375	0.000103515625	4172.83133146461
0.137176513671875	0.00016375732421875	4173.2738364635
0.1416015625	0.000218536376953125	4173.71634146238
0.146026611328125	0.000269195556640625	4174.15884646126
0.15045166015625	0.000315673828125	4174.60135146014
0.154876708984375	0.000358917236328125	4175.04385645903
0.1593017578125	0.00039788818359375	4175.48636145791
0.163726806640625	0.000435089111328125	4175.92886645679
0.16815185546875	0.000469329833984375	4176.37137145568
0.172576904296875	0.0005013427734375	4176.81387645456
0.177001953125	0.000531005859375	4177.25638145344
0.181427001953125	0.00055908203125	4177.69888645232
0.18585205078125	0.00058544921875	4178.14139145121
0.190277099609375	0.0006103515625	4178.58389645009
0.1947021484375	0.000633544921875	4179.02640144897
0.199127197265625	0.00065521240234375	4179.46890644786
0.20355224609375	0.00067626953125	4179.91141144674
0.207977294921875	0.00069610595703125	4180.35391644562
0.21240234375	0.00071502685546875	4180.7964214445
0.216827392578125	0.00073333740234375	4181.23892644339
0.22125244140625	0.000750732421875	4181.68143144227
0.225677490234375	0.0007672119140625	4182.12393644115
0.2301025390625	0.0007830810546875	4182.56644144003
0.234527587890625	0.00079742431640625	4183.00894643892
0.23895263671875	0.00081268310546875	4183.4514514378
0.243377685546875	0.0008270263671875	4183.89395643668
0.247802734375	0.00084075927734375	4184.33646143557
0.252227783203125	0.0008538818359375	4184.77896643445
0.25665283203125	0.0008660888671875	4185.22147143333
0.261077880859375	0.00087890625	4185.66397643221
0.2655029296875	0.0008905029296875	4186.1064814311
0.269927978515625	0.000902099609375	4186.54898642998
0.27435302734375	0.0009130859375	4186.99149142886
0.278778076171875	0.000924072265625	4187.43399642775
0.283203125	0.0009344482421875	4187.87650142663
0.287628173828125	0.00094482421875	4188.31900642551
0.29205322265625	0.00095550537109375	4188.76151142439
0.296478271484375	0.00096527099609375	4189.20401642328
0.3009033203125	0.00097503662109375	4189.64652142216
0.305328369140625	0.000985107421875	4190.08902642104
0.30975341796875	0.000994873046875	4190.53153141993
0.314178466796875	0.001005859375	4190.97403641881
0.318603515625	0.001014404296875	4191.41654141769
0.323028564453125	0.00102325439453125	4191.85904641657
0.32745361328125	0.00103179931640625	4192.30155141546
0.331878662109375	0.0010406494140625	4192.74405641434
0.3363037109375	0.0010491943359375	4193.18656141322
0.340728759765625	0.0010577392578125	4193.6290664121
0.34515380859375	0.00106597900390625	4194.07157141099
0.349578857421875	0.00107452392578125	4194.51407640987
0.35400390625	0.0010809326171875	4194.95658140875
0.358428955078125	0.00108917236328125	4195.39908640764
0.36285400390625	0.00109710693359375	4195.84159140652
0.367279052734375	0.00110443115234375	4196.2840964054
0.3717041015625	0.001112060546875	4196.72660140428
0.376129150390625	0.001119384765625	4197.16910640317
0.38055419921875	0.00112701416015625	4197.61161140205
0.384979248046875	0.0011334228515625	4198.05411640093
0.389404296875	0.00113983154296875	4198.49662139982
0.393829345703125	0.00114532470703125	4198.9391263987
0.39825439453125	0.0011517333984375	4199.38163139758
0.402679443359375	0.0011572265625	4199.82413639646
0.4071044921875	0.0011627197265625	4200.26664139535
0.411529541015625	0.00116790771484375	4200.70914639423
0.41595458984375	0.001173095703125	4201.15165139311
0.420379638671875	0.00117767333984375	4201.59415639199
0.4248046875	0.001181640625	4202.03666139088
0.429229736328125	0.00118621826171875	4202.47916638976
0.43365478515625	0.00118988037109375	4202.92167138864
0.438079833984375	0.00119384765625	4203.36417638753
0.4425048828125	0.0011968994140625	4203.80668138641
0.446929931640625	0.00120025634765625	4204.24918638529
0.45135498046875	0.00120391845703125	4204.69169138417
0.455780029296875	0.00120697021484375	4205.13419638306
0.460205078125	0.00121002197265625	4205.57670138194
0.464630126953125	0.00121307373046875	4206.01920638082
0.46905517578125	0.001214599609375	4206.4617113797
0.473480224609375	0.001217041015625	4206.90421637859
0.4779052734375	0.00121917724609375	4207.34672137747
0.482330322265625	0.00122100830078125	4207.78922637635
0.48675537109375	0.0012225341796875	4208.23173137524
0.491180419921875	0.00122406005859375	4208.67423637412
0.49560546875	0.0012261962890625	4209.116741373
0.500030517578125	0.00122711181640625	4209.55924637188
0.50445556640625	0.00122894287109375	4210.00175137077
0.508880615234375	0.0012298583984375	4210.44425636965
0.5133056640625	0.00123077392578125	4210.88676136853
0.517730712890625	0.001231689453125	4211.32926636742
0.52215576171875	0.00123260498046875	4211.7717713663
0.526580810546875	0.00123321533203125	4212.21427636518
0.531005859375	0.001234130859375	4212.65678136406
0.535430908203125	0.00123443603515625	4213.09928636295
0.53985595703125	0.0012347412109375	4213.54179136183
0.544281005859375	0.0012353515625	4213.98429636071
0.5487060546875	0.00123504638671875	4214.4268013596
0.553131103515625	0.00123565673828125	4214.86930635848
0.55755615234375	0.0012359619140625	4215.31181135736
0.561981201171875	0.001236572265625	4215.75431635624
0.56640625	0.001236572265625	4216.19682135513
0.570831298828125	0.00123748779296875	4216.63932635401
0.57525634765625	0.00123779296875	4217.08183135289
0.579681396484375	0.0012384033203125	4217.52433635177
0.5841064453125	0.00123870849609375	4217.96684135066
0.588531494140625	0.00123809814453125	4218.40934634954
0.59295654296875	0.001239013671875	4218.85185134842
0.597381591796875	0.0012396240234375	4219.29435634731
0.601806640625	0.00124053955078125	4219.73686134619
0.606231689453125	0.001241455078125	4220.17936634507
0.61065673828125	0.00124267578125	4220.62187134395
0.615081787109375	0.00124359130859375	4221.06437634284
0.6195068359375	0.0012445068359375	4221.50688134172
0.623931884765625	0.0012457275390625	4221.9493863406
0.62835693359375	0.00124969482421875	4222.39189133949
0.632781982421875	0.00125030517578125	4222.83439633837
0.63720703125	0.00125152587890625	4223.27690133725
0.641632080078125	0.00125274658203125	4223.71940633613
0.64605712890625	0.00125457763671875	4224.16191133502
0.650482177734375	0.00125640869140625	4224.6044163339
0.6549072265625	0.001258544921875	4225.04692133278
0.659332275390625	0.0012603759765625	4225.48942633166
0.66375732421875	0.00126312255859375	4225.93193133055
0.668182373046875	0.00126556396484375	4226.37443632943
0.672607421875	0.001268310546875	4226.81694132831
0.677032470703125	0.00127166748046875	4227.2594463272
0.68145751953125	0.0012750244140625	4227.70195132608
0.685882568359375	0.00127838134765625	4228.14445632496
0.6903076171875	0.00128204345703125	4228.58696132384
0.694732666015625	0.0012860107421875	4229.02946632273
0.69915771484375	0.001290283203125	4229.47197132161
0.703582763671875	0.0012945556640625	4229.91447632049
0.7080078125	0.0012994384765625	4230.35698131938
0.712432861328125	0.0013043212890625	4230.79948631826
0.71685791015625	0.00130950927734375	4231.24199131714
0.721282958984375	0.00131500244140625	4231.68449631602
0.7257080078125	0.0013214111328125	4232.12700131491
0.730133056640625	0.00132720947265625	4232.56950631379
0.73455810546875	0.00133392333984375	4233.01201131267
0.738983154296875	0.001341552734375	4233.45451631155
0.743408203125	0.00134735107421875	4233.89702131044
0.747833251953125	0.00135589599609375	4234.33952630932
0.75225830078125	0.0013641357421875	4234.7820313082
0.756683349609375	0.001373291015625	4235.22453630709
0.7611083984375	0.00138275146484375	4235.66704130597
0.765533447265625	0.00139312744140625	4236.10954630485
0.76995849609375	0.00140350341796875	4236.55205130373
0.774383544921875	0.00141448974609375	4236.99455630262
0.77880859375	0.0014263916015625	4237.4370613015
0.783233642578125	0.0014385986328125	4237.87956630038
0.78765869140625	0.0014520263671875	4238.32207129927
0.792083740234375	0.001466064453125	4238.76457629815
0.7965087890625	0.00148101806640625	4239.20708129703
0.800933837890625	0.00149658203125	4239.64958629591
0.80535888671875	0.00151336669921875	4240.0920912948
0.809783935546875	0.00153045654296875	4240.53459629368
0.814208984375	0.00154876708984375	4240.97710129256
0.818634033203125	0.0015679931640625	4241.41960629145
0.82305908203125	0.00158843994140625	4241.86211129033
0.827484130859375	0.0016094970703125	4242.30461628921
0.8319091796875	0.00163177490234375	4242.74712128809
0.836334228515625	0.0016552734375	4243.18962628698
0.84075927734375	0.00167938232421875	4243.63213128586
0.845184326171875	0.00170440673828125	4244.07463628474
0.849609375	0.00173095703125	4244.51714128362
0.854034423828125	0.00175811767578125	4244.95964628251
0.85845947265625	0.001787109375	4245.40215128139
0.862884521484375	0.00181549072265625	4245.84465628027
0.8673095703125	0.00184661865234375	4246.28716127916
0.871734619140625	0.0018780517578125	4246.72966627804
0.87615966796875	0.00191070556640625	4247.17217127692
0.880584716796875	0.00194427490234375	4247.6146762758
0.885009765625	0.00197845458984375	4248.05718127469
0.889434814453125	0.00201416015625	4248.49968627357
0.89385986328125	0.002049560546875	4248.94219127245
0.898284912109375	0.00208648681640625	4249.38469627134
0.9027099609375	0.0021234130859375	4249.82720127022
0.907135009765625	0.0021612548828125	4250.2697062691
0.91156005859375	0.00219970703125	4250.71221126798
0.915985107421875	0.00223876953125	4251.15471626687
0.92041015625	0.00227752685546875	4251.59722126575
0.924835205078125	0.00231719970703125	4252.03972626463
0.92926025390625	0.00235626220703125	4252.48223126351
0.933685302734375	0.00239593505859375	4252.9247362624
0.9381103515625	0.0024371337890625	4253.36724126128
0.942535400390625	0.00247589111328125	4253.80974626016
0.94696044921875	0.0025140380859375	4254.25225125905
0.951385498046875	0.00255157470703125	4254.69475625793
0.955810546875	0.00258880615234375	4255.13726125681
0.960235595703125	0.00262542724609375	4255.57976625569
0.96466064453125	0.00266082763671875	4256.02227125458
0.969085693359375	0.0026947021484375	4256.46477625346
0.9735107421875	0.00272796630859375	4256.90728125234
0.977935791015625	0.0027587890625	4257.34978625122
0.98236083984375	0.00279052734375	4257.79229125011
0.986785888671875	0.002821044921875	4258.23479624899
0.9912109375	0.00285186767578125	4258.67730124787
0.995635986328125	0.00288421630859375	4259.11980624676
1.00006103515625	0.00291656494140625	4259.56231124564
0.995635986328125	0.0023858642578125	4260.00481624452
0.9912109375	0.00196685791015625	4260.4473212434
0.986785888671875	0.00162078857421875	4260.88982624229
0.98236083984375	0.0013275146484375	4261.33233124117
0.977935791015625	0.00107452392578125	4261.77483624005
0.9735107421875	0.00085418701171875	4262.21734123894
0.969085693359375	0.00065826416015625	4262.65984623782
0.96466064453125	0.000483642578125	4263.1023512367
0.960235595703125	0.00032666015625	4263.54485623558
0.955810546875	0.000184814453125	4263.98736123447
0.951385498046875	5.621337890625E-05	4264.42986623335
0.94696044921875	-6.1279296875E-05	4264.87237123223
0.942535400390625	-0.00016912841796875	4265.31487623111
0.9381103515625	-0.000268585205078125	4265.75738123
0.933685302734375	-0.000362396240234375	4266.19988622888
0.92926025390625	-0.00044659423828125	4266.64239122776
0.924835205078125	-0.0005255126953125	4267.08489622665
0.92041015625	-0.000598876953125	4267.52740122553
0.915985107421875	-0.000667449951171875	4267.96990622441
0.91156005859375	-0.000731201171875	4268.41241122329
0.907135009765625	-0.00079071044921875	4268.85491622218
0.9027099609375	-0.00084686279296875	4269.29742122106
0.898284912109375	-0.0008990478515625	4269.73992621994
0.89385986328125	-0.00094757080078125	4270.18243121883
0.889434814453125	-0.00099395751953125	4270.62493621771
0.885009765625	-0.001036376953125	4271.06744121659
0.880584716796875	-0.00107696533203125	4271.50994621547
0.87615966796875	-0.00111358642578125	4271.95245121436
0.871734619140625	-0.00114837646484375	4272.39495621324
0.8673095703125	-0.00118072509765625	4272.83746121212
0.862884521484375	-0.0012103271484375	4273.27996621101
0.85845947265625	-0.00123748779296875	4273.72247120989
0.854034423828125	-0.0012628173828125	4274.16497620877
0.849609375	-0.00128692626953125	4274.60748120765
0.845184326171875	-0.00130828857421875	4275.04998620654
0.84075927734375	-0.001328125	4275.49249120542
0.836334228515625	-0.0013458251953125	4275.9349962043
0.8319091796875	-0.00136199951171875	4276.37750120318
0.827484130859375	-0.0013763427734375	4276.82000620207
0.82305908203125	-0.00138916015625	4277.26251120095
0.818634033203125	-0.00140106201171875	4277.70501619983
0.814208984375	-0.0014105224609375	4278.14752119872
0.809783935546875	-0.00141937255859375	4278.5900261976
0.80535888671875	-0.001427001953125	4279.03253119648
0.800933837890625	-0.00143341064453125	4279.47503619536
0.7965087890625	-0.0014385986328125	4279.91754119425
0.792083740234375	-0.00144256591796875	4280.36004619313
0.78765869140625	-0.00144561767578125	4280.80255119201
0.783233642578125	-0.00144805908203125	4281.2450561909
0.77880859375	-0.00144866943359375	4281.68756118978
0.774383544921875	-0.001448974609375	4282.13006618866
0.76995849609375	-0.001448974609375	4282.57257118754
0.765533447265625	-0.00144805908203125	4283.01507618643
0.7611083984375	-0.00144683837890625	4283.45758118531
0.756683349609375	-0.00144439697265625	4283.90008618419
0.75225830078125	-0.001441650390625	4284.34259118307
0.747833251953125	-0.0014385986328125	4284.78509618196
0.743408203125	-0.0014349365234375	4285.22760118084
0.738983154296875	-0.00142974853515625	4285.67010617972
0.73455810546875	-0.00142578125	4286.11261117861
0.730133056640625	-0.00142181396484375	4286.55511617749
0.7257080078125	-0.00141754150390625	4286.99762117637
0.721282958984375	-0.001412353515625	4287.44012617525
0.71685791015625	-0.001407470703125	4287.88263117414
0.712432861328125	-0.001402587890625	4288.32513617302
0.7080078125	-0.001397705078125	4288.7676411719
0.703582763671875	-0.00139312744140625	4289.21014617079
0.69915771484375	-0.00138702392578125	4289.65265116967
0.694732666015625	-0.00138214111328125	4290.09515616855
0.6903076171875	-0.0013775634765625	4290.53766116743
0.685882568359375	-0.00137237548828125	4290.98016616632
0.68145751953125	-0.0013677978515625	4291.4226711652
0.677032470703125	-0.00136322021484375	4291.86517616408
0.672607421875	-0.00135894775390625	4292.30768116297
0.668182373046875	-0.00135467529296875	4292.75018616185
0.66375732421875	-0.00135040283203125	4293.19269116073
0.659332275390625	-0.001346435546875	4293.63519615961
0.6549072265625	-0.00134246826171875	4294.0777011585
0.650482177734375	-0.00133880615234375	4294.52020615738
0.64605712890625	-0.00133544921875	4294.96271115626
0.641632080078125	-0.0013323974609375	4295.40521615514
0.63720703125	-0.00132965087890625	4295.84772115403
0.632781982421875	-0.0013262939453125	4296.29022615291
0.62835693359375	-0.0013238525390625	4296.73273115179
0.623931884765625	-0.00132415771484375	4297.17523615068
0.6195068359375	-0.0013214111328125	4297.61774114956
0.615081787109375	-0.00131866455078125	4298.06024614844
0.61065673828125	-0.0013165283203125	4298.50275114732
0.606231689453125	-0.001314697265625	4298.94525614621
0.601806640625	-0.0013134765625	4299.38776114509
0.597381591796875	-0.001312255859375	4299.83026614397
0.59295654296875	-0.00131103515625	4300.27277114286
0.588531494140625	-0.00131072998046875	4300.71527614174
0.5841064453125	-0.00130889892578125	4301.15778114062
0.579681396484375	-0.00130889892578125	4301.6002861395
0.57525634765625	-0.00130889892578125	4302.04279113839
0.570831298828125	-0.001309814453125	4302.48529613727
0.56640625	-0.00131072998046875	4302.92780113615
0.561981201171875	-0.00131103515625	4303.37030613503
0.55755615234375	-0.001312255859375	4303.81281113392
0.553131103515625	-0.0013134765625	4304.2553161328
0.5487060546875	-0.00131500244140625	4304.69782113168
0.544281005859375	-0.00131561279296875	4305.14032613057
0.53985595703125	-0.00131805419921875	4305.58283112945
0.535430908203125	-0.00131988525390625	4306.02533612833
0.531005859375	-0.00132232666015625	4306.46784112721
0.526580810546875	-0.00132476806640625	4306.9103461261
0.52215576171875	-0.0013275146484375	4307.35285112498
0.517730712890625	-0.0013299560546875	4307.79535612386
0.5133056640625	-0.00133270263671875	4308.23786112275
0.508880615234375	-0.0013360595703125	4308.68036612163
0.50445556640625	-0.001339111328125	4309.12287112051
0.500030517578125	-0.0013421630859375	4309.56537611939
0.49560546875	-0.0013458251953125	4310.00788111828
0.491180419921875	-0.0013494873046875	4310.45038611716
0.48675537109375	-0.00135284423828125	4310.89289111604
0.482330322265625	-0.00135589599609375	4311.33539611492
0.4779052734375	-0.00135955810546875	4311.77790111381
0.473480224609375	-0.0013629150390625	4312.22040611269
0.46905517578125	-0.00136688232421875	4312.66291111157
0.464630126953125	-0.00136962890625	4313.10541611046
0.460205078125	-0.00137298583984375	4313.54792110934
0.455780029296875	-0.001375732421875	4313.99042610822
0.45135498046875	-0.00137939453125	4314.4329311071
0.446929931640625	-0.00138214111328125	4314.87543610599
0.4425048828125	-0.001385498046875	4315.31794110487
0.438079833984375	-0.001387939453125	4315.76044610375
0.43365478515625	-0.00139068603515625	4316.20295110263
0.429229736328125	-0.001392822265625	4316.64545610152
0.4248046875	-0.001395263671875	4317.0879611004
0.420379638671875	-0.00139739990234375	4317.53046609928
0.41595458984375	-0.00139892578125	4317.97297109817
0.411529541015625	-0.0014007568359375	4318.41547609705
0.4071044921875	-0.001402587890625	4318.85798109593
0.402679443359375	-0.00140350341796875	4319.30048609481
0.39825439453125	-0.001405029296875	4319.7429910937
0.393829345703125	-0.00140594482421875	4320.18549609258
0.389404296875	-0.00140625	4320.62800109146
0.384979248046875	-0.00140716552734375	4321.07050609035
0.38055419921875	-0.0014080810546875	4321.51301108923
0.376129150390625	-0.00140899658203125	4321.95551608811
0.3717041015625	-0.00141021728515625	4322.39802108699
0.367279052734375	-0.0014105224609375	4322.84052608588
0.36285400390625	-0.00141082763671875	4323.28303108476
0.358428955078125	-0.0014117431640625	4323.72553608364
0.35400390625	-0.00141204833984375	4324.16804108252
0.349578857421875	-0.0014117431640625	4324.61054608141
0.34515380859375	-0.001412353515625	4325.05305108029
0.340728759765625	-0.00141357421875	4325.49555607917
0.3363037109375	-0.0014141845703125	4325.93806107806
0.331878662109375	-0.001414794921875	4326.38056607694
0.32745361328125	-0.001416015625	4326.82307107582
0.323028564453125	-0.0014166259765625	4327.2655760747
0.318603515625	-0.00141754150390625	4327.70808107359
0.314178466796875	-0.00141815185546875	4328.15058607247
0.30975341796875	-0.0014208984375	4328.59309107135
0.305328369140625	-0.0014215087890625	4329.03559607024
0.3009033203125	-0.001422119140625	4329.47810106912
0.296478271484375	-0.00142333984375	4329.920606068
0.29205322265625	-0.0014239501953125	4330.36311106688
0.287628173828125	-0.00142486572265625	4330.80561606577
0.283203125	-0.0014263916015625	4331.24812106465
0.278778076171875	-0.00142730712890625	4331.69062606353
0.27435302734375	-0.00142852783203125	4332.13313106242
0.269927978515625	-0.00142974853515625	4332.5756360613
0.2655029296875	-0.0014306640625	4333.01814106018
0.261077880859375	-0.0014324951171875	4333.46064605906
0.25665283203125	-0.0014337158203125	4333.90315105795
0.252227783203125	-0.00143524169921875	4334.34565605683
0.247802734375	-0.001436767578125	4334.78816105571
0.243377685546875	-0.0014385986328125	4335.23066605459
0.23895263671875	-0.0014398193359375	4335.67317105348
0.234527587890625	-0.00144195556640625	4336.11567605236
0.2301025390625	-0.00144287109375	4336.55818105124
0.225677490234375	-0.00144439697265625	4337.00068605013
0.22125244140625	-0.001446533203125	4337.44319104901
0.216827392578125	-0.00144805908203125	4337.88569604789
0.21240234375	-0.0014501953125	4338.32820104677
0.207977294921875	-0.00145172119140625	4338.77070604566
0.20355224609375	-0.001453857421875	4339.21321104454
0.199127197265625	-0.0014556884765625	4339.65571604342
0.1947021484375	-0.00145782470703125	4340.09822104231
0.190277099609375	-0.00145965576171875	4340.54072604119
0.18585205078125	-0.00146209716796875	4340.98323104007
0.181427001953125	-0.0014642333984375	4341.42573603895
0.177001953125	-0.0014666748046875	4341.86824103784
0.172576904296875	-0.0014691162109375	4342.31074603672
0.16815185546875	-0.00147186279296875	4342.7532510356
0.163726806640625	-0.001474609375	4343.19575603448
0.1593017578125	-0.0014776611328125	4343.63826103337
0.154876708984375	-0.0014801025390625	4344.08076603225
0.15045166015625	-0.00148406982421875	4344.52327103113
0.146026611328125	-0.00148773193359375	4344.96577603002
0.1416015625	-0.00149139404296875	4345.4082810289
0.137176513671875	-0.00149566650390625	4345.85078602778
0.13275146484375	-0.0014996337890625	4346.29329102666
0.128326416015625	-0.00150421142578125	4346.73579602555
0.1239013671875	-0.00150909423828125	4347.17830102443
0.119476318359375	-0.00151397705078125	4347.62080602331
0.11505126953125	-0.0015185546875	4348.0633110222
0.110626220703125	-0.0015240478515625	4348.50581602108
0.106201171875	-0.0015301513671875	4348.94832101996
0.101776123046875	-0.0015362548828125	4349.39082601884
0.09735107421875	-0.0015423583984375	4349.83333101773
0.092926025390625	-0.001549072265625	4350.27583601661
0.0885009765625	-0.0015557861328125	4350.71834101549
0.084075927734375	-0.00156280517578125	4351.16084601438
0.07965087890625	-0.00156982421875	4351.60335101326
0.075225830078125	-0.00157623291015625	4352.04585601214
0.07080078125	-0.00158416748046875	4352.48836101102
0.066375732421875	-0.001591796875	4352.93086600991
0.06195068359375	-0.00160003662109375	4353.37337100879
0.057525634765625	-0.00160858154296875	4353.81587600767
0.0531005859375	-0.00161712646484375	4354.25838100655
0.048675537109375	-0.0016253662109375	4354.70088600544
0.04425048828125	-0.00163482666015625	4355.14339100432
0.039825439453125	-0.00164398193359375	4355.5858960032
0.035400390625	-0.0016534423828125	4356.02840100209
0.030975341796875	-0.00166351318359375	4356.47090600097
0.02655029296875	-0.001673583984375	4356.91341099985
0.022125244140625	-0.00168487548828125	4357.35591599873
0.0177001953125	-0.00169586181640625	4357.79842099762
0.013275146484375	-0.0017071533203125	4358.2409259965
0.00885009765625	-0.00171905517578125	4358.68343099538
0.004425048828125	-0.00173095703125	4359.12593599427
0	-0.00174468994140625	4359.56844099315
0.004425048828125	-0.00124053955078125	4360.01094599203
0.00885009765625	-0.000869140625	4360.45345099091
0.013275146484375	-0.00058349609375	4360.8959559898
0.0177001953125	-0.000356964111328125	4361.33846098868
0.022125244140625	-0.00017376708984375	4361.78096598756
0.02655029296875	-2.325439453125E-05	4362.22347098644
0.030975341796875	0.000102386474609375	4362.66597598533
0.035400390625	0.0002080078125	4363.10848098421
0.039825439453125	0.000298736572265625	4363.55098598309
0.04425048828125	0.000376861572265625	4363.99349098198
0.048675537109375	0.000444427490234375	4364.43599598086
0.0531005859375	0.00050360107421875	4364.87850097974
0.057525634765625	0.00055621337890625	4365.32100597862
0.06195068359375	0.000602294921875	4365.76351097751
0.066375732421875	0.00064361572265625	4366.20601597639
0.07080078125	0.0006805419921875	4366.64852097527
0.075225830078125	0.00071441650390625	4367.09102597415
0.07965087890625	0.00074310302734375	4367.53353097304
0.084075927734375	0.000770263671875	4367.97603597192
0.0885009765625	0.00079437255859375	4368.4185409708
0.092926025390625	0.00081787109375	4368.86104596969
0.09735107421875	0.00083892822265625	4369.30355096857
0.101776123046875	0.00085845947265625	4369.74605596745
0.106201171875	0.0008758544921875	4370.18856096633
0.110626220703125	0.00089263916015625	4370.63106596522
0.11505126953125	0.00090789794921875	4371.0735709641
0.119476318359375	0.00092132568359375	4371.51607596298
0.1239013671875	0.00093475341796875	4371.95858096187
0.128326416015625	0.00094757080078125	4372.40108596075
0.13275146484375	0.00095916748046875	4372.84359095963
0.137176513671875	0.000970458984375	4373.28609595851
0.1416015625	0.0009808349609375	4373.7286009574
0.146026611328125	0.0009906005859375	4374.17110595628
0.15045166015625	0.0010003662109375	4374.61361095516
0.154876708984375	0.001009521484375	4375.05611595404
0.1593017578125	0.00101776123046875	4375.49862095293
0.163726806640625	0.0010260009765625	4375.94112595181
0.16815185546875	0.00103363037109375	4376.38363095069
0.172576904296875	0.00104156494140625	4376.82613594958
0.177001953125	0.001048583984375	4377.26864094846
0.181427001953125	0.001055908203125	4377.71114594734
0.18585205078125	0.0010626220703125	4378.15365094622
0.190277099609375	0.0010693359375	4378.59615594511
0.1947021484375	0.0010760498046875	4379.03866094399
0.199127197265625	0.001082763671875	4379.48116594287
0.20355224609375	0.00108856201171875	4379.92367094176
0.207977294921875	0.0010943603515625	4380.36617594064
0.21240234375	0.0011004638671875	4380.80868093952
0.216827392578125	0.00110626220703125	4381.2511859384
0.22125244140625	0.00111175537109375	4381.69369093729
0.225677490234375	0.00111724853515625	4382.13619593617
0.2301025390625	0.00112274169921875	4382.57870093505
0.234527587890625	0.0011279296875	4383.02120593394
0.23895263671875	0.0011334228515625	4383.46371093282
0.243377685546875	0.0011395263671875	4383.9062159317
0.247802734375	0.00114501953125	4384.34872093058
0.252227783203125	0.00115020751953125	4384.79122592947
0.25665283203125	0.0011553955078125	4385.23373092835
0.261077880859375	0.00116058349609375	4385.67623592723
0.2655029296875	0.001165771484375	4386.11874092611
0.269927978515625	0.00117095947265625	4386.561245925
0.27435302734375	0.0011761474609375	4387.00375092388
0.278778076171875	0.0011810302734375	4387.44625592276
0.283203125	0.00118682861328125	4387.88876092165
0.287628173828125	0.0011920166015625	4388.33126592053
0.29205322265625	0.00119781494140625	4388.77377091941
0.296478271484375	0.00120330810546875	4389.21627591829
0.3009033203125	0.00120880126953125	4389.65878091718
0.305328369140625	0.0012139892578125	4390.10128591606
0.30975341796875	0.00121917724609375	4390.54379091494
0.314178466796875	0.0012261962890625	4390.98629591383
0.318603515625	0.00123138427734375	4391.42880091271
0.323028564453125	0.001236572265625	4391.87130591159
0.32745361328125	0.00124176025390625	4392.31381091047
0.331878662109375	0.00124725341796875	4392.75631590936
0.3363037109375	0.00125274658203125	4393.19882090824
0.340728759765625	0.0012579345703125	4393.64132590712
0.34515380859375	0.00126312255859375	4394.083830906
0.349578857421875	0.001268310546875	4394.52633590489
0.35400390625	0.00127197265625	4394.96884090377
0.358428955078125	0.0012774658203125	4395.41134590265
0.36285400390625	0.00128265380859375	4395.85385090154
0.367279052734375	0.00128753662109375	4396.29635590042
0.3717041015625	0.001292724609375	4396.7388608993
0.376129150390625	0.001297607421875	4397.18136589818
0.38055419921875	0.00130218505859375	4397.62387089707
0.384979248046875	0.00130615234375	4398.06637589595
0.389404296875	0.0013104248046875	4398.50888089483
0.393829345703125	0.00131378173828125	4398.95138589372
0.39825439453125	0.00131744384765625	4399.3938908926
0.402679443359375	0.00132110595703125	4399.83639589148
0.4071044921875	0.00132415771484375	4400.27890089036
0.411529541015625	0.00132720947265625	4400.72140588925
0.41595458984375	0.0013299560546875	4401.16391088813
0.420379638671875	0.0013323974609375	4401.60641588701
0.4248046875	0.0013348388671875	4402.04892088589
0.429229736328125	0.00133758544921875	4402.49142588478
0.43365478515625	0.0013397216796875	4402.93393088366
0.438079833984375	0.001341552734375	4403.37643588254
0.4425048828125	0.00134368896484375	4403.81894088143
0.446929931640625	0.00134552001953125	4404.26144588031
0.45135498046875	0.00134735107421875	4404.70395087919
0.455780029296875	0.0013494873046875	4405.14645587807
0.460205078125	0.0013507080078125	4405.58896087696
0.464630126953125	0.0013525390625	4406.03146587584
0.46905517578125	0.0013531494140625	4406.47397087472
0.473480224609375	0.00135498046875	4406.91647587361
0.4779052734375	0.00135650634765625	4407.35898087249
0.482330322265625	0.00135711669921875	4407.80148587137
0.48675537109375	0.0013580322265625	4408.24399087025
0.491180419921875	0.001358642578125	4408.68649586914
0.49560546875	0.00135894775390625	4409.12900086802
0.500030517578125	0.00135955810546875	4409.5715058669
0.50445556640625	0.00136016845703125	4410.01401086579
0.508880615234375	0.0013604736328125	4410.45651586467
0.5133056640625	0.0013604736328125	4410.89902086355
0.517730712890625	0.00136016845703125	4411.34152586243
0.52215576171875	0.0013604736328125	4411.78403086132
0.526580810546875	0.00136016845703125	4412.2265358602
0.531005859375	0.00135986328125	4412.66904085908
0.535430908203125	0.00135955810546875	4413.11154585796
0.53985595703125	0.00135894775390625	4413.55405085685
0.544281005859375	0.001358642578125	4413.99655585573
0.5487060546875	0.001357421875	4414.43906085461
0.553131103515625	0.001357421875	4414.8815658535
0.55755615234375	0.00135650634765625	4415.32407085238
0.561981201171875	0.00135589599609375	4415.76657585126
0.56640625	0.0013555908203125	4416.20908085014
0.570831298828125	0.00135528564453125	4416.65158584903
0.57525634765625	0.00135467529296875	4417.09409084791
0.579681396484375	0.0013543701171875	4417.53659584679
0.5841064453125	0.0013543701171875	4417.97910084568
0.588531494140625	0.00135284423828125	4418.42160584456
0.59295654296875	0.00135284423828125	4418.86411084344
0.597381591796875	0.0013525390625	4419.30661584232
0.601806640625	0.0013531494140625	4419.74912084121
0.606231689453125	0.0013531494140625	4420.19162584009
0.61065673828125	0.00135345458984375	4420.63413083897
0.615081787109375	0.00135345458984375	4421.07663583785
0.6195068359375	0.001353759765625	4421.51914083674
0.623931884765625	0.00135406494140625	4421.96164583562
0.62835693359375	0.00135772705078125	4422.4041508345
0.632781982421875	0.001357421875	4422.84665583339
0.63720703125	0.00135772705078125	4423.28916083227
0.641632080078125	0.00135833740234375	4423.73166583115
0.64605712890625	0.0013592529296875	4424.17417083003
0.650482177734375	0.0013604736328125	4424.61667582892
0.6549072265625	0.0013616943359375	4425.0591808278
0.659332275390625	0.00136322021484375	4425.50168582668
0.66375732421875	0.00136505126953125	4425.94419082556
0.668182373046875	0.0013671875	4426.38669582445
0.672607421875	0.0013690185546875	4426.82920082333
0.677032470703125	0.0013714599609375	4427.27170582221
0.68145751953125	0.00137420654296875	4427.7142108211
0.685882568359375	0.00137664794921875	4428.15671581998
0.6903076171875	0.00137969970703125	4428.59922081886
0.694732666015625	0.0013824462890625	4429.04172581774
0.69915771484375	0.00138580322265625	4429.48423081663
0.703582763671875	0.0013885498046875	4429.92673581551
0.7080078125	0.00139312744140625	4430.36924081439
0.712432861328125	0.00139739990234375	4430.81174581328
0.71685791015625	0.00140167236328125	4431.25425081216
0.721282958984375	0.0014068603515625	4431.69675581104
0.7257080078125	0.0014117431640625	4432.13926080992
0.730133056640625	0.00141754150390625	4432.58176580881
0.73455810546875	0.00142333984375	4433.02427080769
0.738983154296875	0.001429443359375	4433.46677580657
0.743408203125	0.00143463134765625	4433.90928080546
0.747833251953125	0.0014422607421875	4434.35178580434
0.75225830078125	0.0014501953125	4434.79429080322
0.756683349609375	0.0014581298828125	4435.2367958021
0.7611083984375	0.00146697998046875	4435.67930080099
0.765533447265625	0.001475830078125	4436.12180579987
0.76995849609375	0.001485595703125	4436.56431079875
0.774383544921875	0.0014959716796875	4437.00681579763
0.77880859375	0.00150665283203125	4437.44932079652
0.783233642578125	0.0015179443359375	4437.8918257954
0.78765869140625	0.0015301513671875	4438.33433079428
0.792083740234375	0.00154327392578125	4438.77683579317
0.7965087890625	0.0015570068359375	4439.21934079205
0.800933837890625	0.00157135009765625	4439.66184579093
0.80535888671875	0.00158660888671875	4440.10435078981
0.809783935546875	0.00160308837890625	4440.5468557887
0.814208984375	0.00162017822265625	4440.98936078758
0.818634033203125	0.00163818359375	4441.43186578646
0.82305908203125	0.00165679931640625	4441.87437078535
0.827484130859375	0.00167694091796875	4442.31687578423
0.8319091796875	0.00169769287109375	4442.75938078311
0.836334228515625	0.0017193603515625	4443.20188578199
0.84075927734375	0.001741943359375	4443.64439078088
0.845184326171875	0.00176605224609375	4444.08689577976
0.849609375	0.00179107666015625	4444.52940077864
0.854034423828125	0.00181671142578125	4444.97190577752
0.85845947265625	0.0018438720703125	4445.41441077641
0.862884521484375	0.00187103271484375	4445.85691577529
0.8673095703125	0.00190032958984375	4446.29942077417
0.871734619140625	0.00193023681640625	4446.74192577306
0.87615966796875	0.0019610595703125	4447.18443077194
0.880584716796875	0.00199249267578125	4447.62693577082
0.885009765625	0.002025146484375	4448.0694407697
0.889434814453125	0.00205810546875	4448.51194576859
0.89385986328125	0.00209228515625	4448.95445076747
0.898284912109375	0.0021270751953125	4449.39695576635
0.9027099609375	0.00216217041015625	4449.83946076524
0.907135009765625	0.0021978759765625	4450.28196576412
0.91156005859375	0.00223419189453125	4450.724470763
0.915985107421875	0.0022711181640625	4451.16697576188
0.92041015625	0.00230804443359375	4451.60948076077
0.924835205078125	0.00234527587890625	4452.05198575965
0.92926025390625	0.00238250732421875	4452.49449075853
0.933685302734375	0.00241943359375	4452.93699575741
0.9381103515625	0.00245880126953125	4453.3795007563
0.942535400390625	0.0024951171875	4453.82200575518
0.94696044921875	0.0025311279296875	4454.26451075406
0.951385498046875	0.0025665283203125	4454.70701575295
0.955810546875	0.002601318359375	4455.14952075183
0.960235595703125	0.00263519287109375	4455.59202575071
0.96466064453125	0.0026678466796875	4456.03453074959
0.969085693359375	0.0026995849609375	4456.47703574848
0.9735107421875	0.002730712890625	4456.91954074736
0.977935791015625	0.00275909423828125	4457.36204574624
0.98236083984375	0.00278839111328125	4457.80455074513
0.986785888671875	0.0028173828125	4458.24705574401
0.9912109375	0.00284637451171875	4458.68956074289
0.995635986328125	0.00287628173828125	4459.13206574177
1.00006103515625	0.00290679931640625	4459.57457074066
0.995635986328125	0.00237579345703125	4460.01707573954
0.9912109375	0.00195709228515625	4460.45958073842
0.986785888671875	0.001611328125	4460.90208573731
0.98236083984375	0.0013189697265625	4461.34459073619
0.977935791015625	0.00106689453125	4461.78709573507
0.9735107421875	0.00084747314453125	4462.22960073395
0.969085693359375	0.00065277099609375	4462.67210573284
0.96466064453125	0.00047943115234375	4463.11461073172
0.960235595703125	0.000323760986328125	4463.5571157306
0.955810546875	0.000183135986328125	4463.99962072948
0.951385498046875	5.560302734375E-05	4464.44212572837
0.94696044921875	-6.0516357421875E-05	4464.88463072725
0.942535400390625	-0.000167144775390625	4465.32713572613
0.9381103515625	-0.00026513671875	4465.76964072502
0.933685302734375	-0.00035675048828125	4466.2121457239
0.92926025390625	-0.000440155029296875	4466.65465072278
0.924835205078125	-0.000517120361328125	4467.09715572166
0.92041015625	-0.000589263916015625	4467.53966072055
0.915985107421875	-0.000656280517578125	4467.98216571943
0.91156005859375	-0.000718994140625	4468.42467071831
0.907135009765625	-0.00077728271484375	4468.8671757172
0.9027099609375	-0.0008319091796875	4469.30968071608
0.898284912109375	-0.000882568359375	4469.75218571496
0.89385986328125	-0.00093048095703125	4470.19469071384
0.889434814453125	-0.00097564697265625	4470.63719571273
0.885009765625	-0.001016845703125	4471.07970071161
0.880584716796875	-0.00105560302734375	4471.52220571049
0.87615966796875	-0.00109222412109375	4471.96471070937
0.871734619140625	-0.0011260986328125	4472.40721570826
0.8673095703125	-0.00115814208984375	4472.84972070714
0.862884521484375	-0.00118682861328125	4473.29222570602
0.85845947265625	-0.00121307373046875	4473.73473070491
0.854034423828125	-0.00123809814453125	4474.17723570379
0.849609375	-0.00126129150390625	4474.61974070267
0.845184326171875	-0.00128204345703125	4475.06224570155
0.84075927734375	-0.00130157470703125	4475.50475070044
0.836334228515625	-0.0013189697265625	4475.94725569932
0.8319091796875	-0.00133453369140625	4476.3897606982
0.827484130859375	-0.00134857177734375	4476.83226569708
0.82305908203125	-0.001361083984375	4477.27477069597
0.818634033203125	-0.00137237548828125	4477.71727569485
0.814208984375	-0.00138214111328125	4478.15978069373
0.809783935546875	-0.0013909912109375	4478.60228569262
0.80535888671875	-0.0013983154296875	4479.0447906915
0.800933837890625	-0.00140411376953125	4479.48729569038
0.7965087890625	-0.0014093017578125	4479.92980068926
0.792083740234375	-0.0014129638671875	4480.37230568815
0.78765869140625	-0.001416015625	4480.81481068703
0.783233642578125	-0.00141845703125	4481.25731568591
0.77880859375	-0.001419677734375	4481.6998206848
0.774383544921875	-0.00141998291015625	4482.14232568368
0.76995849609375	-0.00141998291015625	4482.58483068256
0.765533447265625	-0.00141937255859375	4483.02733568144
0.7611083984375	-0.00141815185546875	4483.46984068033
0.756683349609375	-0.0014166259765625	4483.91234567921
0.75225830078125	-0.0014141845703125	4484.35485067809
0.747833251953125	-0.00141143798828125	4484.79735567697
0.743408203125	-0.00140838623046875	4485.23986067586
0.738983154296875	-0.00140380859375	4485.68236567474
0.73455810546875	-0.00140045166015625	4486.12487067362
0.730133056640625	-0.001396484375	4486.56737567251
0.7257080078125	-0.00139251708984375	4487.00988067139
0.721282958984375	-0.0013885498046875	4487.45238567027
0.71685791015625	-0.00138427734375	4487.89489066915
0.712432861328125	-0.00137939453125	4488.33739566804
0.7080078125	-0.0013751220703125	4488.77990066692
0.703582763671875	-0.00137054443359375	4489.2224056658
0.69915771484375	-0.00136505126953125	4489.66491066469
0.694732666015625	-0.00136077880859375	4490.10741566357
0.6903076171875	-0.00135650634765625	4490.54992066245
0.685882568359375	-0.00135223388671875	4490.99242566133
0.68145751953125	-0.00134796142578125	4491.43493066022
0.677032470703125	-0.001343994140625	4491.8774356591
0.672607421875	-0.00134002685546875	4492.31994065798
0.668182373046875	-0.001336669921875	4492.76244565687
0.66375732421875	-0.00133270263671875	4493.20495065575
0.659332275390625	-0.00132965087890625	4493.64745565463
0.6549072265625	-0.0013262939453125	4494.08996065351
0.650482177734375	-0.0013232421875	4494.5324656524
0.64605712890625	-0.00131988525390625	4494.97497065128
0.641632080078125	-0.00131744384765625	4495.41747565016
0.63720703125	-0.00131500244140625	4495.85998064904
0.632781982421875	-0.00131256103515625	4496.30248564793
0.62835693359375	-0.0013104248046875	4496.74499064681
0.623931884765625	-0.00131072998046875	4497.18749564569
0.6195068359375	-0.0013079833984375	4497.63000064458
0.615081787109375	-0.00130615234375	4498.07250564346
0.61065673828125	-0.001304931640625	4498.51501064234
0.606231689453125	-0.0013031005859375	4498.95751564122
0.601806640625	-0.0013018798828125	4499.40002064011
0.597381591796875	-0.00130157470703125	4499.84252563899
0.59295654296875	-0.00130035400390625	4500.28503063787
0.588531494140625	-0.00130035400390625	4500.72753563676
0.5841064453125	-0.00129913330078125	4501.17004063564
0.579681396484375	-0.00129974365234375	4501.61254563452
0.57525634765625	-0.00130035400390625	4502.0550506334
0.570831298828125	-0.00130126953125	4502.49755563229
0.56640625	-0.00130218505859375	4502.94006063117
0.561981201171875	-0.00130279541015625	4503.38256563005
0.55755615234375	-0.0013043212890625	4503.82507062893
0.553131103515625	-0.00130584716796875	4504.26757562782
0.5487060546875	-0.00130767822265625	4504.7100806267
0.544281005859375	-0.0013092041015625	4505.15258562558
0.53985595703125	-0.00131134033203125	4505.59509062447
0.535430908203125	-0.00131378173828125	4506.03759562335
0.531005859375	-0.00131622314453125	4506.48010062223
0.526580810546875	-0.0013189697265625	4506.92260562111
0.52215576171875	-0.001322021484375	4507.36511062
0.517730712890625	-0.0013250732421875	4507.80761561888
0.5133056640625	-0.00132781982421875	4508.25012061776
0.508880615234375	-0.00133148193359375	4508.69262561665
0.50445556640625	-0.0013348388671875	4509.13513061553
0.500030517578125	-0.00133819580078125	4509.57763561441
0.49560546875	-0.00134185791015625	4510.02014061329
0.491180419921875	-0.0013458251953125	4510.46264561218
0.48675537109375	-0.00134918212890625	4510.90515061106
0.482330322265625	-0.0013525390625	4511.34765560994
0.4779052734375	-0.00135650634765625	4511.79016060883
0.473480224609375	-0.00136016845703125	4512.23266560771
0.46905517578125	-0.00136383056640625	4512.67517060659
0.464630126953125	-0.0013665771484375	4513.11767560547
0.460205078125	-0.00137054443359375	4513.56018060436
0.455780029296875	-0.0013739013671875	4514.00268560324
0.45135498046875	-0.00137725830078125	4514.44519060212
0.446929931640625	-0.00138031005859375	4514.887695601
0.4425048828125	-0.0013836669921875	4515.33020059989
0.438079833984375	-0.0013861083984375	4515.77270559877
0.43365478515625	-0.00138885498046875	4516.21521059765
0.429229736328125	-0.00139129638671875	4516.65771559654
0.4248046875	-0.00139373779296875	4517.10022059542
0.420379638671875	-0.001395263671875	4517.5427255943
0.41595458984375	-0.00139739990234375	4517.98523059318
0.411529541015625	-0.00139892578125	4518.42773559207
0.4071044921875	-0.0014007568359375	4518.87024059095
0.402679443359375	-0.00140228271484375	4519.31274558983
0.39825439453125	-0.0014031982421875	4519.75525058872
0.393829345703125	-0.00140472412109375	4520.1977555876
0.389404296875	-0.00140472412109375	4520.64026058648
0.384979248046875	-0.00140594482421875	4521.08276558536
0.38055419921875	-0.00140625	4521.52527058425
0.376129150390625	-0.00140716552734375	4521.96777558313
0.3717041015625	-0.00140777587890625	4522.41028058201
0.367279052734375	-0.00140869140625	4522.85278558089
0.36285400390625	-0.0014093017578125	4523.29529057978
0.358428955078125	-0.00140960693359375	4523.73779557866
0.35400390625	-0.00141021728515625	4524.18030057754
0.349578857421875	-0.0014093017578125	4524.62280557643
0.34515380859375	-0.001409912109375	4525.06531057531
0.340728759765625	-0.00141021728515625	4525.50781557419
0.3363037109375	-0.00141143798828125	4525.95032057307
0.331878662109375	-0.00141204833984375	4526.39282557196
0.32745361328125	-0.001412353515625	4526.83533057084
0.323028564453125	-0.00141326904296875	4527.27783556972
0.318603515625	-0.00141387939453125	4527.72034056861
0.314178466796875	-0.001414794921875	4528.16284556749
0.30975341796875	-0.00141693115234375	4528.60535056637
0.305328369140625	-0.00141754150390625	4529.04785556525
0.3009033203125	-0.00141815185546875	4529.49036056414
0.296478271484375	-0.00141876220703125	4529.93286556302
0.29205322265625	-0.001419677734375	4530.3753705619
0.287628173828125	-0.00142059326171875	4530.81787556078
0.283203125	-0.0014215087890625	4531.26038055967
0.278778076171875	-0.00142242431640625	4531.70288555855
0.27435302734375	-0.00142333984375	4532.14539055743
0.269927978515625	-0.00142425537109375	4532.58789555632
0.2655029296875	-0.00142608642578125	4533.0304005552
0.261077880859375	-0.001427001953125	4533.47290555408
0.25665283203125	-0.00142822265625	4533.91541055296
0.252227783203125	-0.001429443359375	4534.35791555185
0.247802734375	-0.00143096923828125	4534.80042055073
0.243377685546875	-0.00143218994140625	4535.24292554961
0.23895263671875	-0.0014337158203125	4535.68543054849
0.234527587890625	-0.00143524169921875	4536.12793554738
0.2301025390625	-0.0014361572265625	4536.57044054626
0.225677490234375	-0.0014373779296875	4537.01294554514
0.22125244140625	-0.001439208984375	4537.45545054403
0.216827392578125	-0.0014410400390625	4537.89795554291
0.21240234375	-0.00144287109375	4538.34046054179
0.207977294921875	-0.00144439697265625	4538.78296554067
0.20355224609375	-0.0014459228515625	4539.22547053956
0.199127197265625	-0.00144775390625	4539.66797553844
0.1947021484375	-0.0014495849609375	4540.11048053732
0.190277099609375	-0.00145172119140625	4540.55298553621
0.18585205078125	-0.0014532470703125	4540.99549053509
0.181427001953125	-0.00145538330078125	4541.43799553397
0.177001953125	-0.0014581298828125	4541.88050053285
0.172576904296875	-0.0014599609375	4542.32300553174
0.16815185546875	-0.00146240234375	4542.76551053062
0.163726806640625	-0.00146484375	4543.2080155295
0.1593017578125	-0.0014678955078125	4543.65052052838
0.154876708984375	-0.0014703369140625	4544.09302552727
0.15045166015625	-0.00147369384765625	4544.53553052615
0.146026611328125	-0.00147674560546875	4544.97803552503
0.1416015625	-0.001480712890625	4545.42054052392
0.137176513671875	-0.001484375	4545.8630455228
0.13275146484375	-0.00148834228515625	4546.30555052168
0.128326416015625	-0.00149261474609375	4546.74805552056
0.1239013671875	-0.00149688720703125	4547.19056051945
0.119476318359375	-0.00150177001953125	4547.63306551833
0.11505126953125	-0.00150543212890625	4548.07557051721
0.110626220703125	-0.00151123046875	4548.5180755161
0.106201171875	-0.0015167236328125	4548.96058051498
0.101776123046875	-0.00152191162109375	4549.40308551386
0.09735107421875	-0.0015283203125	4549.84559051274
0.092926025390625	-0.001534423828125	4550.28809551163
0.0885009765625	-0.00154083251953125	4550.73060051051
0.084075927734375	-0.0015472412109375	4551.17310550939
0.07965087890625	-0.001553955078125	4551.61561050828
0.075225830078125	-0.00156036376953125	4552.05811550716
0.07080078125	-0.00156768798828125	4552.50062050604
0.066375732421875	-0.00157470703125	4552.94312550492
0.06195068359375	-0.0015826416015625	4553.38563050381
0.057525634765625	-0.001590576171875	4553.82813550269
0.0531005859375	-0.0015985107421875	4554.27064050157
0.048675537109375	-0.0016070556640625	4554.71314550045
0.04425048828125	-0.00161590576171875	4555.15565049934
0.039825439453125	-0.001624755859375	4555.59815549822
0.035400390625	-0.00163421630859375	4556.0406604971
0.030975341796875	-0.0016436767578125	4556.48316549599
0.02655029296875	-0.00165374755859375	4556.92567049487
0.022125244140625	-0.0016644287109375	4557.36817549375
0.0177001953125	-0.0016754150390625	4557.81068049263
0.013275146484375	-0.00168731689453125	4558.25318549152
0.00885009765625	-0.00169952392578125	4558.6956904904
0.004425048828125	-0.00171234130859375	4559.13819548928
0	-0.0017254638671875	4559.58070048817
0.004425048828125	-0.00122222900390625	4560.02320548705
0.00885009765625	-0.0008514404296875	4560.46571048593
0.013275146484375	-0.00056640625	4560.90821548481
0.0177001953125	-0.000340545654296875	4561.3507204837
0.022125244140625	-0.000157806396484375	4561.79322548258
0.02655029296875	-8.06579589843751E-06	4562.23573048146
0.030975341796875	0.000116851806640625	4562.67823548034
0.035400390625	0.00022235107421875	4563.12074047923
0.039825439453125	0.0003121337890625	4563.56324547811
0.04425048828125	0.00038995361328125	4564.00575047699
0.048675537109375	0.000457000732421875	4564.44825547588
0.0531005859375	0.0005159912109375	4564.89076047476
0.057525634765625	0.00056781005859375	4565.33326547364
0.06195068359375	0.000613525390625	4565.77577047252
0.066375732421875	0.00065460205078125	4566.21827547141
0.07080078125	0.00069122314453125	4566.66078047029
0.075225830078125	0.000723876953125	4567.10328546917
0.07965087890625	0.000753173828125	4567.54579046806
0.084075927734375	0.00077972412109375	4567.98829546694
0.0885009765625	0.00080413818359375	4568.43080046582
0.092926025390625	0.0008270263671875	4568.8733054647
0.09735107421875	0.0008477783203125	4569.31581046359
0.101776123046875	0.00086669921875	4569.75831546247
0.106201171875	0.0008843994140625	4570.20082046135
0.110626220703125	0.00090087890625	4570.64332546024
0.11505126953125	0.0009161376953125	4571.08583045912
0.119476318359375	0.00092926025390625	4571.528335458
0.1239013671875	0.00094268798828125	4571.97084045688
0.128326416015625	0.00095458984375	4572.41334545577
0.13275146484375	0.00096649169921875	4572.85585045465
0.137176513671875	0.000977783203125	4573.29835545353
0.1416015625	0.0009881591796875	4573.74086045241
0.146026611328125	0.00099761962890625	4574.1833654513
0.15045166015625	0.00100677490234375	4574.62587045018
0.154876708984375	0.001015625	4575.06837544906
0.1593017578125	0.0010235595703125	4575.51088044795
0.163726806640625	0.00103179931640625	4575.95338544683
0.16815185546875	0.00103912353515625	4576.39589044571
0.172576904296875	0.00104705810546875	4576.83839544459
0.177001953125	0.001053466796875	4577.28090044348
0.181427001953125	0.00106048583984375	4577.72340544236
0.18585205078125	0.00106719970703125	4578.16591044124
0.190277099609375	0.00107391357421875	4578.60841544013
0.1947021484375	0.00108001708984375	4579.05092043901
0.199127197265625	0.0010858154296875	4579.49342543789
0.20355224609375	0.00109161376953125	4579.93593043677
0.207977294921875	0.001097412109375	4580.37843543566
0.21240234375	0.00110321044921875	4580.82094043454
0.216827392578125	0.00110870361328125	4581.26344543342
0.22125244140625	0.00111419677734375	4581.7059504323
0.225677490234375	0.00112030029296875	4582.14845543119
0.2301025390625	0.00112518310546875	4582.59096043007
0.234527587890625	0.0011297607421875	4583.03346542895
0.23895263671875	0.00113525390625	4583.47597042784
0.243377685546875	0.00114044189453125	4583.91847542672
0.247802734375	0.0011456298828125	4584.3609804256
0.252227783203125	0.001151123046875	4584.80348542448
0.25665283203125	0.001156005859375	4585.24599042337
0.261077880859375	0.001160888671875	4585.68849542225
0.2655029296875	0.00116607666015625	4586.13100042113
0.269927978515625	0.001170654296875	4586.57350542001
0.27435302734375	0.00117584228515625	4587.0160104189
0.278778076171875	0.0011810302734375	4587.45851541778
0.283203125	0.00118621826171875	4587.90102041666
0.287628173828125	0.00119110107421875	4588.34352541555
0.29205322265625	0.0011962890625	4588.78603041443
0.296478271484375	0.00120147705078125	4589.22853541331
0.3009033203125	0.0012066650390625	4589.67104041219
0.305328369140625	0.0012115478515625	4590.11354541108
0.30975341796875	0.0012164306640625	4590.55605040996
0.314178466796875	0.00122344970703125	4590.99855540884
0.318603515625	0.00122833251953125	4591.44106040773
0.323028564453125	0.00123321533203125	4591.88356540661
0.32745361328125	0.00123870849609375	4592.32607040549
0.331878662109375	0.00124359130859375	4592.76857540437
0.3363037109375	0.00124847412109375	4593.21108040326
0.340728759765625	0.001253662109375	4593.65358540214
0.34515380859375	0.00125885009765625	4594.09609040102
0.349578857421875	0.00126373291015625	4594.5385953999
0.35400390625	0.00126708984375	4594.98110039879
0.358428955078125	0.0012725830078125	4595.42360539767
0.36285400390625	0.0012774658203125	4595.86611039655
0.367279052734375	0.00128265380859375	4596.30861539544
0.3717041015625	0.0012872314453125	4596.75112039432
0.376129150390625	0.0012921142578125	4597.1936253932
0.38055419921875	0.00129638671875	4597.63613039208
0.384979248046875	0.0013006591796875	4598.07863539097
0.389404296875	0.0013043212890625	4598.52114038985
0.393829345703125	0.00130767822265625	4598.96364538873
0.39825439453125	0.00131103515625	4599.40615038762
0.402679443359375	0.001314697265625	4599.8486553865
0.4071044921875	0.00131744384765625	4600.29116038538
0.411529541015625	0.00132080078125	4600.73366538426
0.41595458984375	0.00132354736328125	4601.17617038315
0.420379638671875	0.00132598876953125	4601.61867538203
0.4248046875	0.00132843017578125	4602.06118038091
0.429229736328125	0.00133056640625	4602.5036853798
0.43365478515625	0.00133270263671875	4602.94619037868
0.438079833984375	0.00133514404296875	4603.38869537756
0.4425048828125	0.00133697509765625	4603.83120037644
0.446929931640625	0.0013385009765625	4604.27370537533
0.45135498046875	0.00134063720703125	4604.71621037421
0.455780029296875	0.00134246826171875	4605.15871537309
0.460205078125	0.00134368896484375	4605.60122037197
0.464630126953125	0.00134552001953125	4606.04372537086
0.46905517578125	0.00134674072265625	4606.48623036974
0.473480224609375	0.00134796142578125	4606.92873536862
0.4779052734375	0.001348876953125	4607.37124036751
0.482330322265625	0.00134979248046875	4607.81374536639
0.48675537109375	0.0013507080078125	4608.25625036527
0.491180419921875	0.00135162353515625	4608.69875536415
0.49560546875	0.0013525390625	4609.14126036304
0.500030517578125	0.00135284423828125	4609.58376536192
0.50445556640625	0.0013531494140625	4610.0262703608
0.508880615234375	0.00135345458984375	4610.46877535969
0.5133056640625	0.001353759765625	4610.91128035857
0.517730712890625	0.00135345458984375	4611.35378535745
0.52215576171875	0.00135345458984375	4611.79629035633
0.526580810546875	0.0013531494140625	4612.23879535522
0.531005859375	0.00135284423828125	4612.6813003541
0.535430908203125	0.00135284423828125	4613.12380535298
0.53985595703125	0.00135223388671875	4613.56631035186
0.544281005859375	0.0013519287109375	4614.00881535075
0.5487060546875	0.0013507080078125	4614.45132034963
0.553131103515625	0.00135040283203125	4614.89382534851
0.55755615234375	0.00135009765625	4615.3363303474
0.561981201171875	0.0013494873046875	4615.77883534628
0.56640625	0.00134918212890625	4616.22134034516
0.570831298828125	0.001348876953125	4616.66384534404
0.57525634765625	0.0013482666015625	4617.10635034293
0.579681396484375	0.0013482666015625	4617.54885534181
0.5841064453125	0.00134765625	4617.99136034069
0.588531494140625	0.00134613037109375	4618.43386533958
0.59295654296875	0.00134674072265625	4618.87637033846
0.597381591796875	0.001346435546875	4619.31887533734
0.601806640625	0.001346435546875	4619.76138033622
0.606231689453125	0.00134674072265625	4620.20388533511
0.61065673828125	0.0013470458984375	4620.64639033399
0.615081787109375	0.00134735107421875	4621.08889533287
0.6195068359375	0.00134765625	4621.53140033175
0.623931884765625	0.0013482666015625	4621.97390533064
0.62835693359375	0.00135101318359375	4622.41641032952
0.632781982421875	0.00135162353515625	4622.8589153284
0.63720703125	0.00135162353515625	4623.30142032729
0.641632080078125	0.0013525390625	4623.74392532617
0.64605712890625	0.0013531494140625	4624.18643032505
0.650482177734375	0.00135467529296875	4624.62893532393
0.6549072265625	0.0013555908203125	4625.07144032282
0.659332275390625	0.00135711669921875	4625.5139453217
0.66375732421875	0.00135894775390625	4625.95645032058
0.668182373046875	0.0013604736328125	4626.39895531947
0.672607421875	0.00136260986328125	4626.84146031835
0.677032470703125	0.00136444091796875	4627.28396531723
0.68145751953125	0.0013671875	4627.72647031611
0.685882568359375	0.00136993408203125	4628.168975315
0.6903076171875	0.0013726806640625	4628.61148031388
0.694732666015625	0.00137542724609375	4629.05398531276
0.69915771484375	0.00137908935546875	4629.49649031165
0.703582763671875	0.0013818359375	4629.93899531053
0.7080078125	0.00138580322265625	4630.38150030941
0.712432861328125	0.001390380859375	4630.82400530829
0.71685791015625	0.00139495849609375	4631.26651030718
0.721282958984375	0.0013995361328125	4631.70901530606
0.7257080078125	0.00140472412109375	4632.15152030494
0.730133056640625	0.00141021728515625	4632.59402530382
0.73455810546875	0.0014154052734375	4633.03653030271
0.738983154296875	0.0014215087890625	4633.47903530159
0.743408203125	0.0014263916015625	4633.92154030047
0.747833251953125	0.0014337158203125	4634.36404529936
0.75225830078125	0.00144134521484375	4634.80655029824
0.756683349609375	0.0014495849609375	4635.24905529712
0.7611083984375	0.00145751953125	4635.691560296
0.765533447265625	0.00146697998046875	4636.13406529489
0.76995849609375	0.00147613525390625	4636.57657029377
0.774383544921875	0.00148651123046875	4637.01907529265
0.77880859375	0.0014971923828125	4637.46158029154
0.783233642578125	0.00150787353515625	4637.90408529042
0.78765869140625	0.001519775390625	4638.3465902893
0.792083740234375	0.00153228759765625	4638.78909528818
0.7965087890625	0.00154571533203125	4639.23160028707
0.800933837890625	0.0015594482421875	4639.67410528595
0.80535888671875	0.0015740966796875	4640.11661028483
0.809783935546875	0.0015899658203125	4640.55911528371
0.814208984375	0.00160614013671875	4641.0016202826
0.818634033203125	0.00162384033203125	4641.44412528148
0.82305908203125	0.00164215087890625	4641.88663028036
0.827484130859375	0.001661376953125	4642.32913527925
0.8319091796875	0.0016815185546875	4642.77164027813
0.836334228515625	0.00170257568359375	4643.21414527701
0.84075927734375	0.00172454833984375	4643.65665027589
0.845184326171875	0.00174774169921875	4644.09915527478
0.849609375	0.0017718505859375	4644.54166027366
0.854034423828125	0.001796875	4644.98416527254
0.85845947265625	0.0018231201171875	4645.42667027142
0.862884521484375	0.001849365234375	4645.86917527031
0.8673095703125	0.00187744140625	4646.31168026919
0.871734619140625	0.0019061279296875	4646.75418526807
0.87615966796875	0.00193603515625	4647.19669026696
0.880584716796875	0.001966552734375	4647.63919526584
0.885009765625	0.00199798583984375	4648.08170026472
0.889434814453125	0.00202972412109375	4648.5242052636
0.89385986328125	0.0020623779296875	4648.96671026249
0.898284912109375	0.002095947265625	4649.40921526137
0.9027099609375	0.00212982177734375	4649.85172026025
0.907135009765625	0.00216461181640625	4650.29422525914
0.91156005859375	0.0021990966796875	4650.73673025802
0.915985107421875	0.0022344970703125	4651.1792352569
0.92041015625	0.00226959228515625	4651.62174025578
0.924835205078125	0.00230560302734375	4652.06424525467
0.92926025390625	0.00234130859375	4652.50675025355
0.933685302734375	0.00237640380859375	4652.94925525243
0.9381103515625	0.00241363525390625	4653.39176025132
0.942535400390625	0.0024481201171875	4653.8342652502
0.94696044921875	0.0024822998046875	4654.27677024908
0.951385498046875	0.0025152587890625	4654.71927524796
0.955810546875	0.0025482177734375	4655.16178024685
0.960235595703125	0.00258056640625	4655.60428524573
0.96466064453125	0.00261077880859375	4656.04679024461
0.969085693359375	0.00264068603515625	4656.48929524349
0.9735107421875	0.002669677734375	4656.93180024238
0.977935791015625	0.002696533203125	4657.37430524126
0.98236083984375	0.002724609375	4657.81681024014
0.986785888671875	0.002752685546875	4658.25931523903
0.9912109375	0.00278076171875	4658.70182023791
0.995635986328125	0.00281005859375	4659.14432523679
1.00006103515625	0.00284027099609375	4659.58683023567
0.995635986328125	0.0023126220703125	4660.02933523456
0.9912109375	0.0018975830078125	4660.47184023344
0.986785888671875	0.00155670166015625	4660.91434523232
0.98236083984375	0.001268310546875	4661.35685023121
0.977935791015625	0.00102020263671875	4661.79935523009
0.9735107421875	0.0008050537109375	4662.24186022897
0.969085693359375	0.00061431884765625	4662.68436522785
0.96466064453125	0.000444976806640625	4663.12687022674
0.960235595703125	0.000293182373046875	4663.56937522562
0.955810546875	0.000156341552734375	4664.0118802245
0.951385498046875	3.26171875E-05	4664.45438522338
0.94696044921875	-8.0078125E-05	4664.89689022227
0.942535400390625	-0.0001832275390625	4665.33939522115
0.9381103515625	-0.0002779541015625	4665.78190022003
0.933685302734375	-0.000366607666015625	4666.22440521892
0.92926025390625	-0.000446807861328125	4666.6669102178
0.924835205078125	-0.000521026611328125	4667.10941521668
0.92041015625	-0.000590301513671875	4667.55192021556
0.915985107421875	-0.000654815673828125	4667.99442521445
0.91156005859375	-0.0007147216796875	4668.43693021333
0.907135009765625	-0.0007708740234375	4668.87943521221
0.9027099609375	-0.0008233642578125	4669.3219402111
0.898284912109375	-0.0008721923828125	4669.76444520998
0.89385986328125	-0.00091796875	4670.20695020886
0.889434814453125	-0.00096099853515625	4670.64945520774
0.885009765625	-0.0010009765625	4671.09196020663
0.880584716796875	-0.00103851318359375	4671.53446520551
0.87615966796875	-0.00107330322265625	4671.97697020439
0.871734619140625	-0.0011053466796875	4672.41947520327
0.8673095703125	-0.0011358642578125	4672.86198020216
0.862884521484375	-0.001163330078125	4673.30448520104
0.85845947265625	-0.00118865966796875	4673.74699019992
0.854034423828125	-0.0012127685546875	4674.18949519881
0.849609375	-0.00123504638671875	4674.63200019769
0.845184326171875	-0.00125457763671875	4675.07450519657
0.84075927734375	-0.001273193359375	4675.51701019545
0.836334228515625	-0.0012896728515625	4675.95951519434
0.8319091796875	-0.00130462646484375	4676.40202019322
0.827484130859375	-0.001318359375	4676.8445251921
0.82305908203125	-0.0013299560546875	4677.28703019099
0.818634033203125	-0.00134063720703125	4677.72953518987
0.814208984375	-0.00135009765625	4678.17204018875
0.809783935546875	-0.00135833740234375	4678.61454518763
0.80535888671875	-0.0013653564453125	4679.05705018652
0.800933837890625	-0.0013714599609375	4679.4995551854
0.7965087890625	-0.001375732421875	4679.94206018428
0.792083740234375	-0.0013800048828125	4680.38456518317
0.78765869140625	-0.00138336181640625	4680.82707018205
0.783233642578125	-0.00138519287109375	4681.26957518093
0.77880859375	-0.00138641357421875	4681.71208017981
0.774383544921875	-0.0013873291015625	4682.1545851787
0.76995849609375	-0.00138702392578125	4682.59709017758
0.765533447265625	-0.00138671875	4683.03959517646
0.7611083984375	-0.001385498046875	4683.48210017534
0.756683349609375	-0.00138397216796875	4683.92460517423
0.75225830078125	-0.00138153076171875	4684.36711017311
0.747833251953125	-0.00137908935546875	4684.80961517199
0.743408203125	-0.0013763427734375	4685.25212017088
0.738983154296875	-0.0013720703125	4685.69462516976
0.73455810546875	-0.00136932373046875	4686.13713016864
0.730133056640625	-0.001365966796875	4686.57963516752
0.7257080078125	-0.0013623046875	4687.02214016641
0.721282958984375	-0.0013580322265625	4687.46464516529
0.71685791015625	-0.0013543701171875	4687.90715016417
0.712432861328125	-0.00135009765625	4688.34965516306
0.7080078125	-0.00134613037109375	4688.79216016194
0.703582763671875	-0.0013421630859375	4689.23466516082
0.69915771484375	-0.00133697509765625	4689.6771701597
0.694732666015625	-0.00133270263671875	4690.11967515859
0.6903076171875	-0.001329345703125	4690.56218015747
0.685882568359375	-0.00132537841796875	4691.00468515635
0.68145751953125	-0.00132171630859375	4691.44719015523
0.677032470703125	-0.001318359375	4691.88969515412
0.672607421875	-0.001314697265625	4692.332200153
0.668182373046875	-0.00131134033203125	4692.77470515188
0.66375732421875	-0.0013079833984375	4693.21721015077
0.659332275390625	-0.00130462646484375	4693.65971514965
0.6549072265625	-0.0013018798828125	4694.10222014853
0.650482177734375	-0.001298828125	4694.54472514741
0.64605712890625	-0.00129638671875	4694.9872301463
0.641632080078125	-0.0012939453125	4695.42973514518
0.63720703125	-0.00129150390625	4695.87224014406
0.632781982421875	-0.0012890625	4696.31474514294
0.62835693359375	-0.0012872314453125	4696.75725014183
0.623931884765625	-0.001287841796875	4697.19975514071
0.6195068359375	-0.00128570556640625	4697.64226013959
0.615081787109375	-0.00128387451171875	4698.08476513848
0.61065673828125	-0.0012823486328125	4698.52727013736
0.606231689453125	-0.0012811279296875	4698.96977513624
0.601806640625	-0.001280517578125	4699.41228013512
0.597381591796875	-0.00127960205078125	4699.85478513401
0.59295654296875	-0.00127960205078125	4700.29729013289
0.588531494140625	-0.00127960205078125	4700.73979513177
0.5841064453125	-0.0012786865234375	4701.18230013066
0.579681396484375	-0.00127899169921875	4701.62480512954
0.57525634765625	-0.0012799072265625	4702.06731012842
0.570831298828125	-0.0012811279296875	4702.5098151273
0.56640625	-0.0012823486328125	4702.95232012619
0.561981201171875	-0.00128326416015625	4703.39482512507
0.55755615234375	-0.001285400390625	4703.83733012395
0.553131103515625	-0.00128692626953125	4704.27983512283
0.5487060546875	-0.0012890625	4704.72234012172
0.544281005859375	-0.00129058837890625	4705.1648451206
0.53985595703125	-0.0012933349609375	4705.60735011948
0.535430908203125	-0.0012957763671875	4706.04985511837
0.531005859375	-0.00129852294921875	4706.49236011725
0.526580810546875	-0.00130157470703125	4706.93486511613
0.52215576171875	-0.001304931640625	4707.37737011501
0.517730712890625	-0.0013079833984375	4707.8198751139
0.5133056640625	-0.00131134033203125	4708.26238011278
0.508880615234375	-0.00131500244140625	4708.70488511166
0.50445556640625	-0.00131866455078125	4709.14739011055
0.500030517578125	-0.00132232666015625	4709.58989510943
0.49560546875	-0.0013262939453125	4710.03240010831
0.491180419921875	-0.0013299560546875	4710.47490510719
0.48675537109375	-0.0013336181640625	4710.91741010608
0.482330322265625	-0.00133819580078125	4711.35991510496
0.4779052734375	-0.001341552734375	4711.80242010384
0.473480224609375	-0.0013458251953125	4712.24492510273
0.46905517578125	-0.00135009765625	4712.68743010161
0.464630126953125	-0.0013531494140625	4713.12993510049
0.460205078125	-0.001357421875	4713.57244009937
0.455780029296875	-0.0013604736328125	4714.01494509826
0.45135498046875	-0.00136444091796875	4714.45745009714
0.446929931640625	-0.00136810302734375	4714.89995509602
0.4425048828125	-0.001370849609375	4715.3424600949
0.438079833984375	-0.0013739013671875	4715.78496509379
0.43365478515625	-0.001376953125	4716.22747009267
0.429229736328125	-0.00137939453125	4716.66997509155
0.4248046875	-0.00138214111328125	4717.11248009044
0.420379638671875	-0.00138427734375	4717.55498508932
0.41595458984375	-0.0013861083984375	4717.9974900882
0.411529541015625	-0.00138824462890625	4718.43999508708
0.4071044921875	-0.00139007568359375	4718.88250008597
0.402679443359375	-0.0013916015625	4719.32500508485
0.39825439453125	-0.001392822265625	4719.76751008373
0.393829345703125	-0.00139373779296875	4720.21001508262
0.389404296875	-0.00139404296875	4720.6525200815
0.384979248046875	-0.00139556884765625	4721.09502508038
0.38055419921875	-0.001396484375	4721.53753007926
0.376129150390625	-0.0013970947265625	4721.98003507815
0.3717041015625	-0.00139801025390625	4722.42254007703
0.367279052734375	-0.0013983154296875	4722.86504507591
0.36285400390625	-0.00139923095703125	4723.30755007479
0.358428955078125	-0.0013995361328125	4723.75005507368
0.35400390625	-0.001400146484375	4724.19256007256
0.349578857421875	-0.00139923095703125	4724.63506507144
0.34515380859375	-0.001400146484375	4725.07757007033
0.340728759765625	-0.0014007568359375	4725.52007506921
0.3363037109375	-0.0014013671875	4725.96258006809
0.331878662109375	-0.00140167236328125	4726.40508506697
0.32745361328125	-0.00140228271484375	4726.84759006586
0.323028564453125	-0.0014031982421875	4727.29009506474
0.318603515625	-0.00140350341796875	4727.73260006362
0.314178466796875	-0.0014044189453125	4728.17510506251
0.30975341796875	-0.0014068603515625	4728.61761006139
0.305328369140625	-0.00140716552734375	4729.06011506027
0.3009033203125	-0.001407470703125	4729.50262005915
0.296478271484375	-0.0014080810546875	4729.94512505804
0.29205322265625	-0.00140869140625	4730.38763005692
0.287628173828125	-0.001409912109375	4730.8301350558
0.283203125	-0.0014111328125	4731.27264005469
0.278778076171875	-0.0014117431640625	4731.71514505357
0.27435302734375	-0.001412353515625	4732.15765005245
0.269927978515625	-0.00141326904296875	4732.60015505133
0.2655029296875	-0.00141448974609375	4733.04266005022
0.261077880859375	-0.00141571044921875	4733.4851650491
0.25665283203125	-0.001417236328125	4733.92767004798
0.252227783203125	-0.00141815185546875	4734.37017504686
0.247802734375	-0.001419677734375	4734.81268004575
0.243377685546875	-0.00142120361328125	4735.25518504463
0.23895263671875	-0.00142242431640625	4735.69769004351
0.234527587890625	-0.0014239501953125	4736.1401950424
0.2301025390625	-0.00142486572265625	4736.58270004128
0.225677490234375	-0.00142669677734375	4737.02520504016
0.22125244140625	-0.00142822265625	4737.46771003904
0.216827392578125	-0.00142974853515625	4737.91021503793
0.21240234375	-0.0014312744140625	4738.35272003681
0.207977294921875	-0.00143280029296875	4738.79522503569
0.20355224609375	-0.001434326171875	4739.23773003458
0.199127197265625	-0.0014361572265625	4739.68023503346
0.1947021484375	-0.00143798828125	4740.12274003234
0.190277099609375	-0.0014404296875	4740.56524503122
0.18585205078125	-0.00144195556640625	4741.00775003011
0.181427001953125	-0.001444091796875	4741.45025502899
0.177001953125	-0.001446533203125	4741.89276002787
0.172576904296875	-0.00144866943359375	4742.33526502675
0.16815185546875	-0.00145111083984375	4742.77777002564
0.163726806640625	-0.001453857421875	4743.22027502452
0.1593017578125	-0.00145660400390625	4743.6627800234
0.154876708984375	-0.00145904541015625	4744.10528502229
0.15045166015625	-0.00146240234375	4744.54779002117
0.146026611328125	-0.0014654541015625	4744.99029502005
0.1416015625	-0.00146942138671875	4745.43280001893
0.137176513671875	-0.00147308349609375	4745.87530501782
0.13275146484375	-0.00147674560546875	4746.3178100167
0.128326416015625	-0.00148101806640625	4746.76031501558
0.1239013671875	-0.001485595703125	4747.20282001447
0.119476318359375	-0.00149017333984375	4747.64532501335
0.11505126953125	-0.001494140625	4748.08783001223
0.110626220703125	-0.00149932861328125	4748.53033501111
0.106201171875	-0.00150482177734375	4748.97284001
0.101776123046875	-0.00151123046875	4749.41534500888
0.09735107421875	-0.00151702880859375	4749.85785000776
0.092926025390625	-0.0015234375	4750.30035500664
0.0885009765625	-0.001529541015625	4750.74286000553
0.084075927734375	-0.0015362548828125	4751.18536500441
0.07965087890625	-0.00154296875	4751.62787000329
0.075225830078125	-0.00154937744140625	4752.07037500218
0.07080078125	-0.0015570068359375	4752.51288000106
0.066375732421875	-0.0015643310546875	4752.95538499994
0.06195068359375	-0.00157196044921875	4753.39788999882
0.057525634765625	-0.0015802001953125	4753.84039499771
0.0531005859375	-0.0015887451171875	4754.28289999659
0.048675537109375	-0.0015972900390625	4754.72540499547
0.04425048828125	-0.0016064453125	4755.16790999435
0.039825439453125	-0.00161590576171875	4755.61041499324
0.035400390625	-0.0016253662109375	4756.05291999212
0.030975341796875	-0.00163604736328125	4756.495424991
0.02655029296875	-0.00164642333984375	4756.93792998989
0.022125244140625	-0.00165771484375	4757.38043498877
0.0177001953125	-0.0016693115234375	4757.82293998765
0.013275146484375	-0.0016815185546875	4758.26544498653
0.00885009765625	-0.00169464111328125	4758.70794998542
0.004425048828125	-0.00170806884765625	4759.1504549843
0	-0.00172149658203125	4759.59295998318
0.004425048828125	-0.00121795654296875	4760.03546498207
0.00885009765625	-0.0008465576171875	4760.47796998095
0.013275146484375	-0.0005615234375	4760.92047497983
0.0177001953125	-0.000335357666015625	4761.36297997871
0.022125244140625	-0.00015277099609375	4761.8054849776
0.02655029296875	-2.64892578125001E-06	4762.24798997648
0.030975341796875	0.000122589111328125	4762.69049497536
0.035400390625	0.00022784423828125	4763.13299997424
0.039825439453125	0.0003179931640625	4763.57550497313
0.04425048828125	0.0003956298828125	4764.01800997201
0.048675537109375	0.00046282958984375	4764.46051497089
0.0531005859375	0.0005216064453125	4764.90301996978
0.057525634765625	0.00057379150390625	4765.34552496866
0.06195068359375	0.000619171142578125	4765.78802996754
0.066375732421875	0.00066070556640625	4766.23053496642
0.07080078125	0.000697021484375	4766.67303996531
0.075225830078125	0.00073028564453125	4767.11554496419
0.07965087890625	0.00075897216796875	4767.55804996307
0.084075927734375	0.0007855224609375	4768.00055496196
0.0885009765625	0.0008099365234375	4768.44305996084
0.092926025390625	0.00083282470703125	4768.88556495972
0.09735107421875	0.00085357666015625	4769.3280699586
0.101776123046875	0.000872802734375	4769.77057495749
0.106201171875	0.0008905029296875	4770.21307995637
0.110626220703125	0.00090667724609375	4770.65558495525
0.11505126953125	0.000921630859375	4771.09808995414
0.119476318359375	0.0009344482421875	4771.54059495302
0.1239013671875	0.0009478759765625	4771.9830999519
0.128326416015625	0.0009600830078125	4772.42560495078
0.13275146484375	0.0009716796875	4772.86810994967
0.137176513671875	0.000982666015625	4773.31061494855
0.1416015625	0.0009930419921875	4773.75311994743
0.146026611328125	0.00100250244140625	4774.19562494631
0.15045166015625	0.00101165771484375	4774.6381299452
0.154876708984375	0.00102020263671875	4775.08063494408
0.1593017578125	0.00102813720703125	4775.52313994296
0.163726806640625	0.00103607177734375	4775.96564494185
0.16815185546875	0.00104339599609375	4776.40814994073
0.172576904296875	0.0010504150390625	4776.85065493961
0.177001953125	0.00105743408203125	4777.29315993849
0.181427001953125	0.00106414794921875	4777.73566493738
0.18585205078125	0.001070556640625	4778.17816993626
0.190277099609375	0.00107666015625	4778.62067493514
0.1947021484375	0.001082763671875	4779.06317993403
0.199127197265625	0.0010882568359375	4779.50568493291
0.20355224609375	0.00109405517578125	4779.94818993179
0.207977294921875	0.0010992431640625	4780.39069493067
0.21240234375	0.001104736328125	4780.83319992956
0.216827392578125	0.0011102294921875	4781.27570492844
0.22125244140625	0.00111572265625	4781.71820992732
0.225677490234375	0.00112060546875	4782.1607149262
0.2301025390625	0.00112548828125	4782.60321992509
0.234527587890625	0.0011297607421875	4783.04572492397
0.23895263671875	0.00113494873046875	4783.48822992285
0.243377685546875	0.00113983154296875	4783.93073492174
0.247802734375	0.00114501953125	4784.37323992062
0.252227783203125	0.00114959716796875	4784.8157449195
0.25665283203125	0.00115447998046875	4785.25824991838
0.261077880859375	0.00115936279296875	4785.70075491727
0.2655029296875	0.00116363525390625	4786.14325991615
0.269927978515625	0.00116851806640625	4786.58576491503
0.27435302734375	0.001173095703125	4787.02826991392
0.278778076171875	0.00117767333984375	4787.4707749128
0.283203125	0.0011822509765625	4787.91327991168
0.287628173828125	0.00118743896484375	4788.35578491056
0.29205322265625	0.00119171142578125	4788.79828990945
0.296478271484375	0.0011968994140625	4789.24079490833
0.3009033203125	0.0012017822265625	4789.68329990721
0.305328369140625	0.0012066650390625	4790.1258049061
0.30975341796875	0.00121124267578125	4790.56830990498
0.314178466796875	0.00121826171875	4791.01081490386
0.318603515625	0.00122222900390625	4791.45331990274
0.323028564453125	0.001226806640625	4791.89582490163
0.32745361328125	0.001231689453125	4792.33832990051
0.331878662109375	0.001236572265625	4792.78083489939
0.3363037109375	0.00124114990234375	4793.22333989827
0.340728759765625	0.00124603271484375	4793.66584489716
0.34515380859375	0.00125091552734375	4794.10834989604
0.349578857421875	0.0012554931640625	4794.55085489492
0.35400390625	0.0012591552734375	4794.99335989381
0.358428955078125	0.00126434326171875	4795.43586489269
0.36285400390625	0.00126861572265625	4795.87836989157
0.367279052734375	0.00127349853515625	4796.32087489045
0.3717041015625	0.001278076171875	4796.76337988934
0.376129150390625	0.0012823486328125	4797.20588488822
0.38055419921875	0.00128662109375	4797.6483898871
0.384979248046875	0.0012908935546875	4798.09089488599
0.389404296875	0.0012945556640625	4798.53339988487
0.393829345703125	0.001297607421875	4798.97590488375
0.39825439453125	0.00130096435546875	4799.41840988263
0.402679443359375	0.00130462646484375	4799.86091488152
0.4071044921875	0.00130767822265625	4800.3034198804
0.411529541015625	0.0013104248046875	4800.74592487928
0.41595458984375	0.00131317138671875	4801.18842987816
0.420379638671875	0.00131591796875	4801.63093487705
0.4248046875	0.00131805419921875	4802.07343987593
0.429229736328125	0.00132049560546875	4802.51594487481
0.43365478515625	0.0013226318359375	4802.9584498737
0.438079833984375	0.00132476806640625	4803.40095487258
0.4425048828125	0.001326904296875	4803.84345987146
0.446929931640625	0.0013287353515625	4804.28596487034
0.45135498046875	0.00133056640625	4804.72846986923
0.455780029296875	0.0013330078125	4805.17097486811
0.460205078125	0.001334228515625	4805.61347986699
0.464630126953125	0.00133575439453125	4806.05598486587
0.46905517578125	0.00133697509765625	4806.49848986476
0.473480224609375	0.0013385009765625	4806.94099486364
0.4779052734375	0.0013397216796875	4807.38349986252
0.482330322265625	0.00134063720703125	4807.82600486141
0.48675537109375	0.00134124755859375	4808.26850986029
0.491180419921875	0.0013421630859375	4808.71101485917
0.49560546875	0.0013427734375	4809.15351985806
0.500030517578125	0.00134368896484375	4809.59602485694
0.50445556640625	0.00134368896484375	4810.03852985582
0.508880615234375	0.001343994140625	4810.4810348547
0.5133056640625	0.00134429931640625	4810.92353985359
0.517730712890625	0.00134429931640625	4811.36604485247
0.52215576171875	0.0013446044921875	4811.80854985135
0.526580810546875	0.0013446044921875	4812.25105485023
0.531005859375	0.00134429931640625	4812.69355984912
0.535430908203125	0.0013446044921875	4813.136064848
0.53985595703125	0.00134368896484375	4813.57856984688
0.544281005859375	0.001343994140625	4814.02107484576
0.5487060546875	0.0013427734375	4814.46357984465
0.553131103515625	0.0013427734375	4814.90608484353
0.55755615234375	0.0013421630859375	4815.34858984241
0.561981201171875	0.0013421630859375	4815.7910948413
0.56640625	0.00134185791015625	4816.23359984018
0.570831298828125	0.00134124755859375	4816.67610483906
0.57525634765625	0.0013409423828125	4817.11860983794
0.579681396484375	0.0013409423828125	4817.56111483683
0.5841064453125	0.00134063720703125	4818.00361983571
0.588531494140625	0.001339111328125	4818.44612483459
0.59295654296875	0.001339111328125	4818.88862983348
0.597381591796875	0.00133941650390625	4819.33113483236
0.601806640625	0.00133941650390625	4819.77363983124
0.606231689453125	0.0013397216796875	4820.21614483012
0.61065673828125	0.0013397216796875	4820.65864982901
0.615081787109375	0.00134033203125	4821.10115482789
0.6195068359375	0.00134033203125	4821.54365982677
0.623931884765625	0.00134063720703125	4821.98616482566
0.62835693359375	0.00134429931640625	4822.42866982454
0.632781982421875	0.00134429931640625	4822.87117482342
0.63720703125	0.00134429931640625	4823.3136798223
0.641632080078125	0.00134521484375	4823.75618482119
0.64605712890625	0.00134613037109375	4824.19868982007
0.650482177734375	0.0013470458984375	4824.64119481895
0.6549072265625	0.0013482666015625	4825.08369981783
0.659332275390625	0.0013494873046875	4825.52620481672
0.66375732421875	0.00135101318359375	4825.9687098156
0.668182373046875	0.0013525390625	4826.41121481448
0.672607421875	0.0013543701171875	4826.85371981337
0.677032470703125	0.00135650634765625	4827.29622481225
0.68145751953125	0.0013592529296875	4827.73872981113
0.685882568359375	0.0013616943359375	4828.18123481001
0.6903076171875	0.00136444091796875	4828.6237398089
0.694732666015625	0.0013671875	4829.06624480778
0.69915771484375	0.0013702392578125	4829.50874980666
0.703582763671875	0.00137298583984375	4829.95125480555
0.7080078125	0.001376953125	4830.39375980443
0.712432861328125	0.0013812255859375	4830.83626480331
0.71685791015625	0.00138519287109375	4831.27876980219
0.721282958984375	0.0013897705078125	4831.72127480108
0.7257080078125	0.0013946533203125	4832.16377979996
0.730133056640625	0.0013995361328125	4832.60628479884
0.73455810546875	0.00140472412109375	4833.04878979772
0.738983154296875	0.00141082763671875	4833.49129479661
0.743408203125	0.0014154052734375	4833.93379979549
0.747833251953125	0.001422119140625	4834.37630479437
0.75225830078125	0.00142974853515625	4834.81880979326
0.756683349609375	0.00143707275390625	4835.26131479214
0.7611083984375	0.0014447021484375	4835.70381979102
0.765533447265625	0.00145355224609375	4836.1463247899
0.76995849609375	0.00146240234375	4836.58882978879
0.774383544921875	0.00147216796875	4837.03133478767
0.77880859375	0.00148223876953125	4837.47383978655
0.783233642578125	0.0014923095703125	4837.91634478544
0.78765869140625	0.00150360107421875	4838.35884978432
0.792083740234375	0.0015155029296875	4838.8013547832
0.7965087890625	0.00152862548828125	4839.24385978208
0.800933837890625	0.00154205322265625	4839.68636478097
0.80535888671875	0.00155670166015625	4840.12886977985
0.809783935546875	0.00157135009765625	4840.57137477873
0.814208984375	0.0015875244140625	4841.01387977761
0.818634033203125	0.00160400390625	4841.4563847765
0.82305908203125	0.00162109375	4841.89888977538
0.827484130859375	0.0016400146484375	4842.34139477426
0.8319091796875	0.001658935546875	4842.78389977315
0.836334228515625	0.0016790771484375	4843.22640477203
0.84075927734375	0.00170013427734375	4843.66890977091
0.845184326171875	0.001722412109375	4844.11141476979
0.849609375	0.00174530029296875	4844.55391976868
0.854034423828125	0.0017694091796875	4844.99642476756
0.85845947265625	0.00179412841796875	4845.43892976644
0.862884521484375	0.00181915283203125	4845.88143476533
0.8673095703125	0.00184600830078125	4846.32393976421
0.871734619140625	0.001873779296875	4846.76644476309
0.87615966796875	0.0019024658203125	4847.20894976197
0.880584716796875	0.00193145751953125	4847.65145476086
0.885009765625	0.001961669921875	4848.09395975974
0.889434814453125	0.0019927978515625	4848.53646475862
0.89385986328125	0.00202423095703125	4848.97896975751
0.898284912109375	0.0020556640625	4849.42147475639
0.9027099609375	0.00208831787109375	4849.86397975527
0.907135009765625	0.00212158203125	4850.30648475415
0.91156005859375	0.00215423583984375	4850.74898975304
0.915985107421875	0.00218780517578125	4851.19149475192
0.92041015625	0.0022216796875	4851.6339997508
0.924835205078125	0.00225555419921875	4852.07650474968
0.92926025390625	0.00228912353515625	4852.51900974857
0.933685302734375	0.00232269287109375	4852.96151474745
0.9381103515625	0.00235748291015625	4853.40401974633
0.942535400390625	0.00238983154296875	4853.84652474522
0.94696044921875	0.00242156982421875	4854.2890297441
0.951385498046875	0.0024530029296875	4854.73153474298
0.955810546875	0.0024835205078125	4855.17403974186
0.960235595703125	0.00251312255859375	4855.61654474075
0.96466064453125	0.00254180908203125	4856.05904973963
0.969085693359375	0.002569580078125	4856.50155473851
0.9735107421875	0.00259674072265625	4856.9440597374
0.977935791015625	0.0026226806640625	4857.38656473628
0.98236083984375	0.00264923095703125	4857.82906973516
0.986785888671875	0.00267578125	4858.27157473404
0.9912109375	0.00270355224609375	4858.71407973293
