Potential applied (V)	WE(1).Current (A)	Time (s)
0.004425048828125	-0.0682830810546875	5114.68112908667
0.00885009765625	-0.0659576416015625	5114.70325408662
0.013275146484375	-0.0640228271484375	5114.72537908656
0.0177001953125	-0.0623138427734375	5114.7475040865
0.022125244140625	-0.0607452392578125	5114.76962908645
0.02655029296875	-0.059295654296875	5114.79175408639
0.030975341796875	-0.0579193115234375	5114.81387908634
0.035400390625	-0.0566253662109375	5114.83600408628
0.039825439453125	-0.055377197265625	5114.85812908622
0.04425048828125	-0.0541839599609375	5114.88025408617
0.048675537109375	-0.0530364990234375	5114.90237908611
0.0531005859375	-0.051922607421875	5114.92450408606
0.057525634765625	-0.0508453369140625	5114.946629086
0.06195068359375	-0.0498046875	5114.96875408594
0.066375732421875	-0.048779296875	5114.99087908589
0.07080078125	-0.0477783203125	5115.01300408583
0.075225830078125	-0.046807861328125	5115.03512908578
0.07965087890625	-0.0458465576171875	5115.05725408572
0.084075927734375	-0.0449188232421875	5115.07937908567
0.0885009765625	-0.044000244140625	5115.10150408561
0.092926025390625	-0.0431060791015625	5115.12362908555
0.09735107421875	-0.04222412109375	5115.1457540855
0.101776123046875	-0.0413665771484375	5115.16787908544
0.106201171875	-0.04052734375	5115.19000408539
0.110626220703125	-0.0397003173828125	5115.21212908533
0.11505126953125	-0.0388885498046875	5115.23425408528
0.119476318359375	-0.03809814453125	5115.25637908522
0.1239013671875	-0.0373138427734375	5115.27850408516
0.128326416015625	-0.0365386962890625	5115.30062908511
0.13275146484375	-0.0357879638671875	5115.32275408505
0.137176513671875	-0.035040283203125	5115.344879085
0.1416015625	-0.0343109130859375	5115.36700408494
0.146026611328125	-0.03359375	5115.38912908488
0.15045166015625	-0.0328826904296875	5115.41125408483
0.154876708984375	-0.032183837890625	5115.43337908477
0.1593017578125	-0.0315032958984375	5115.45550408472
0.163726806640625	-0.0308258056640625	5115.47762908466
0.16815185546875	-0.0301605224609375	5115.4997540846
0.172576904296875	-0.0295074462890625	5115.52187908455
0.177001953125	-0.028857421875	5115.54400408449
0.181427001953125	-0.0282196044921875	5115.56612908444
0.18585205078125	-0.027593994140625	5115.58825408438
0.190277099609375	-0.0269744873046875	5115.61037908433
0.1947021484375	-0.0263671875	5115.63250408427
0.199127197265625	-0.02576904296875	5115.65462908421
0.20355224609375	-0.0251708984375	5115.67675408416
0.207977294921875	-0.024591064453125	5115.6988790841
0.21240234375	-0.0240142822265625	5115.72100408405
0.216827392578125	-0.023443603515625	5115.74312908399
0.22125244140625	-0.0228851318359375	5115.76525408393
0.225677490234375	-0.022332763671875	5115.78737908388
0.2301025390625	-0.02178955078125	5115.80950408382
0.234527587890625	-0.0212493896484375	5115.83162908377
0.23895263671875	-0.0207183837890625	5115.85375408371
0.243377685546875	-0.0201904296875	5115.87587908365
0.247802734375	-0.0196746826171875	5115.8980040836
0.252227783203125	-0.0191619873046875	5115.92012908354
0.25665283203125	-0.018658447265625	5115.94225408349
0.261077880859375	-0.018157958984375	5115.96437908343
0.2655029296875	-0.01766357421875	5115.98650408338
0.269927978515625	-0.0171783447265625	5116.00862908332
0.27435302734375	-0.01669921875	5116.03075408326
0.278778076171875	-0.01622314453125	5116.05287908321
0.283203125	-0.0157501220703125	5116.07500408315
0.287628173828125	-0.015289306640625	5116.0971290831
0.29205322265625	-0.01483154296875	5116.11925408304
0.296478271484375	-0.0143768310546875	5116.14137908298
0.3009033203125	-0.013934326171875	5116.16350408293
0.305328369140625	-0.0134918212890625	5116.18562908287
0.30975341796875	-0.0130523681640625	5116.20775408282
0.314178466796875	-0.0126190185546875	5116.22987908276
0.318603515625	-0.0121917724609375	5116.25200408271
0.323028564453125	-0.0117706298828125	5116.27412908265
0.32745361328125	-0.0113525390625	5116.29625408259
0.331878662109375	-0.0109375	5116.31837908254
0.3363037109375	-0.0105316162109375	5116.34050408248
0.340728759765625	-0.0101287841796875	5116.36262908243
0.34515380859375	-0.00972900390625	5116.38475408237
0.349578857421875	-0.0093353271484375	5116.40687908231
0.35400390625	-0.00894775390625	5116.42900408226
0.358428955078125	-0.0085601806640625	5116.4511290822
0.36285400390625	-0.0081787109375	5116.47325408215
0.367279052734375	-0.0078033447265625	5116.49537908209
0.3717041015625	-0.007427978515625	5116.51750408203
0.376129150390625	-0.0070587158203125	5116.53962908198
0.38055419921875	-0.0066925048828125	5116.56175408192
0.384979248046875	-0.006329345703125	5116.58387908187
0.389404296875	-0.0059722900390625	5116.60600408181
0.393829345703125	-0.0056182861328125	5116.62812908176
0.39825439453125	-0.005267333984375	5116.6502540817
0.402679443359375	-0.004921875	5116.67237908164
0.4071044921875	-0.00457855224609375	5116.69450408159
0.411529541015625	-0.0042388916015625	5116.71662908153
0.41595458984375	-0.0039031982421875	5116.73875408148
0.420379638671875	-0.00357147216796875	5116.76087908142
0.4248046875	-0.00325408935546875	5116.78300408137
0.429229736328125	-0.00292755126953125	5116.80512908131
0.43365478515625	-0.0026043701171875	5116.82725408125
0.438079833984375	-0.00228424072265625	5116.8493790812
0.4425048828125	-0.00196746826171875	5116.87150408114
0.446929931640625	-0.00165435791015625	5116.89362908109
0.45135498046875	-0.001343994140625	5116.91575408103
0.455780029296875	-0.0010369873046875	5116.93787908097
0.460205078125	-0.00073333740234375	5116.96000408092
0.464630126953125	-0.0004322509765625	5116.98212908086
0.46905517578125	-0.0001353759765625	5117.00425408081
0.473480224609375	0.0001593017578125	5117.02637908075
0.4779052734375	0.000450775146484375	5117.04850408069
0.482330322265625	0.00073974609375	5117.07062908064
0.48675537109375	0.00102630615234375	5117.09275408058
0.491180419921875	0.001309814453125	5117.11487908053
0.49560546875	0.00159027099609375	5117.13700408047
0.500030517578125	0.00186859130859375	5117.15912908042
0.50445556640625	0.0021435546875	5117.18125408036
0.508880615234375	0.00241546630859375	5117.2033790803
0.5133056640625	0.002684326171875	5117.22550408025
0.517730712890625	0.00295135498046875	5117.24762908019
0.52215576171875	0.00321502685546875	5117.26975408014
0.526580810546875	0.0034765625	5117.29187908008
0.531005859375	0.003736572265625	5117.31400408002
0.535430908203125	0.003992919921875	5117.33612907997
0.53985595703125	0.0042474365234375	5117.35825407991
0.544281005859375	0.00449920654296875	5117.38037907986
0.5487060546875	0.00474639892578125	5117.4025040798
0.553131103515625	0.00499420166015625	5117.42462907974
0.55755615234375	0.00523834228515625	5117.44675407969
0.561981201171875	0.005479736328125	5117.46887907963
0.56640625	0.00572021484375	5117.49100407958
0.570831298828125	0.00595794677734375	5117.51312907952
0.57525634765625	0.0061932373046875	5117.53525407947
0.579681396484375	0.006414794921875	5117.55737907941
0.5841064453125	0.006646728515625	5117.57950407935
0.588531494140625	0.00687255859375	5117.6016290793
0.59295654296875	0.007098388671875	5117.62375407924
0.597381591796875	0.0073211669921875	5117.64587907919
0.601806640625	0.0075439453125	5117.66800407913
0.606231689453125	0.007763671875	5117.69012907907
0.61065673828125	0.0079742431640625	5117.71225407902
0.615081787109375	0.00819091796875	5117.73437907896
0.6195068359375	0.008404541015625	5117.75650407891
0.623931884765625	0.0086151123046875	5117.77862907885
0.62835693359375	0.00882568359375	5117.80075407879
0.632781982421875	0.009033203125	5117.82287907874
0.63720703125	0.0092376708984375	5117.84500407868
0.641632080078125	0.00943603515625	5117.86712907863
0.64605712890625	0.0096343994140625	5117.88925407857
0.650482177734375	0.0098358154296875	5117.91137907852
0.6549072265625	0.0100311279296875	5117.93350407846
0.659332275390625	0.010223388671875	5117.9556290784
0.66375732421875	0.0104156494140625	5117.97775407835
0.668182373046875	0.0106048583984375	5117.99987907829
0.672607421875	0.0107940673828125	5118.02200407824
0.677032470703125	0.0109771728515625	5118.04412907818
0.68145751953125	0.011163330078125	5118.06625407812
0.685882568359375	0.011346435546875	5118.08837907807
0.6903076171875	0.0115264892578125	5118.11050407801
0.694732666015625	0.01170654296875	5118.13262907796
0.69915771484375	0.0118804931640625	5118.1547540779
0.703582763671875	0.0120574951171875	5118.17687907785
0.7080078125	0.0122314453125	5118.19900407779
0.712432861328125	0.0124053955078125	5118.22112907773
0.71685791015625	0.0125732421875	5118.24325407768
0.721282958984375	0.0127410888671875	5118.26537907762
0.7257080078125	0.012908935546875	5118.28750407757
0.730133056640625	0.0130767822265625	5118.30962907751
0.73455810546875	0.013238525390625	5118.33175407745
0.738983154296875	0.0134002685546875	5118.3538790774
0.743408203125	0.0135589599609375	5118.37600407734
0.747833251953125	0.013720703125	5118.39812907729
0.75225830078125	0.01387939453125	5118.42025407723
0.756683349609375	0.0140350341796875	5118.44237907718
0.7611083984375	0.0141845703125	5118.46450407712
0.765533447265625	0.0143341064453125	5118.48662907706
0.76995849609375	0.0144866943359375	5118.50875407701
0.774383544921875	0.01463623046875	5118.53087907695
0.77880859375	0.014788818359375	5118.5530040769
0.783233642578125	0.014935302734375	5118.57512907684
0.78765869140625	0.015081787109375	5118.59725407678
0.792083740234375	0.01522216796875	5118.61937907673
0.7965087890625	0.01536865234375	5118.64150407667
0.800933837890625	0.015509033203125	5118.66362907662
0.80535888671875	0.0156463623046875	5118.68575407656
0.809783935546875	0.01578369140625	5118.7078790765
0.814208984375	0.0159210205078125	5118.73000407645
0.818634033203125	0.0160552978515625	5118.75212907639
0.82305908203125	0.0161895751953125	5118.77425407634
0.827484130859375	0.01632080078125	5118.79637907628
0.8319091796875	0.0164520263671875	5118.81850407623
0.836334228515625	0.016583251953125	5118.84062907617
0.84075927734375	0.01671142578125	5118.86275407611
0.845184326171875	0.0168426513671875	5118.88487907606
0.849609375	0.0169647216796875	5118.907004076
0.854034423828125	0.0170928955078125	5118.92912907595
0.85845947265625	0.0172119140625	5118.95125407589
0.862884521484375	0.017333984375	5118.97337907583
0.8673095703125	0.0174560546875	5118.99550407578
0.871734619140625	0.0175750732421875	5119.01762907572
0.87615966796875	0.0176971435546875	5119.03975407567
0.880584716796875	0.0178131103515625	5119.06187907561
0.885009765625	0.01793212890625	5119.08400407556
0.889434814453125	0.0180450439453125	5119.1061290755
0.89385986328125	0.0181640625	5119.12825407544
0.898284912109375	0.0182769775390625	5119.15037907539
0.9027099609375	0.018389892578125	5119.17250407533
0.907135009765625	0.0185028076171875	5119.19462907528
0.91156005859375	0.01861572265625	5119.21675407522
0.915985107421875	0.0187255859375	5119.23887907516
0.92041015625	0.0188323974609375	5119.26100407511
0.924835205078125	0.0189422607421875	5119.28312907505
0.92926025390625	0.019049072265625	5119.305254075
0.933685302734375	0.019158935546875	5119.32737907494
0.9381103515625	0.0192657470703125	5119.34950407488
0.942535400390625	0.01937255859375	5119.37162907483
0.94696044921875	0.019476318359375	5119.39375407477
0.951385498046875	0.019580078125	5119.41587907472
0.955810546875	0.0196807861328125	5119.43800407466
0.960235595703125	0.0197845458984375	5119.46012907461
0.96466064453125	0.01988525390625	5119.48225407455
0.969085693359375	0.0199859619140625	5119.50437907449
0.9735107421875	0.0200897216796875	5119.52650407444
0.977935791015625	0.0201873779296875	5119.54862907438
0.98236083984375	0.0202880859375	5119.57075407433
0.986785888671875	0.0203826904296875	5119.59287907427
0.9912109375	0.0204833984375	5119.61500407421
0.995635986328125	0.0205780029296875	5119.63712907416
1.00006103515625	0.0206787109375	5119.6592540741
0.995635986328125	0.0200775146484375	5119.68137907405
0.9912109375	0.0195037841796875	5119.70350407399
0.986785888671875	0.018939208984375	5119.72562907394
0.98236083984375	0.01839599609375	5119.74775407388
0.977935791015625	0.0178619384765625	5119.76987907382
0.9735107421875	0.0173370361328125	5119.79200407377
0.969085693359375	0.016827392578125	5119.81412907371
0.96466064453125	0.0163238525390625	5119.83625407366
0.960235595703125	0.015826416015625	5119.8583790736
0.955810546875	0.0153411865234375	5119.88050407354
0.951385498046875	0.014862060546875	5119.90262907349
0.94696044921875	0.0143890380859375	5119.92475407343
0.942535400390625	0.0139312744140625	5119.94687907338
0.9381103515625	0.013470458984375	5119.96900407332
0.933685302734375	0.013018798828125	5119.99112907327
0.92926025390625	0.0125732421875	5120.01325407321
0.924835205078125	0.0121368408203125	5120.03537907315
0.92041015625	0.01170654296875	5120.0575040731
0.915985107421875	0.011279296875	5120.07962907304
0.91156005859375	0.0108642578125	5120.10175407299
0.907135009765625	0.0104461669921875	5120.12387907293
0.9027099609375	0.010040283203125	5120.14600407287
0.898284912109375	0.0096343994140625	5120.16812907282
0.89385986328125	0.0092376708984375	5120.19025407276
0.889434814453125	0.008843994140625	5120.21237907271
0.885009765625	0.0084564208984375	5120.23450407265
0.880584716796875	0.0080718994140625	5120.25662907259
0.87615966796875	0.007696533203125	5120.27875407254
0.871734619140625	0.0073211669921875	5120.30087907248
0.8673095703125	0.006951904296875	5120.32300407243
0.862884521484375	0.0065826416015625	5120.34512907237
0.85845947265625	0.0062255859375	5120.36725407232
0.854034423828125	0.005865478515625	5120.38937907226
0.849609375	0.005511474609375	5120.4115040722
0.845184326171875	0.00516357421875	5120.43362907215
0.84075927734375	0.00481903076171875	5120.45575407209
0.836334228515625	0.00447784423828125	5120.47787907204
0.8319091796875	0.0041400146484375	5120.50000407198
0.827484130859375	0.00380706787109375	5120.52212907192
0.82305908203125	0.0034765625	5120.54425407187
0.818634033203125	0.0031536865234375	5120.56637907181
0.814208984375	0.00282958984375	5120.58850407176
0.809783935546875	0.00250946044921875	5120.6106290717
0.80535888671875	0.00219268798828125	5120.63275407164
0.800933837890625	0.00187896728515625	5120.65487907159
0.7965087890625	0.0015692138671875	5120.67700407153
0.792083740234375	0.00126251220703125	5120.69912907148
0.78765869140625	0.00095916748046875	5120.72125407142
0.783233642578125	0.00065826416015625	5120.74337907137
0.77880859375	0.000361572265625	5120.76550407131
0.774383544921875	6.7138671875E-05	5120.78762907125
0.76995849609375	-0.000224456787109375	5120.8097540712
0.765533447265625	-0.00051239013671875	5120.83187907114
0.7611083984375	-0.00079803466796875	5120.85400407109
0.756683349609375	-0.0010809326171875	5120.87612907103
0.75225830078125	-0.0013604736328125	5120.89825407097
0.747833251953125	-0.0016375732421875	5120.92037907092
0.743408203125	-0.00191192626953125	5120.94250407086
0.738983154296875	-0.00218170166015625	5120.96462907081
0.73455810546875	-0.002449951171875	5120.98675407075
0.730133056640625	-0.002716064453125	5121.0088790707
0.7257080078125	-0.00297943115234375	5121.03100407064
0.721282958984375	-0.003240966796875	5121.05312907058
0.71685791015625	-0.0034991455078125	5121.07525407053
0.712432861328125	-0.00375518798828125	5121.09737907047
0.7080078125	-0.00400848388671875	5121.11950407042
0.703582763671875	-0.0042596435546875	5121.14162907036
0.69915771484375	-0.0045068359375	5121.1637540703
0.694732666015625	-0.00475250244140625	5121.18587907025
0.6903076171875	-0.00499664306640625	5121.20800407019
0.685882568359375	-0.0052374267578125	5121.23012907014
0.68145751953125	-0.005477294921875	5121.25225407008
0.677032470703125	-0.005714111328125	5121.27437907003
0.672607421875	-0.005948486328125	5121.29650406997
0.668182373046875	-0.00617950439453125	5121.31862906991
0.66375732421875	-0.0063873291015625	5121.34075406986
0.659332275390625	-0.0066162109375	5121.3628790698
0.6549072265625	-0.006842041015625	5121.38500406975
0.650482177734375	-0.007061767578125	5121.40712906969
0.64605712890625	-0.0072845458984375	5121.42925406963
0.641632080078125	-0.0075042724609375	5121.45137906958
0.63720703125	-0.007720947265625	5121.47350406952
0.632781982421875	-0.0079315185546875	5121.49562906947
0.62835693359375	-0.0081451416015625	5121.51775406941
0.623931884765625	-0.0083587646484375	5121.53987906935
0.6195068359375	-0.0085693359375	5121.5620040693
0.615081787109375	-0.0087738037109375	5121.58412906924
0.61065673828125	-0.008978271484375	5121.60625406919
0.606231689453125	-0.0091827392578125	5121.62837906913
0.601806640625	-0.009381103515625	5121.65050406908
0.597381591796875	-0.0095794677734375	5121.67262906902
0.59295654296875	-0.00977783203125	5121.69475406896
0.588531494140625	-0.00997314453125	5121.71687906891
0.5841064453125	-0.0101654052734375	5121.73900406885
0.579681396484375	-0.010357666015625	5121.7611290688
0.57525634765625	-0.010546875	5121.78325406874
0.570831298828125	-0.010736083984375	5121.80537906868
0.56640625	-0.0109222412109375	5121.82750406863
0.561981201171875	-0.0111053466796875	5121.84962906857
0.55755615234375	-0.0112884521484375	5121.87175406852
0.553131103515625	-0.0114715576171875	5121.89387906846
0.5487060546875	-0.0116485595703125	5121.91600406841
0.544281005859375	-0.0118255615234375	5121.93812906835
0.53985595703125	-0.0120025634765625	5121.96025406829
0.535430908203125	-0.012176513671875	5121.98237906824
0.531005859375	-0.0123504638671875	5122.00450406818
0.526580810546875	-0.0125213623046875	5122.02662906813
0.52215576171875	-0.012689208984375	5122.04875406807
0.517730712890625	-0.012860107421875	5122.07087906801
0.5133056640625	-0.0130279541015625	5122.09300406796
0.508880615234375	-0.0131927490234375	5122.1151290679
0.50445556640625	-0.0133544921875	5122.13725406785
0.500030517578125	-0.013519287109375	5122.15937906779
0.49560546875	-0.0136810302734375	5122.18150406773
0.491180419921875	-0.0138427734375	5122.20362906768
0.48675537109375	-0.01400146484375	5122.22575406762
0.482330322265625	-0.0141571044921875	5122.24787906757
0.4779052734375	-0.014312744140625	5122.27000406751
0.473480224609375	-0.0144683837890625	5122.29212906746
0.46905517578125	-0.0146209716796875	5122.3142540674
0.464630126953125	-0.0147705078125	5122.33637906734
0.460205078125	-0.014923095703125	5122.35850406729
0.455780029296875	-0.015069580078125	5122.38062906723
0.45135498046875	-0.01522216796875	5122.40275406718
0.446929931640625	-0.01536865234375	5122.42487906712
0.4425048828125	-0.0155120849609375	5122.44700406706
0.438079833984375	-0.015655517578125	5122.46912906701
0.43365478515625	-0.0157958984375	5122.49125406695
0.429229736328125	-0.0159393310546875	5122.5133790669
0.4248046875	-0.0160797119140625	5122.53550406684
0.420379638671875	-0.01622314453125	5122.55762906679
0.41595458984375	-0.0163604736328125	5122.57975406673
0.411529541015625	-0.016497802734375	5122.60187906667
0.4071044921875	-0.0166351318359375	5122.62400406662
0.402679443359375	-0.0167694091796875	5122.64612906656
0.39825439453125	-0.016900634765625	5122.66825406651
0.393829345703125	-0.017034912109375	5122.69037906645
0.389404296875	-0.0171661376953125	5122.71250406639
0.384979248046875	-0.017291259765625	5122.73462906634
0.38055419921875	-0.0174224853515625	5122.75675406628
0.376129150390625	-0.0175506591796875	5122.77887906623
0.3717041015625	-0.0176788330078125	5122.80100406617
0.367279052734375	-0.017803955078125	5122.82312906612
0.36285400390625	-0.01793212890625	5122.84525406606
0.358428955078125	-0.0180511474609375	5122.867379066
0.35400390625	-0.0181793212890625	5122.88950406595
0.349578857421875	-0.01829833984375	5122.91162906589
0.34515380859375	-0.01842041015625	5122.93375406584
0.340728759765625	-0.0185394287109375	5122.95587906578
0.3363037109375	-0.018658447265625	5122.97800406572
0.331878662109375	-0.0187744140625	5123.00012906567
0.32745361328125	-0.0188934326171875	5123.02225406561
0.323028564453125	-0.019012451171875	5123.04437906556
0.318603515625	-0.0191253662109375	5123.0665040655
0.314178466796875	-0.019244384765625	5123.08862906544
0.30975341796875	-0.0193603515625	5123.11075406539
0.305328369140625	-0.0194732666015625	5123.13287906533
0.3009033203125	-0.0195831298828125	5123.15500406528
0.296478271484375	-0.0196990966796875	5123.17712906522
0.29205322265625	-0.019805908203125	5123.19925406517
0.287628173828125	-0.0199188232421875	5123.22137906511
0.283203125	-0.0200286865234375	5123.24350406505
0.278778076171875	-0.0201385498046875	5123.265629065
0.27435302734375	-0.020245361328125	5123.28775406494
0.269927978515625	-0.0203460693359375	5123.30987906489
0.2655029296875	-0.020452880859375	5123.33200406483
0.261077880859375	-0.020556640625	5123.35412906477
0.25665283203125	-0.02066650390625	5123.37625406472
0.252227783203125	-0.020770263671875	5123.39837906466
0.247802734375	-0.0208740234375	5123.42050406461
0.243377685546875	-0.020977783203125	5123.44262906455
0.23895263671875	-0.02108154296875	5123.46475406449
0.234527587890625	-0.02117919921875	5123.48687906444
0.2301025390625	-0.0212799072265625	5123.50900406438
0.225677490234375	-0.021380615234375	5123.53112906433
0.22125244140625	-0.021478271484375	5123.55325406427
0.216827392578125	-0.0215789794921875	5123.57537906422
0.21240234375	-0.0216766357421875	5123.59750406416
0.207977294921875	-0.0217742919921875	5123.6196290641
0.20355224609375	-0.021868896484375	5123.64175406405
0.199127197265625	-0.021966552734375	5123.66387906399
0.1947021484375	-0.0220611572265625	5123.68600406394
0.190277099609375	-0.022161865234375	5123.70812906388
0.18585205078125	-0.02225341796875	5123.73025406382
0.181427001953125	-0.02235107421875	5123.75237906377
0.177001953125	-0.022442626953125	5123.77450406371
0.172576904296875	-0.0225372314453125	5123.79662906366
0.16815185546875	-0.0226287841796875	5123.8187540636
0.163726806640625	-0.02271728515625	5123.84087906355
0.1593017578125	-0.0228118896484375	5123.86300406349
0.154876708984375	-0.022900390625	5123.88512906343
0.15045166015625	-0.022991943359375	5123.90725406338
0.146026611328125	-0.0230804443359375	5123.92937906332
0.1416015625	-0.0231719970703125	5123.95150406327
0.137176513671875	-0.023260498046875	5123.97362906321
0.13275146484375	-0.0233489990234375	5123.99575406315
0.128326416015625	-0.023431396484375	5124.0178790631
0.1239013671875	-0.0235198974609375	5124.04000406304
0.119476318359375	-0.0236053466796875	5124.06212906299
0.11505126953125	-0.0236907958984375	5124.08425406293
0.110626220703125	-0.0237762451171875	5124.10637906288
0.106201171875	-0.0238616943359375	5124.12850406282
0.101776123046875	-0.0239471435546875	5124.15062906276
0.09735107421875	-0.0240264892578125	5124.17275406271
0.092926025390625	-0.0241119384765625	5124.19487906265
0.0885009765625	-0.0241943359375	5124.2170040626
0.084075927734375	-0.0242767333984375	5124.23912906254
0.07965087890625	-0.024359130859375	5124.26125406248
0.075225830078125	-0.0244415283203125	5124.28337906243
0.07080078125	-0.0245208740234375	5124.30550406237
0.066375732421875	-0.0246002197265625	5124.32762906232
0.06195068359375	-0.0246795654296875	5124.34975406226
0.057525634765625	-0.0247589111328125	5124.3718790622
0.0531005859375	-0.0248382568359375	5124.39400406215
0.048675537109375	-0.02491455078125	5124.41612906209
0.04425048828125	-0.0249908447265625	5124.43825406204
0.039825439453125	-0.025067138671875	5124.46037906198
0.035400390625	-0.025146484375	5124.48250406193
0.030975341796875	-0.0252197265625	5124.50462906187
0.02655029296875	-0.0252960205078125	5124.52675406181
0.022125244140625	-0.025372314453125	5124.54887906176
0.0177001953125	-0.0254486083984375	5124.5710040617
0.013275146484375	-0.0255218505859375	5124.59312906165
0.00885009765625	-0.02559814453125	5124.61525406159
0.004425048828125	-0.02567138671875	5124.63737906153
0	-0.0257415771484375	5124.65950406148
0.004425048828125	-0.025115966796875	5124.68162906142
0.00885009765625	-0.0245086669921875	5124.70375406137
0.013275146484375	-0.023919677734375	5124.72587906131
0.0177001953125	-0.0233428955078125	5124.74800406126
0.022125244140625	-0.0227783203125	5124.7701290612
0.02655029296875	-0.0222198486328125	5124.79225406114
0.030975341796875	-0.0216796875	5124.81437906109
0.035400390625	-0.021142578125	5124.83650406103
0.039825439453125	-0.020611572265625	5124.85862906098
0.04425048828125	-0.0200958251953125	5124.88075406092
0.048675537109375	-0.0195831298828125	5124.90287906086
0.0531005859375	-0.01907958984375	5124.92500406081
0.057525634765625	-0.0185821533203125	5124.94712906075
0.06195068359375	-0.0180908203125	5124.9692540607
0.066375732421875	-0.017608642578125	5124.99137906064
0.07080078125	-0.0171356201171875	5125.01350406058
0.075225830078125	-0.0166595458984375	5125.03562906053
0.07965087890625	-0.01619873046875	5125.05775406047
0.084075927734375	-0.0157379150390625	5125.07987906042
0.0885009765625	-0.0152862548828125	5125.10200406036
0.092926025390625	-0.0148406982421875	5125.12412906031
0.09735107421875	-0.014398193359375	5125.14625406025
0.101776123046875	-0.01396484375	5125.16837906019
0.106201171875	-0.013531494140625	5125.19050406014
0.110626220703125	-0.013104248046875	5125.21262906008
0.11505126953125	-0.0126800537109375	5125.23475406003
0.119476318359375	-0.01226806640625	5125.25687905997
0.1239013671875	-0.0118560791015625	5125.27900405991
0.128326416015625	-0.0114471435546875	5125.30112905986
0.13275146484375	-0.0110443115234375	5125.3232540598
0.137176513671875	-0.010650634765625	5125.34537905975
0.1416015625	-0.01025390625	5125.36750405969
0.146026611328125	-0.0098663330078125	5125.38962905963
0.15045166015625	-0.009478759765625	5125.41175405958
0.154876708984375	-0.009100341796875	5125.43387905952
0.1593017578125	-0.008721923828125	5125.45600405947
0.163726806640625	-0.008349609375	5125.47812905941
0.16815185546875	-0.0079803466796875	5125.50025405936
0.172576904296875	-0.0076171875	5125.5223790593
0.177001953125	-0.007257080078125	5125.54450405924
0.181427001953125	-0.0069000244140625	5125.56662905919
0.18585205078125	-0.00654296875	5125.58875405913
0.190277099609375	-0.006195068359375	5125.61087905908
0.1947021484375	-0.00584716796875	5125.63300405902
0.199127197265625	-0.0055023193359375	5125.65512905897
0.20355224609375	-0.00516357421875	5125.67725405891
0.207977294921875	-0.0048284912109375	5125.69937905885
0.21240234375	-0.0044952392578125	5125.7215040588
0.216827392578125	-0.00416656494140625	5125.74362905874
0.22125244140625	-0.00384033203125	5125.76575405869
0.225677490234375	-0.00351715087890625	5125.78787905863
0.2301025390625	-0.00320953369140625	5125.81000405857
0.234527587890625	-0.00289276123046875	5125.83212905852
0.23895263671875	-0.00257781982421875	5125.85425405846
0.243377685546875	-0.002266845703125	5125.87637905841
0.247802734375	-0.00195892333984375	5125.89850405835
0.252227783203125	-0.00165374755859375	5125.92062905829
0.25665283203125	-0.00135162353515625	5125.94275405824
0.261077880859375	-0.00105255126953125	5125.96487905818
0.2655029296875	-0.00075653076171875	5125.98700405813
0.269927978515625	-0.000462860107421875	5126.00912905807
0.27435302734375	-0.000172607421875	5126.03125405802
0.278778076171875	0.00011529541015625	5126.05337905796
0.283203125	0.000400360107421875	5126.0755040579
0.287628173828125	0.00068328857421875	5126.09762905785
0.29205322265625	0.00096282958984375	5126.11975405779
0.296478271484375	0.00123992919921875	5126.14187905774
0.3009033203125	0.001514892578125	5126.16400405768
0.305328369140625	0.00178741455078125	5126.18612905762
0.30975341796875	0.0020574951171875	5126.20825405757
0.314178466796875	0.0023272705078125	5126.23037905751
0.318603515625	0.00259124755859375	5126.25250405746
0.323028564453125	0.0028533935546875	5126.2746290574
0.32745361328125	0.00311309814453125	5126.29675405734
0.331878662109375	0.00336944580078125	5126.31887905729
0.3363037109375	0.003624267578125	5126.34100405723
0.340728759765625	0.003878173828125	5126.36312905718
0.34515380859375	0.0041278076171875	5126.38525405712
0.349578857421875	0.004376220703125	5126.40737905707
0.35400390625	0.00462005615234375	5126.42950405701
0.358428955078125	0.00486358642578125	5126.45162905695
0.36285400390625	0.00510528564453125	5126.4737540569
0.367279052734375	0.00534454345703125	5126.49587905684
0.3717041015625	0.00558135986328125	5126.51800405679
0.376129150390625	0.00581634521484375	5126.54012905673
0.38055419921875	0.00604949951171875	5126.56225405667
0.384979248046875	0.006268310546875	5126.58437905662
0.389404296875	0.0064971923828125	5126.60650405656
0.393829345703125	0.0067230224609375	5126.62862905651
0.39825439453125	0.0069488525390625	5126.65075405645
0.402679443359375	0.0071685791015625	5126.6728790564
0.4071044921875	0.007391357421875	5126.69500405634
0.411529541015625	0.0076080322265625	5126.71712905628
0.41595458984375	0.0078216552734375	5126.73925405623
0.420379638671875	0.0080352783203125	5126.76137905617
0.4248046875	0.0082489013671875	5126.78350405612
0.429229736328125	0.00845947265625	5126.80562905606
0.43365478515625	0.0086669921875	5126.827754056
0.438079833984375	0.00887451171875	5126.84987905595
0.4425048828125	0.0090789794921875	5126.87200405589
0.446929931640625	0.009283447265625	5126.89412905584
0.45135498046875	0.0094818115234375	5126.91625405578
0.455780029296875	0.0096832275390625	5126.93837905572
0.460205078125	0.009881591796875	5126.96050405567
0.464630126953125	0.010076904296875	5126.98262905561
0.46905517578125	0.010272216796875	5127.00475405556
0.473480224609375	0.0104644775390625	5127.0268790555
0.4779052734375	0.01065673828125	5127.04900405545
0.482330322265625	0.010845947265625	5127.07112905539
0.48675537109375	0.011029052734375	5127.09325405533
0.491180419921875	0.01121826171875	5127.11537905528
0.49560546875	0.0114013671875	5127.13750405522
0.500030517578125	0.01158447265625	5127.15962905517
0.50445556640625	0.011767578125	5127.18175405511
0.508880615234375	0.0119476318359375	5127.20387905505
0.5133056640625	0.0121246337890625	5127.226004055
0.517730712890625	0.0123046875	5127.24812905494
0.52215576171875	0.0124786376953125	5127.27025405489
0.526580810546875	0.0126495361328125	5127.29237905483
0.531005859375	0.012823486328125	5127.31450405478
0.535430908203125	0.012994384765625	5127.33662905472
0.53985595703125	0.0131622314453125	5127.35875405466
0.544281005859375	0.013330078125	5127.38087905461
0.5487060546875	0.013494873046875	5127.40300405455
0.553131103515625	0.01365966796875	5127.4251290545
0.55755615234375	0.013824462890625	5127.44725405444
0.561981201171875	0.0139892578125	5127.46937905438
0.56640625	0.0141448974609375	5127.49150405433
0.570831298828125	0.0143096923828125	5127.51362905427
0.57525634765625	0.01446533203125	5127.53575405422
0.579681396484375	0.0146240234375	5127.55787905416
0.5841064453125	0.01478271484375	5127.58000405411
0.588531494140625	0.014935302734375	5127.60212905405
0.59295654296875	0.0150909423828125	5127.62425405399
0.597381591796875	0.015240478515625	5127.64637905394
0.601806640625	0.0153961181640625	5127.66850405388
0.606231689453125	0.015545654296875	5127.69062905383
0.61065673828125	0.015692138671875	5127.71275405377
0.615081787109375	0.015838623046875	5127.73487905371
0.6195068359375	0.015985107421875	5127.75700405366
0.623931884765625	0.0161285400390625	5127.7791290536
0.62835693359375	0.016278076171875	5127.80125405355
0.632781982421875	0.01641845703125	5127.82337905349
0.63720703125	0.0165618896484375	5127.84550405343
0.641632080078125	0.0167022705078125	5127.86762905338
0.64605712890625	0.0168426513671875	5127.88975405332
0.650482177734375	0.01697998046875	5127.91187905327
0.6549072265625	0.0171173095703125	5127.93400405321
0.659332275390625	0.01724853515625	5127.95612905316
0.66375732421875	0.0173828125	5127.9782540531
0.668182373046875	0.0175140380859375	5128.00037905304
0.672607421875	0.017645263671875	5128.02250405299
0.677032470703125	0.0177764892578125	5128.04462905293
0.68145751953125	0.01790771484375	5128.06675405288
0.685882568359375	0.0180389404296875	5128.08887905282
0.6903076171875	0.0181671142578125	5128.11100405276
0.694732666015625	0.018292236328125	5128.13312905271
0.69915771484375	0.01842041015625	5128.15525405265
0.703582763671875	0.0185394287109375	5128.1773790526
0.7080078125	0.01866455078125	5128.19950405254
0.712432861328125	0.0187835693359375	5128.22162905248
0.71685791015625	0.01890869140625	5128.24375405243
0.721282958984375	0.019024658203125	5128.26587905237
0.7257080078125	0.019146728515625	5128.28800405232
0.730133056640625	0.0192626953125	5128.31012905226
0.73455810546875	0.019378662109375	5128.33225405221
0.738983154296875	0.01949462890625	5128.35437905215
0.743408203125	0.0196044921875	5128.37650405209
0.747833251953125	0.0197174072265625	5128.39862905204
0.75225830078125	0.0198272705078125	5128.42075405198
0.756683349609375	0.019940185546875	5128.44287905193
0.7611083984375	0.020050048828125	5128.46500405187
0.765533447265625	0.020159912109375	5128.48712905181
0.76995849609375	0.020269775390625	5128.50925405176
0.774383544921875	0.0203704833984375	5128.5313790517
0.77880859375	0.0204742431640625	5128.55350405165
0.783233642578125	0.0205780029296875	5128.57562905159
0.78765869140625	0.0206817626953125	5128.59775405154
0.792083740234375	0.0207855224609375	5128.61987905148
0.7965087890625	0.0208831787109375	5128.64200405142
0.800933837890625	0.0209869384765625	5128.66412905137
0.80535888671875	0.0210845947265625	5128.68625405131
0.809783935546875	0.0211822509765625	5128.70837905126
0.814208984375	0.0212799072265625	5128.7305040512
0.818634033203125	0.0213714599609375	5128.75262905114
0.82305908203125	0.021466064453125	5128.77475405109
0.827484130859375	0.0215576171875	5128.79687905103
0.8319091796875	0.0216522216796875	5128.81900405098
0.836334228515625	0.0217437744140625	5128.84112905092
0.84075927734375	0.021832275390625	5128.86325405087
0.845184326171875	0.0219207763671875	5128.88537905081
0.849609375	0.0220123291015625	5128.90750405075
0.854034423828125	0.0220977783203125	5128.9296290507
0.85845947265625	0.0221832275390625	5128.95175405064
0.862884521484375	0.022271728515625	5128.97387905059
0.8673095703125	0.0223541259765625	5128.99600405053
0.871734619140625	0.0224395751953125	5129.01812905047
0.87615966796875	0.02252197265625	5129.04025405042
0.880584716796875	0.022607421875	5129.06237905036
0.885009765625	0.0226837158203125	5129.08450405031
0.889434814453125	0.0227630615234375	5129.10662905025
0.89385986328125	0.02283935546875	5129.12875405019
0.898284912109375	0.0229217529296875	5129.15087905014
0.9027099609375	0.022998046875	5129.17300405008
0.907135009765625	0.023077392578125	5129.19512905003
0.91156005859375	0.0231536865234375	5129.21725404997
0.915985107421875	0.02322998046875	5129.23937904992
0.92041015625	0.02330322265625	5129.26150404986
0.924835205078125	0.02337646484375	5129.2836290498
0.92926025390625	0.02344970703125	5129.30575404975
0.933685302734375	0.0235198974609375	5129.32787904969
0.9381103515625	0.0235931396484375	5129.35000404964
0.942535400390625	0.023663330078125	5129.37212904958
0.94696044921875	0.023736572265625	5129.39425404952
0.951385498046875	0.0238037109375	5129.41637904947
0.955810546875	0.0238739013671875	5129.43850404941
0.960235595703125	0.0239410400390625	5129.46062904936
0.96466064453125	0.02401123046875	5129.4827540493
0.969085693359375	0.024078369140625	5129.50487904925
0.9735107421875	0.0241455078125	5129.52700404919
0.977935791015625	0.024212646484375	5129.54912904913
0.98236083984375	0.024273681640625	5129.57125404908
0.986785888671875	0.0243408203125	5129.59337904902
0.9912109375	0.0244049072265625	5129.61550404897
0.995635986328125	0.0244720458984375	5129.63762904891
1.00006103515625	0.0245361328125	5129.65975404885
0.995635986328125	0.0239013671875	5129.6818790488
0.9912109375	0.023291015625	5129.70400404874
0.986785888671875	0.02269287109375	5129.72612904869
0.98236083984375	0.0221099853515625	5129.74825404863
0.977935791015625	0.021539306640625	5129.77037904857
0.9735107421875	0.02098388671875	5129.79250404852
0.969085693359375	0.0204345703125	5129.81462904846
0.96466064453125	0.0198974609375	5129.83675404841
0.960235595703125	0.0193695068359375	5129.85887904835
0.955810546875	0.01884765625	5129.8810040483
0.951385498046875	0.0183319091796875	5129.90312904824
0.94696044921875	0.017828369140625	5129.92525404818
0.942535400390625	0.017327880859375	5129.94737904813
0.9381103515625	0.0168426513671875	5129.96950404807
0.933685302734375	0.016357421875	5129.99162904802
0.92926025390625	0.0158782958984375	5130.01375404796
0.924835205078125	0.015411376953125	5130.0358790479
0.92041015625	0.014947509765625	5130.05800404785
0.915985107421875	0.01448974609375	5130.08012904779
0.91156005859375	0.0140411376953125	5130.10225404774
0.907135009765625	0.0135955810546875	5130.12437904768
0.9027099609375	0.0131561279296875	5130.14650404763
0.898284912109375	0.0127227783203125	5130.16862904757
0.89385986328125	0.0122955322265625	5130.19075404751
0.889434814453125	0.011871337890625	5130.21287904746
0.885009765625	0.0114532470703125	5130.2350040474
0.880584716796875	0.0110382080078125	5130.25712904735
0.87615966796875	0.0106353759765625	5130.27925404729
0.871734619140625	0.0102325439453125	5130.30137904723
0.8673095703125	0.009832763671875	5130.32350404718
0.862884521484375	0.0094390869140625	5130.34562904712
0.85845947265625	0.0090545654296875	5130.36775404707
0.854034423828125	0.0086700439453125	5130.38987904701
0.849609375	0.00828857421875	5130.41200404696
0.845184326171875	0.0079132080078125	5130.4341290469
0.84075927734375	0.0075439453125	5130.45625404684
0.836334228515625	0.007177734375	5130.47837904679
0.8319091796875	0.0068145751953125	5130.50050404673
0.827484130859375	0.0064544677734375	5130.52262904668
0.82305908203125	0.0061004638671875	5130.54475404662
0.818634033203125	0.00574951171875	5130.56687904656
0.814208984375	0.005401611328125	5130.58900404651
0.809783935546875	0.005059814453125	5130.61112904645
0.80535888671875	0.00471954345703125	5130.6332540464
0.800933837890625	0.0043841552734375	5130.65537904634
0.7965087890625	0.00405181884765625	5130.67750404628
0.792083740234375	0.00372314453125	5130.69962904623
0.78765869140625	0.00339813232421875	5130.72175404617
0.783233642578125	0.00308013916015625	5130.74387904612
0.77880859375	0.0027606201171875	5130.76600404606
0.774383544921875	0.002445068359375	5130.78812904601
0.76995849609375	0.00213287353515625	5130.81025404595
0.765533447265625	0.00182373046875	5130.83237904589
0.7611083984375	0.00151763916015625	5130.85450404584
0.756683349609375	0.00121490478515625	5130.87662904578
0.75225830078125	0.00091552734375	5130.89875404573
0.747833251953125	0.00061859130859375	5130.92087904567
0.743408203125	0.00032476806640625	5130.94300404561
0.738983154296875	3.61083984375E-05	5130.96512904556
0.73455810546875	-0.00025189208984375	5130.9872540455
0.730133056640625	-0.0005364990234375	5131.00937904545
0.7257080078125	-0.00081878662109375	5131.03150404539
0.721282958984375	-0.00109771728515625	5131.05362904533
0.71685791015625	-0.00137420654296875	5131.07575404528
0.712432861328125	-0.00164764404296875	5131.09787904522
0.7080078125	-0.0019189453125	5131.12000404517
0.703582763671875	-0.0021868896484375	5131.14212904511
0.69915771484375	-0.00245147705078125	5131.16425404506
0.694732666015625	-0.00271484375	5131.186379045
0.6903076171875	-0.00297515869140625	5131.20850404494
0.685882568359375	-0.00323333740234375	5131.23062904489
0.68145751953125	-0.0034881591796875	5131.25275404483
0.677032470703125	-0.003741455078125	5131.27487904478
0.672607421875	-0.00399169921875	5131.29700404472
0.668182373046875	-0.0042401123046875	5131.31912904466
0.66375732421875	-0.004486083984375	5131.34125404461
0.659332275390625	-0.00472900390625	5131.36337904455
0.6549072265625	-0.0049700927734375	5131.3855040445
0.650482177734375	-0.00520843505859375	5131.40762904444
0.64605712890625	-0.0054449462890625	5131.42975404438
0.641632080078125	-0.00567901611328125	5131.45187904433
0.63720703125	-0.00591094970703125	5131.47400404427
0.632781982421875	-0.00614013671875	5131.49612904422
0.62835693359375	-0.0063446044921875	5131.51825404416
0.623931884765625	-0.006573486328125	5131.54037904411
0.6195068359375	-0.0067962646484375	5131.56250404405
0.615081787109375	-0.0070159912109375	5131.58462904399
0.61065673828125	-0.0072357177734375	5131.60675404394
0.606231689453125	-0.007452392578125	5131.62887904388
0.601806640625	-0.0076690673828125	5131.65100404383
0.597381591796875	-0.0078765869140625	5131.67312904377
0.59295654296875	-0.008087158203125	5131.69525404372
0.588531494140625	-0.0082977294921875	5131.71737904366
0.5841064453125	-0.008502197265625	5131.7395040436
0.579681396484375	-0.0087066650390625	5131.76162904355
0.57525634765625	-0.0089080810546875	5131.78375404349
0.570831298828125	-0.0091094970703125	5131.80587904344
0.56640625	-0.0093109130859375	5131.82800404338
0.561981201171875	-0.009503173828125	5131.85012904332
0.55755615234375	-0.009698486328125	5131.87225404327
0.553131103515625	-0.009893798828125	5131.89437904321
0.5487060546875	-0.0100830078125	5131.91650404316
0.544281005859375	-0.010272216796875	5131.9386290431
0.53985595703125	-0.0104644775390625	5131.96075404304
0.535430908203125	-0.010650634765625	5131.98287904299
0.531005859375	-0.0108367919921875	5132.00500404293
0.526580810546875	-0.0110137939453125	5132.02712904288
0.52215576171875	-0.0111968994140625	5132.04925404282
0.517730712890625	-0.011376953125	5132.07137904277
0.5133056640625	-0.0115570068359375	5132.09350404271
0.508880615234375	-0.01173095703125	5132.11562904265
0.50445556640625	-0.0119049072265625	5132.1377540426
0.500030517578125	-0.012078857421875	5132.15987904254
0.49560546875	-0.0122528076171875	5132.18200404249
0.491180419921875	-0.0124237060546875	5132.20412904243
0.48675537109375	-0.012591552734375	5132.22625404237
0.482330322265625	-0.0127593994140625	5132.24837904232
0.4779052734375	-0.01292724609375	5132.27050404226
0.473480224609375	-0.013092041015625	5132.29262904221
0.46905517578125	-0.0132537841796875	5132.31475404215
0.464630126953125	-0.0134185791015625	5132.3368790421
0.460205078125	-0.013580322265625	5132.35900404204
0.455780029296875	-0.0137420654296875	5132.38112904198
0.45135498046875	-0.013897705078125	5132.40325404193
0.446929931640625	-0.0140533447265625	5132.42537904187
0.4425048828125	-0.0142059326171875	5132.44750404182
0.438079833984375	-0.0143585205078125	5132.46962904176
0.43365478515625	-0.01451416015625	5132.4917540417
0.429229736328125	-0.014666748046875	5132.51387904165
0.4248046875	-0.0148162841796875	5132.53600404159
0.420379638671875	-0.0149627685546875	5132.55812904154
0.41595458984375	-0.0151123046875	5132.58025404148
0.411529541015625	-0.0152587890625	5132.60237904142
0.4071044921875	-0.0154052734375	5132.62450404137
0.402679443359375	-0.0155487060546875	5132.64662904131
0.39825439453125	-0.0156890869140625	5132.66875404126
0.393829345703125	-0.0158294677734375	5132.6908790412
0.389404296875	-0.015972900390625	5132.71300404115
0.384979248046875	-0.01611328125	5132.73512904109
0.38055419921875	-0.0162506103515625	5132.75725404103
0.376129150390625	-0.016387939453125	5132.77937904098
0.3717041015625	-0.0165252685546875	5132.80150404092
0.367279052734375	-0.0166595458984375	5132.82362904087
0.36285400390625	-0.0167938232421875	5132.84575404081
0.358428955078125	-0.0169281005859375	5132.86787904075
0.35400390625	-0.0170562744140625	5132.8900040407
0.349578857421875	-0.0171844482421875	5132.91212904064
0.34515380859375	-0.0173126220703125	5132.93425404059
0.340728759765625	-0.0174407958984375	5132.95637904053
0.3363037109375	-0.0175689697265625	5132.97850404047
0.331878662109375	-0.0176971435546875	5133.00062904042
0.32745361328125	-0.017822265625	5133.02275404036
0.323028564453125	-0.0179473876953125	5133.04487904031
0.318603515625	-0.018072509765625	5133.06700404025
0.314178466796875	-0.0181915283203125	5133.0891290402
0.30975341796875	-0.0183197021484375	5133.11125404014
0.305328369140625	-0.018438720703125	5133.13337904008
0.3009033203125	-0.018560791015625	5133.15550404003
0.296478271484375	-0.0186798095703125	5133.17762903997
0.29205322265625	-0.018798828125	5133.19975403992
0.287628173828125	-0.018914794921875	5133.22187903986
0.283203125	-0.01903076171875	5133.24400403981
0.278778076171875	-0.0191497802734375	5133.26612903975
0.27435302734375	-0.0192626953125	5133.28825403969
0.269927978515625	-0.019378662109375	5133.31037903964
0.2655029296875	-0.0194915771484375	5133.33250403958
0.261077880859375	-0.0196044921875	5133.35462903953
0.25665283203125	-0.01971435546875	5133.37675403947
0.252227783203125	-0.0198272705078125	5133.39887903941
0.247802734375	-0.01993408203125	5133.42100403936
0.243377685546875	-0.0200469970703125	5133.4431290393
0.23895263671875	-0.02015380859375	5133.46525403925
0.234527587890625	-0.020263671875	5133.48737903919
0.2301025390625	-0.020367431640625	5133.50950403913
0.225677490234375	-0.0204742431640625	5133.53162903908
0.22125244140625	-0.0205780029296875	5133.55375403902
0.216827392578125	-0.0206817626953125	5133.57587903897
0.21240234375	-0.02078857421875	5133.59800403891
0.207977294921875	-0.0208892822265625	5133.62012903886
0.20355224609375	-0.02099609375	5133.6422540388
0.199127197265625	-0.0210968017578125	5133.66437903874
0.1947021484375	-0.021197509765625	5133.68650403869
0.190277099609375	-0.021295166015625	5133.70862903863
0.18585205078125	-0.0213958740234375	5133.73075403858
0.181427001953125	-0.02149658203125	5133.75287903852
0.177001953125	-0.0215972900390625	5133.77500403846
0.172576904296875	-0.0216949462890625	5133.79712903841
0.16815185546875	-0.0217926025390625	5133.81925403835
0.163726806640625	-0.02188720703125	5133.8413790383
0.1593017578125	-0.021978759765625	5133.86350403824
0.154876708984375	-0.022076416015625	5133.88562903818
0.15045166015625	-0.022174072265625	5133.90775403813
0.146026611328125	-0.022265625	5133.92987903807
0.1416015625	-0.0223602294921875	5133.95200403802
0.137176513671875	-0.022454833984375	5133.97412903796
0.13275146484375	-0.0225433349609375	5133.99625403791
0.128326416015625	-0.022637939453125	5134.01837903785
0.1239013671875	-0.0227264404296875	5134.04050403779
0.119476318359375	-0.02281494140625	5134.06262903774
0.11505126953125	-0.0229034423828125	5134.08475403768
0.110626220703125	-0.022991943359375	5134.10687903763
0.106201171875	-0.02308349609375	5134.12900403757
0.101776123046875	-0.0231689453125	5134.15112903751
0.09735107421875	-0.0232574462890625	5134.17325403746
0.092926025390625	-0.02333984375	5134.1953790374
0.0885009765625	-0.0234283447265625	5134.21750403735
0.084075927734375	-0.0235107421875	5134.23962903729
0.07965087890625	-0.02359619140625	5134.26175403723
0.075225830078125	-0.023675537109375	5134.28387903718
0.07080078125	-0.0237640380859375	5134.30600403712
0.066375732421875	-0.0238433837890625	5134.32812903707
0.06195068359375	-0.0239227294921875	5134.35025403701
0.057525634765625	-0.0240081787109375	5134.37237903696
0.0531005859375	-0.024090576171875	5134.3945040369
0.048675537109375	-0.024169921875	5134.41662903684
0.04425048828125	-0.0242462158203125	5134.43875403679
0.039825439453125	-0.02432861328125	5134.46087903673
0.035400390625	-0.0244049072265625	5134.48300403668
0.030975341796875	-0.0244842529296875	5134.50512903662
0.02655029296875	-0.024560546875	5134.52725403656
0.022125244140625	-0.024639892578125	5134.54937903651
0.0177001953125	-0.0247161865234375	5134.57150403645
0.013275146484375	-0.02479248046875	5134.5936290364
0.00885009765625	-0.0248687744140625	5134.61575403634
0.004425048828125	-0.0249420166015625	5134.63787903629
0	-0.0250152587890625	5134.66000403623
0.004425048828125	-0.0243927001953125	5134.68212903617
0.00885009765625	-0.0237884521484375	5134.70425403612
0.013275146484375	-0.02320556640625	5134.72637903606
0.0177001953125	-0.0226318359375	5134.74850403601
0.022125244140625	-0.022064208984375	5134.77062903595
0.02655029296875	-0.021514892578125	5134.79275403589
0.030975341796875	-0.0209747314453125	5134.81487903584
0.035400390625	-0.020440673828125	5134.83700403578
0.039825439453125	-0.0199188232421875	5134.85912903573
0.04425048828125	-0.0194000244140625	5134.88125403567
0.048675537109375	-0.0188934326171875	5134.90337903562
0.0531005859375	-0.0183929443359375	5134.92550403556
0.057525634765625	-0.0178985595703125	5134.9476290355
0.06195068359375	-0.0174072265625	5134.96975403545
0.066375732421875	-0.0169342041015625	5134.99187903539
0.07080078125	-0.016455078125	5135.01400403534
0.075225830078125	-0.0159912109375	5135.03612903528
0.07965087890625	-0.0155303955078125	5135.05825403522
0.084075927734375	-0.0150726318359375	5135.08037903517
0.0885009765625	-0.0146240234375	5135.10250403511
0.092926025390625	-0.014178466796875	5135.12462903506
0.09735107421875	-0.0137420654296875	5135.146754035
0.101776123046875	-0.0133087158203125	5135.16887903495
0.106201171875	-0.01287841796875	5135.19100403489
0.110626220703125	-0.012457275390625	5135.21312903483
0.11505126953125	-0.0120391845703125	5135.23525403478
0.119476318359375	-0.011627197265625	5135.25737903472
0.1239013671875	-0.01121826171875	5135.27950403467
0.128326416015625	-0.0108184814453125	5135.30162903461
0.13275146484375	-0.010418701171875	5135.32375403455
0.137176513671875	-0.0100250244140625	5135.3458790345
0.1416015625	-0.0096343994140625	5135.36800403444
0.146026611328125	-0.0092498779296875	5135.39012903439
0.15045166015625	-0.0088653564453125	5135.41225403433
0.154876708984375	-0.008489990234375	5135.43437903427
0.1593017578125	-0.0081146240234375	5135.45650403422
0.163726806640625	-0.0077484130859375	5135.47862903416
0.16815185546875	-0.0073822021484375	5135.50075403411
0.172576904296875	-0.0070220947265625	5135.52287903405
0.177001953125	-0.0066650390625	5135.545004034
0.181427001953125	-0.00631103515625	5135.56712903394
0.18585205078125	-0.0059600830078125	5135.58925403388
0.190277099609375	-0.0056121826171875	5135.61137903383
0.1947021484375	-0.0052703857421875	5135.63350403377
0.199127197265625	-0.0049322509765625	5135.65562903372
0.20355224609375	-0.0045965576171875	5135.67775403366
0.207977294921875	-0.00426422119140625	5135.6998790336
0.21240234375	-0.00393585205078125	5135.72200403355
0.216827392578125	-0.00360992431640625	5135.74412903349
0.22125244140625	-0.00329986572265625	5135.76625403344
0.225677490234375	-0.00297943115234375	5135.78837903338
0.2301025390625	-0.0026629638671875	5135.81050403332
0.234527587890625	-0.002349853515625	5135.83262903327
0.23895263671875	-0.0020391845703125	5135.85475403321
0.243377685546875	-0.00173187255859375	5135.87687903316
0.247802734375	-0.00142730712890625	5135.8990040331
0.252227783203125	-0.0011260986328125	5135.92112903305
0.25665283203125	-0.00082794189453125	5135.94325403299
0.261077880859375	-0.00053253173828125	5135.96537903293
0.2655029296875	-0.000239959716796875	5135.98750403288
0.269927978515625	4.9835205078125E-05	5136.00962903282
0.27435302734375	0.000336456298828125	5136.03175403277
0.278778076171875	0.00062103271484375	5136.05387903271
0.283203125	0.00090240478515625	5136.07600403265
0.287628173828125	0.00118133544921875	5136.0981290326
0.29205322265625	0.0014581298828125	5136.12025403254
0.296478271484375	0.0017315673828125	5136.14237903249
0.3009033203125	0.00200347900390625	5136.16450403243
0.305328369140625	0.002271728515625	5136.18662903238
0.30975341796875	0.00253753662109375	5136.20875403232
0.314178466796875	0.002803955078125	5136.23087903226
0.318603515625	0.0030645751953125	5136.25300403221
0.323028564453125	0.00332244873046875	5136.27512903215
0.32745361328125	0.00357879638671875	5136.2972540321
0.331878662109375	0.00383331298828125	5136.31937903204
0.3363037109375	0.00408538818359375	5136.34150403198
0.340728759765625	0.0043341064453125	5136.36362903193
0.34515380859375	0.00458099365234375	5136.38575403187
0.349578857421875	0.004825439453125	5136.40787903182
0.35400390625	0.0050665283203125	5136.43000403176
0.358428955078125	0.00530670166015625	5136.45212903171
0.36285400390625	0.0055450439453125	5136.47425403165
0.367279052734375	0.00578125	5136.49637903159
0.3717041015625	0.0060150146484375	5136.51850403154
0.376129150390625	0.00623779296875	5136.54062903148
0.38055419921875	0.0064666748046875	5136.56275403143
0.384979248046875	0.0066925048828125	5136.58487903137
0.389404296875	0.0069183349609375	5136.60700403131
0.393829345703125	0.00714111328125	5136.62912903126
0.39825439453125	0.0073638916015625	5136.6512540312
0.402679443359375	0.0075836181640625	5136.67337903115
0.4071044921875	0.00780029296875	5136.69550403109
0.411529541015625	0.0080108642578125	5136.71762903103
0.41595458984375	0.0082244873046875	5136.73975403098
0.420379638671875	0.0084381103515625	5136.76187903092
0.4248046875	0.0086456298828125	5136.78400403087
0.429229736328125	0.0088531494140625	5136.80612903081
0.43365478515625	0.0090606689453125	5136.82825403076
0.438079833984375	0.0092620849609375	5136.8503790307
0.4425048828125	0.0094635009765625	5136.87250403064
0.446929931640625	0.0096649169921875	5136.89462903059
0.45135498046875	0.00986328125	5136.91675403053
0.455780029296875	0.0100616455078125	5136.93887903048
0.460205078125	0.0102569580078125	5136.96100403042
0.464630126953125	0.01044921875	5136.98312903036
0.46905517578125	0.0106414794921875	5137.00525403031
0.473480224609375	0.0108306884765625	5137.02737903025
0.4779052734375	0.011016845703125	5137.0495040302
0.482330322265625	0.0112060546875	5137.07162903014
0.48675537109375	0.01138916015625	5137.09375403008
0.491180419921875	0.0115753173828125	5137.11587903003
0.49560546875	0.0117523193359375	5137.13800402997
0.500030517578125	0.0119354248046875	5137.16012902992
0.50445556640625	0.0121124267578125	5137.18225402986
0.508880615234375	0.01229248046875	5137.20437902981
0.5133056640625	0.0124664306640625	5137.22650402975
0.517730712890625	0.012640380859375	5137.24862902969
0.52215576171875	0.0128143310546875	5137.27075402964
0.526580810546875	0.0129852294921875	5137.29287902958
0.531005859375	0.0131561279296875	5137.31500402953
0.535430908203125	0.013323974609375	5137.33712902947
0.53985595703125	0.0134918212890625	5137.35925402941
0.544281005859375	0.013653564453125	5137.38137902936
0.5487060546875	0.0138214111328125	5137.4035040293
0.553131103515625	0.013983154296875	5137.42562902925
0.55755615234375	0.014141845703125	5137.44775402919
0.561981201171875	0.014300537109375	5137.46987902913
0.56640625	0.014459228515625	5137.49200402908
0.570831298828125	0.014617919921875	5137.51412902902
0.57525634765625	0.014776611328125	5137.53625402897
0.579681396484375	0.0149322509765625	5137.55837902891
0.5841064453125	0.015087890625	5137.58050402886
0.588531494140625	0.015240478515625	5137.6026290288
0.59295654296875	0.0153900146484375	5137.62475402874
0.597381591796875	0.0155426025390625	5137.64687902869
0.601806640625	0.0156890869140625	5137.66900402863
0.606231689453125	0.0158355712890625	5137.69112902858
0.61065673828125	0.0159820556640625	5137.71325402852
0.615081787109375	0.0161285400390625	5137.73537902847
0.6195068359375	0.01627197265625	5137.75750402841
0.623931884765625	0.01641845703125	5137.77962902835
0.62835693359375	0.0165618896484375	5137.8017540283
0.632781982421875	0.016705322265625	5137.82387902824
0.63720703125	0.0168426513671875	5137.84600402819
0.641632080078125	0.01697998046875	5137.86812902813
0.64605712890625	0.0171173095703125	5137.89025402807
0.650482177734375	0.01724853515625	5137.91237902802
0.6549072265625	0.0173828125	5137.93450402796
0.659332275390625	0.0175140380859375	5137.95662902791
0.66375732421875	0.0176483154296875	5137.97875402785
0.668182373046875	0.017779541015625	5138.0008790278
0.672607421875	0.017913818359375	5138.02300402774
0.677032470703125	0.0180389404296875	5138.04512902768
0.68145751953125	0.0181671142578125	5138.06725402763
0.685882568359375	0.018292236328125	5138.08937902757
0.6903076171875	0.0184173583984375	5138.11150402752
0.694732666015625	0.0185455322265625	5138.13362902746
0.69915771484375	0.0186676025390625	5138.1557540274
0.703582763671875	0.0187896728515625	5138.17787902735
0.7080078125	0.0189117431640625	5138.20000402729
0.712432861328125	0.01903076171875	5138.22212902724
0.71685791015625	0.0191497802734375	5138.24425402718
0.721282958984375	0.019268798828125	5138.26637902712
0.7257080078125	0.0193817138671875	5138.28850402707
0.730133056640625	0.0194976806640625	5138.31062902701
0.73455810546875	0.019610595703125	5138.33275402696
0.738983154296875	0.0197265625	5138.3548790269
0.743408203125	0.01983642578125	5138.37700402685
0.747833251953125	0.0199462890625	5138.39912902679
0.75225830078125	0.0200592041015625	5138.42125402673
0.756683349609375	0.020166015625	5138.44337902668
0.7611083984375	0.02027587890625	5138.46550402662
0.765533447265625	0.0203765869140625	5138.48762902657
0.76995849609375	0.0204833984375	5138.50975402651
0.774383544921875	0.020587158203125	5138.53187902645
0.77880859375	0.02069091796875	5138.5540040264
0.783233642578125	0.020794677734375	5138.57612902634
0.78765869140625	0.0208953857421875	5138.59825402629
0.792083740234375	0.02099609375	5138.62037902623
0.7965087890625	0.0210968017578125	5138.64250402617
0.800933837890625	0.0211944580078125	5138.66462902612
0.80535888671875	0.0212890625	5138.68675402606
0.809783935546875	0.0213897705078125	5138.70887902601
0.814208984375	0.0214813232421875	5138.73100402595
0.818634033203125	0.021575927734375	5138.7531290259
0.82305908203125	0.0216705322265625	5138.77525402584
0.827484130859375	0.021759033203125	5138.79737902578
0.8319091796875	0.0218505859375	5138.81950402573
0.836334228515625	0.0219390869140625	5138.84162902567
0.84075927734375	0.0220245361328125	5138.86375402562
0.845184326171875	0.0221160888671875	5138.88587902556
0.849609375	0.02220458984375	5138.9080040255
0.854034423828125	0.0222900390625	5138.93012902545
0.85845947265625	0.0223724365234375	5138.95225402539
0.862884521484375	0.022454833984375	5138.97437902534
0.8673095703125	0.022540283203125	5138.99650402528
0.871734619140625	0.02261962890625	5139.01862902522
0.87615966796875	0.022705078125	5139.04075402517
0.880584716796875	0.0227813720703125	5139.06287902511
0.885009765625	0.02286376953125	5139.08500402506
0.889434814453125	0.0229400634765625	5139.107129025
0.89385986328125	0.0230194091796875	5139.12925402495
0.898284912109375	0.023095703125	5139.15137902489
0.9027099609375	0.0231719970703125	5139.17350402483
0.907135009765625	0.023248291015625	5139.19562902478
0.91156005859375	0.023321533203125	5139.21775402472
0.915985107421875	0.023394775390625	5139.23987902467
0.92041015625	0.0234649658203125	5139.26200402461
0.924835205078125	0.0235382080078125	5139.28412902456
0.92926025390625	0.0236083984375	5139.3062540245
0.933685302734375	0.023681640625	5139.32837902444
0.9381103515625	0.0237518310546875	5139.35050402439
0.942535400390625	0.023822021484375	5139.37262902433
0.94696044921875	0.0238922119140625	5139.39475402428
0.951385498046875	0.02396240234375	5139.41687902422
0.955810546875	0.024029541015625	5139.43900402416
0.960235595703125	0.0240966796875	5139.46112902411
0.96466064453125	0.0241668701171875	5139.48325402405
0.969085693359375	0.02423095703125	5139.505379024
0.9735107421875	0.024298095703125	5139.52750402394
0.977935791015625	0.024359130859375	5139.54962902388
0.98236083984375	0.0244293212890625	5139.57175402383
0.986785888671875	0.0244903564453125	5139.59387902377
0.9912109375	0.0245574951171875	5139.61600402372
0.995635986328125	0.0246185302734375	5139.63812902366
1.00006103515625	0.0246856689453125	5139.66025402361
0.995635986328125	0.0240478515625	5139.68237902355
0.9912109375	0.0234344482421875	5139.70450402349
0.986785888671875	0.0228363037109375	5139.72662902344
0.98236083984375	0.02225341796875	5139.74875402338
0.977935791015625	0.0216827392578125	5139.77087902333
0.9735107421875	0.0211212158203125	5139.79300402327
0.969085693359375	0.020574951171875	5139.81512902321
0.96466064453125	0.020037841796875	5139.83725402316
0.960235595703125	0.0195068359375	5139.8593790231
0.955810546875	0.01898193359375	5139.88150402305
0.951385498046875	0.01846923828125	5139.90362902299
0.94696044921875	0.017962646484375	5139.92575402293
0.942535400390625	0.017462158203125	5139.94787902288
0.9381103515625	0.016973876953125	5139.97000402282
0.933685302734375	0.016485595703125	5139.99212902277
0.92926025390625	0.016009521484375	5140.01425402271
0.924835205078125	0.01553955078125	5140.03637902266
0.92041015625	0.01507568359375	5140.0585040226
0.915985107421875	0.014617919921875	5140.08062902254
0.91156005859375	0.014166259765625	5140.10275402249
0.907135009765625	0.013720703125	5140.12487902243
0.9027099609375	0.0132843017578125	5140.14700402238
0.898284912109375	0.012847900390625	5140.16912902232
0.89385986328125	0.012420654296875	5140.19125402226
0.889434814453125	0.011993408203125	5140.21337902221
0.885009765625	0.011578369140625	5140.23550402215
0.880584716796875	0.011163330078125	5140.2576290221
0.87615966796875	0.0107574462890625	5140.27975402204
0.871734619140625	0.0103515625	5140.30187902198
0.8673095703125	0.009954833984375	5140.32400402193
0.862884521484375	0.0095611572265625	5140.34612902187
0.85845947265625	0.009173583984375	5140.36825402182
0.854034423828125	0.0087890625	5140.39037902176
0.849609375	0.0084075927734375	5140.41250402171
0.845184326171875	0.0080322265625	5140.43462902165
0.84075927734375	0.007666015625	5140.45675402159
0.836334228515625	0.0072967529296875	5140.47887902154
0.8319091796875	0.00693359375	5140.50100402148
0.827484130859375	0.006573486328125	5140.52312902143
0.82305908203125	0.006219482421875	5140.54525402137
0.818634033203125	0.0058685302734375	5140.56737902131
0.814208984375	0.0055206298828125	5140.58950402126
0.809783935546875	0.00517578125	5140.6116290212
0.80535888671875	0.00483642578125	5140.63375402115
0.800933837890625	0.0045001220703125	5140.65587902109
0.7965087890625	0.00416778564453125	5140.67800402104
0.792083740234375	0.0038385009765625	5140.70012902098
0.78765869140625	0.00351348876953125	5140.72225402092
0.783233642578125	0.0031951904296875	5140.74437902087
0.77880859375	0.0028753662109375	5140.76650402081
0.774383544921875	0.00255950927734375	5140.78862902076
0.76995849609375	0.0022467041015625	5140.8107540207
0.765533447265625	0.00193756103515625	5140.83287902065
0.7611083984375	0.001630859375	5140.85500402059
0.756683349609375	0.00132781982421875	5140.87712902053
0.75225830078125	0.00102752685546875	5140.89925402048
0.747833251953125	0.000731201171875	5140.92137902042
0.743408203125	0.0004364013671875	5140.94350402037
0.738983154296875	0.00014752197265625	5140.96562902031
0.73455810546875	-0.000140869140625	5140.98775402025
0.730133056640625	-0.000426025390625	5141.0098790202
0.7257080078125	-0.0007086181640625	5141.03200402014
0.721282958984375	-0.000987548828125	5141.05412902009
0.71685791015625	-0.00126434326171875	5141.07625402003
0.712432861328125	-0.00153839111328125	5141.09837901997
0.7080078125	-0.00180938720703125	5141.12050401992
0.703582763671875	-0.00207794189453125	5141.14262901986
0.69915771484375	-0.00234344482421875	5141.16475401981
0.694732666015625	-0.00260650634765625	5141.18687901975
0.6903076171875	-0.00286773681640625	5141.2090040197
0.685882568359375	-0.003126220703125	5141.23112901964
0.68145751953125	-0.003382568359375	5141.25325401958
0.677032470703125	-0.00363525390625	5141.27537901953
0.672607421875	-0.0038861083984375	5141.29750401947
0.668182373046875	-0.004134521484375	5141.31962901942
0.66375732421875	-0.00438018798828125	5141.34175401936
0.659332275390625	-0.00462371826171875	5141.3638790193
0.6549072265625	-0.00486480712890625	5141.38600401925
0.650482177734375	-0.00510406494140625	5141.40812901919
0.64605712890625	-0.005340576171875	5141.43025401914
0.641632080078125	-0.005574951171875	5141.45237901908
0.63720703125	-0.005806884765625	5141.47450401902
0.632781982421875	-0.00603729248046875	5141.49662901897
0.62835693359375	-0.006243896484375	5141.51875401891
0.623931884765625	-0.0064727783203125	5141.54087901886
0.6195068359375	-0.006695556640625	5141.5630040188
0.615081787109375	-0.006915283203125	5141.58512901875
0.61065673828125	-0.007135009765625	5141.60725401869
0.606231689453125	-0.0073516845703125	5141.62937901863
0.601806640625	-0.0075653076171875	5141.65150401858
0.597381591796875	-0.0077789306640625	5141.67362901852
0.59295654296875	-0.0079864501953125	5141.69575401847
0.588531494140625	-0.008197021484375	5141.71787901841
0.5841064453125	-0.0084014892578125	5141.74000401835
0.579681396484375	-0.00860595703125	5141.7621290183
0.57525634765625	-0.008807373046875	5141.78425401824
0.570831298828125	-0.0090087890625	5141.80637901819
0.56640625	-0.009210205078125	5141.82850401813
0.561981201171875	-0.009405517578125	5141.85062901807
0.55755615234375	-0.009600830078125	5141.87275401802
0.553131103515625	-0.009796142578125	5141.89487901796
0.5487060546875	-0.0099884033203125	5141.91700401791
0.544281005859375	-0.010174560546875	5141.93912901785
0.53985595703125	-0.01036376953125	5141.9612540178
0.535430908203125	-0.010552978515625	5141.98337901774
0.531005859375	-0.0107391357421875	5142.00550401768
0.526580810546875	-0.0109222412109375	5142.02762901763
0.52215576171875	-0.011102294921875	5142.04975401757
0.517730712890625	-0.0112823486328125	5142.07187901752
0.5133056640625	-0.0114593505859375	5142.09400401746
0.508880615234375	-0.0116363525390625	5142.11612901741
0.50445556640625	-0.011810302734375	5142.13825401735
0.500030517578125	-0.0119842529296875	5142.16037901729
0.49560546875	-0.012158203125	5142.18250401724
0.491180419921875	-0.0123291015625	5142.20462901718
0.48675537109375	-0.0124969482421875	5142.22675401713
0.482330322265625	-0.012664794921875	5142.24887901707
0.4779052734375	-0.0128326416015625	5142.27100401701
0.473480224609375	-0.012994384765625	5142.29312901696
0.46905517578125	-0.0131591796875	5142.3152540169
0.464630126953125	-0.01331787109375	5142.33737901685
0.460205078125	-0.0134796142578125	5142.35950401679
0.455780029296875	-0.013641357421875	5142.38162901673
0.45135498046875	-0.013800048828125	5142.40375401668
0.446929931640625	-0.013958740234375	5142.42587901662
0.4425048828125	-0.0141082763671875	5142.44800401657
0.438079833984375	-0.014263916015625	5142.47012901651
0.43365478515625	-0.01441650390625	5142.49225401646
0.429229736328125	-0.014569091796875	5142.5143790164
0.4248046875	-0.0147186279296875	5142.53650401634
0.420379638671875	-0.0148681640625	5142.55862901629
0.41595458984375	-0.0150177001953125	5142.58075401623
0.411529541015625	-0.0151641845703125	5142.60287901618
0.4071044921875	-0.0153076171875	5142.62500401612
0.402679443359375	-0.0154541015625	5142.64712901606
0.39825439453125	-0.0155975341796875	5142.66925401601
0.393829345703125	-0.01573486328125	5142.69137901595
0.389404296875	-0.015875244140625	5142.7135040159
0.384979248046875	-0.016015625	5142.73562901584
0.38055419921875	-0.016156005859375	5142.75775401578
0.376129150390625	-0.0162933349609375	5142.77987901573
0.3717041015625	-0.0164306640625	5142.80200401567
0.367279052734375	-0.0165679931640625	5142.82412901562
0.36285400390625	-0.0167022705078125	5142.84625401556
0.358428955078125	-0.01683349609375	5142.86837901551
0.35400390625	-0.0169677734375	5142.89050401545
0.349578857421875	-0.017095947265625	5142.91262901539
0.34515380859375	-0.0172210693359375	5142.93475401534
0.340728759765625	-0.017352294921875	5142.95687901528
0.3363037109375	-0.01748046875	5142.97900401523
0.331878662109375	-0.0176055908203125	5143.00112901517
0.32745361328125	-0.017730712890625	5143.02325401511
0.323028564453125	-0.0178558349609375	5143.04537901506
0.318603515625	-0.0179779052734375	5143.067504015
0.314178466796875	-0.0180999755859375	5143.08962901495
0.30975341796875	-0.01822509765625	5143.11175401489
0.305328369140625	-0.0183502197265625	5143.13387901483
0.3009033203125	-0.0184661865234375	5143.15600401478
0.296478271484375	-0.0185882568359375	5143.17812901472
0.29205322265625	-0.018707275390625	5143.20025401467
0.287628173828125	-0.0188232421875	5143.22237901461
0.283203125	-0.018939208984375	5143.24450401456
0.278778076171875	-0.01905517578125	5143.2666290145
0.27435302734375	-0.019171142578125	5143.28875401444
0.269927978515625	-0.0192840576171875	5143.31087901439
0.2655029296875	-0.0194000244140625	5143.33300401433
0.261077880859375	-0.0195098876953125	5143.35512901428
0.25665283203125	-0.019622802734375	5143.37725401422
0.252227783203125	-0.0197357177734375	5143.39937901416
0.247802734375	-0.0198455810546875	5143.42150401411
0.243377685546875	-0.0199554443359375	5143.44362901405
0.23895263671875	-0.0200653076171875	5143.465754014
0.234527587890625	-0.020172119140625	5143.48787901394
0.2301025390625	-0.0202789306640625	5143.51000401389
0.225677490234375	-0.020379638671875	5143.53212901383
0.22125244140625	-0.0204864501953125	5143.55425401377
0.216827392578125	-0.02059326171875	5143.57637901372
0.21240234375	-0.0206939697265625	5143.59850401366
0.207977294921875	-0.0208038330078125	5143.62062901361
0.20355224609375	-0.020904541015625	5143.64275401355
0.199127197265625	-0.0210052490234375	5143.6648790135
0.1947021484375	-0.02110595703125	5143.68700401344
0.190277099609375	-0.0212066650390625	5143.70912901338
0.18585205078125	-0.021307373046875	5143.73125401333
0.181427001953125	-0.021405029296875	5143.75337901327
0.177001953125	-0.0215057373046875	5143.77550401322
0.172576904296875	-0.0216033935546875	5143.79762901316
0.16815185546875	-0.0217010498046875	5143.8197540131
0.163726806640625	-0.021795654296875	5143.84187901305
0.1593017578125	-0.0218902587890625	5143.86400401299
0.154876708984375	-0.02198486328125	5143.88612901294
0.15045166015625	-0.02208251953125	5143.90825401288
0.146026611328125	-0.0221710205078125	5143.93037901282
0.1416015625	-0.022265625	5143.95250401277
0.137176513671875	-0.022357177734375	5143.97462901271
0.13275146484375	-0.0224517822265625	5143.99675401266
0.128326416015625	-0.0225433349609375	5144.0188790126
0.1239013671875	-0.0226318359375	5144.04100401255
0.119476318359375	-0.022723388671875	5144.06312901249
0.11505126953125	-0.022808837890625	5144.08525401243
0.110626220703125	-0.022900390625	5144.10737901238
0.106201171875	-0.02298583984375	5144.12950401232
0.101776123046875	-0.023077392578125	5144.15162901227
0.09735107421875	-0.0231597900390625	5144.17375401221
0.092926025390625	-0.023248291015625	5144.19587901215
0.0885009765625	-0.0233306884765625	5144.2180040121
0.084075927734375	-0.0234161376953125	5144.24012901204
0.07965087890625	-0.02349853515625	5144.26225401199
0.075225830078125	-0.023577880859375	5144.28437901193
0.07080078125	-0.0236663818359375	5144.30650401187
0.066375732421875	-0.0237457275390625	5144.32862901182
0.06195068359375	-0.0238311767578125	5144.35075401176
0.057525634765625	-0.0239105224609375	5144.37287901171
0.0531005859375	-0.0239898681640625	5144.39500401165
0.048675537109375	-0.0240692138671875	5144.4171290116
0.04425048828125	-0.024151611328125	5144.43925401154
0.039825439453125	-0.0242279052734375	5144.46137901148
0.035400390625	-0.0243072509765625	5144.48350401143
0.030975341796875	-0.024383544921875	5144.50562901137
0.02655029296875	-0.0244598388671875	5144.52775401132
0.022125244140625	-0.0245391845703125	5144.54987901126
0.0177001953125	-0.024615478515625	5144.5720040112
0.013275146484375	-0.0246917724609375	5144.59412901115
0.00885009765625	-0.0247650146484375	5144.61625401109
0.004425048828125	-0.02484130859375	5144.63837901104
0	-0.02491455078125	5144.66050401098
0.004425048828125	-0.0242919921875	5144.68262901092
0.00885009765625	-0.023687744140625	5144.70475401087
0.013275146484375	-0.0231048583984375	5144.72687901081
0.0177001953125	-0.0225250244140625	5144.74900401076
0.022125244140625	-0.0219635009765625	5144.7711290107
0.02655029296875	-0.0214141845703125	5144.79325401065
0.030975341796875	-0.0208709716796875	5144.81537901059
0.035400390625	-0.0203369140625	5144.83750401053
0.039825439453125	-0.01981201171875	5144.85962901048
0.04425048828125	-0.01929931640625	5144.88175401042
0.048675537109375	-0.0187896728515625	5144.90387901037
0.0531005859375	-0.0182891845703125	5144.92600401031
0.057525634765625	-0.0177947998046875	5144.94812901025
0.06195068359375	-0.0173065185546875	5144.9702540102
0.066375732421875	-0.016827392578125	5144.99237901014
0.07080078125	-0.0163543701171875	5145.01450401009
0.075225830078125	-0.015887451171875	5145.03662901003
0.07965087890625	-0.0154266357421875	5145.05875400998
0.084075927734375	-0.014971923828125	5145.08087900992
0.0885009765625	-0.014520263671875	5145.10300400986
0.092926025390625	-0.01407470703125	5145.12512900981
0.09735107421875	-0.0136383056640625	5145.14725400975
0.101776123046875	-0.0132080078125	5145.1693790097
0.106201171875	-0.0127777099609375	5145.19150400964
0.110626220703125	-0.0123565673828125	5145.21362900958
0.11505126953125	-0.0119384765625	5145.23575400953
0.119476318359375	-0.011529541015625	5145.25787900947
0.1239013671875	-0.0111175537109375	5145.28000400942
0.128326416015625	-0.0107177734375	5145.30212900936
0.13275146484375	-0.0103179931640625	5145.32425400931
0.137176513671875	-0.00992431640625	5145.34637900925
0.1416015625	-0.00953369140625	5145.36850400919
0.146026611328125	-0.009149169921875	5145.39062900914
0.15045166015625	-0.0087677001953125	5145.41275400908
0.154876708984375	-0.008392333984375	5145.43487900903
0.1593017578125	-0.0080169677734375	5145.45700400897
0.163726806640625	-0.00765380859375	5145.47912900891
0.16815185546875	-0.00728759765625	5145.50125400886
0.172576904296875	-0.0069244384765625	5145.5233790088
0.177001953125	-0.0065673828125	5145.54550400875
0.181427001953125	-0.00621337890625	5145.56762900869
0.18585205078125	-0.005865478515625	5145.58975400863
0.190277099609375	-0.005517578125	5145.61187900858
0.1947021484375	-0.00517578125	5145.63400400852
0.199127197265625	-0.00483856201171875	5145.65612900847
0.20355224609375	-0.00450286865234375	5145.67825400841
0.207977294921875	-0.004171142578125	5145.70037900836
0.21240234375	-0.00384307861328125	5145.7225040083
0.216827392578125	-0.00351776123046875	5145.74462900824
0.22125244140625	-0.0032073974609375	5145.76675400819
0.225677490234375	-0.00288818359375	5145.78887900813
0.2301025390625	-0.0025714111328125	5145.81100400808
0.234527587890625	-0.00225982666015625	5145.83312900802
0.23895263671875	-0.00194915771484375	5145.85525400796
0.243377685546875	-0.00164215087890625	5145.87737900791
0.247802734375	-0.00133880615234375	5145.89950400785
0.252227783203125	-0.00103790283203125	5145.9216290078
0.25665283203125	-0.0007403564453125	5145.94375400774
0.261077880859375	-0.000445037841796875	5145.96587900768
0.2655029296875	-0.000153167724609375	5145.98800400763
0.269927978515625	0.000136138916015625	5146.01012900757
0.27435302734375	0.000422088623046875	5146.03225400752
0.278778076171875	0.0007061767578125	5146.05437900746
0.283203125	0.0009869384765625	5146.07650400741
0.287628173828125	0.00126556396484375	5146.09862900735
0.29205322265625	0.00154205322265625	5146.12075400729
0.296478271484375	0.00181549072265625	5146.14287900724
0.3009033203125	0.00208587646484375	5146.16500400718
0.305328369140625	0.00235443115234375	5146.18712900713
0.30975341796875	0.00261962890625	5146.20925400707
0.314178466796875	0.0028851318359375	5146.23137900701
0.318603515625	0.0031451416015625	5146.25350400696
0.323028564453125	0.0034027099609375	5146.2756290069
0.32745361328125	0.003658447265625	5146.29775400685
0.331878662109375	0.00391265869140625	5146.31987900679
0.3363037109375	0.00416351318359375	5146.34200400674
0.340728759765625	0.00441314697265625	5146.36412900668
0.34515380859375	0.00465850830078125	5146.38625400662
0.349578857421875	0.00490264892578125	5146.40837900657
0.35400390625	0.0051434326171875	5146.43050400651
0.358428955078125	0.00538299560546875	5146.45262900646
0.36285400390625	0.00562103271484375	5146.4747540064
0.367279052734375	0.0058563232421875	5146.49687900634
0.3717041015625	0.0060894775390625	5146.51900400629
0.376129150390625	0.0063079833984375	5146.54112900623
0.38055419921875	0.0065399169921875	5146.56325400618
0.384979248046875	0.0067657470703125	5146.58537900612
0.389404296875	0.0069915771484375	5146.60750400607
0.393829345703125	0.0072113037109375	5146.62962900601
0.39825439453125	0.00743408203125	5146.65175400595
0.402679443359375	0.0076507568359375	5146.6738790059
0.4071044921875	0.0078643798828125	5146.69600400584
0.411529541015625	0.0080810546875	5146.71812900579
0.41595458984375	0.008294677734375	5146.74025400573
0.420379638671875	0.0085052490234375	5146.76237900567
0.4248046875	0.0087127685546875	5146.78450400562
0.429229736328125	0.0089202880859375	5146.80662900556
0.43365478515625	0.009124755859375	5146.82875400551
0.438079833984375	0.0093292236328125	5146.85087900545
0.4425048828125	0.009527587890625	5146.8730040054
0.446929931640625	0.00972900390625	5146.89512900534
0.45135498046875	0.0099273681640625	5146.91725400528
0.455780029296875	0.010125732421875	5146.93937900523
0.460205078125	0.0103179931640625	5146.96150400517
0.464630126953125	0.01051025390625	5146.98362900512
0.46905517578125	0.0107025146484375	5147.00575400506
0.473480224609375	0.0108917236328125	5147.027879005
0.4779052734375	0.011077880859375	5147.05000400495
0.482330322265625	0.0112640380859375	5147.07212900489
0.48675537109375	0.0114501953125	5147.09425400484
0.491180419921875	0.01163330078125	5147.11637900478
0.49560546875	0.0118133544921875	5147.13850400472
0.500030517578125	0.011993408203125	5147.16062900467
0.50445556640625	0.0121734619140625	5147.18275400461
0.508880615234375	0.012347412109375	5147.20487900456
0.5133056640625	0.0125213623046875	5147.2270040045
0.517730712890625	0.0126953125	5147.24912900445
0.52215576171875	0.0128692626953125	5147.27125400439
0.526580810546875	0.0130401611328125	5147.29337900433
0.531005859375	0.0132080078125	5147.31550400428
0.535430908203125	0.0133758544921875	5147.33762900422
0.53985595703125	0.0135406494140625	5147.35975400417
0.544281005859375	0.01370849609375	5147.38187900411
0.5487060546875	0.0138702392578125	5147.40400400405
0.553131103515625	0.0140350341796875	5147.426129004
0.55755615234375	0.014190673828125	5147.44825400394
0.561981201171875	0.0143524169921875	5147.47037900389
0.56640625	0.0145111083984375	5147.49250400383
0.570831298828125	0.0146697998046875	5147.51462900377
0.57525634765625	0.014825439453125	5147.53675400372
0.579681396484375	0.01497802734375	5147.55887900366
0.5841064453125	0.01513671875	5147.58100400361
0.588531494140625	0.015283203125	5147.60312900355
0.59295654296875	0.015435791015625	5147.6252540035
0.597381591796875	0.0155853271484375	5147.64737900344
0.601806640625	0.0157318115234375	5147.66950400338
0.606231689453125	0.0158782958984375	5147.69162900333
0.61065673828125	0.0160247802734375	5147.71375400327
0.615081787109375	0.016168212890625	5147.73587900322
0.6195068359375	0.016314697265625	5147.75800400316
0.623931884765625	0.0164581298828125	5147.7801290031
0.62835693359375	0.0166046142578125	5147.80225400305
0.632781982421875	0.0167449951171875	5147.82437900299
0.63720703125	0.0168853759765625	5147.84650400294
0.641632080078125	0.017022705078125	5147.86862900288
0.64605712890625	0.017156982421875	5147.89075400282
0.650482177734375	0.0172882080078125	5147.91287900277
0.6549072265625	0.01741943359375	5147.93500400271
0.659332275390625	0.0175537109375	5147.95712900266
0.66375732421875	0.017681884765625	5147.9792540026
0.668182373046875	0.017816162109375	5148.00137900255
0.672607421875	0.0179473876953125	5148.02350400249
0.677032470703125	0.01807861328125	5148.04562900243
0.68145751953125	0.0182037353515625	5148.06775400238
0.685882568359375	0.018328857421875	5148.08987900232
0.6903076171875	0.01845703125	5148.11200400227
0.694732666015625	0.0185791015625	5148.13412900221
0.69915771484375	0.0187042236328125	5148.15625400216
0.703582763671875	0.0188232421875	5148.1783790021
0.7080078125	0.0189453125	5148.20050400204
0.712432861328125	0.019061279296875	5148.22262900199
0.71685791015625	0.019183349609375	5148.24475400193
0.721282958984375	0.01929931640625	5148.26687900188
0.7257080078125	0.019415283203125	5148.28900400182
0.730133056640625	0.01953125	5148.31112900176
0.73455810546875	0.0196441650390625	5148.33325400171
0.738983154296875	0.019757080078125	5148.35537900165
0.743408203125	0.019866943359375	5148.3775040016
0.747833251953125	0.019976806640625	5148.39962900154
0.75225830078125	0.020086669921875	5148.42175400148
0.756683349609375	0.020196533203125	5148.44387900143
0.7611083984375	0.02030029296875	5148.46600400137
0.765533447265625	0.020404052734375	5148.48812900132
0.76995849609375	0.0205108642578125	5148.51025400126
0.774383544921875	0.0206146240234375	5148.53237900121
0.77880859375	0.0207183837890625	5148.55450400115
0.783233642578125	0.0208221435546875	5148.57662900109
0.78765869140625	0.0209197998046875	5148.59875400104
0.792083740234375	0.0210205078125	5148.62087900098
0.7965087890625	0.0211181640625	5148.64300400093
0.800933837890625	0.0212158203125	5148.66512900087
0.80535888671875	0.0213134765625	5148.68725400081
0.809783935546875	0.0214080810546875	5148.70937900076
0.814208984375	0.0215057373046875	5148.7315040007
0.818634033203125	0.02159423828125	5148.75362900065
0.82305908203125	0.0216888427734375	5148.77575400059
0.827484130859375	0.02177734375	5148.79787900053
0.8319091796875	0.021868896484375	5148.82000400048
0.836334228515625	0.021954345703125	5148.84212900042
0.84075927734375	0.0220428466796875	5148.86425400037
0.845184326171875	0.02213134765625	5148.88637900031
0.849609375	0.022216796875	5148.90850400026
0.854034423828125	0.02230224609375	5148.9306290002
0.85845947265625	0.0223876953125	5148.95275400014
0.862884521484375	0.0224700927734375	5148.97487900009
0.8673095703125	0.0225494384765625	5148.99700400003
0.871734619140625	0.0226348876953125	5149.01912899998
0.87615966796875	0.0227142333984375	5149.04125399992
0.880584716796875	0.0227935791015625	5149.06337899986
0.885009765625	0.0228729248046875	5149.08550399981
0.889434814453125	0.0229522705078125	5149.10762899975
0.89385986328125	0.023028564453125	5149.1297539997
0.898284912109375	0.0231048583984375	5149.15187899964
0.9027099609375	0.02318115234375	5149.17400399959
0.907135009765625	0.0232574462890625	5149.19612899953
0.91156005859375	0.0233306884765625	5149.21825399947
0.915985107421875	0.0234039306640625	5149.24037899942
0.92041015625	0.023468017578125	5149.26250399936
0.924835205078125	0.0235443115234375	5149.28462899931
0.92926025390625	0.023614501953125	5149.30675399925
0.933685302734375	0.0236846923828125	5149.32887899919
0.9381103515625	0.0237579345703125	5149.35100399914
0.942535400390625	0.023828125	5149.37312899908
0.94696044921875	0.023895263671875	5149.39525399903
0.951385498046875	0.0239654541015625	5149.41737899897
0.955810546875	0.0240325927734375	5149.43950399891
0.960235595703125	0.0240997314453125	5149.46162899886
0.96466064453125	0.024163818359375	5149.4837539988
0.969085693359375	0.0242340087890625	5149.50587899875
0.9735107421875	0.024298095703125	5149.52800399869
0.977935791015625	0.0243621826171875	5149.55012899864
0.98236083984375	0.0244232177734375	5149.57225399858
0.986785888671875	0.024493408203125	5149.59437899852
0.9912109375	0.024554443359375	5149.61650399847
