Potential applied (V)	WE(1).Current (A)	Time (s)
0.004425048828125	-0.000100433349609375	2448.56119981798
0.00885009765625	-6.6375732421875E-06	2449.44620981574
0.013275146484375	6.8695068359375E-05	2450.33121981351
0.0177001953125	0.000131317138671875	2451.21622981127
0.022125244140625	0.0001854248046875	2452.10123980904
0.02655029296875	0.00023272705078125	2452.98624980681
0.030975341796875	0.00027435302734375	2453.87125980457
0.035400390625	0.000311614990234375	2454.75626980234
0.039825439453125	0.00034478759765625	2455.6412798001
0.04425048828125	0.000374908447265625	2456.52628979787
0.048675537109375	0.00040228271484375	2457.41129979563
0.0531005859375	0.0004268798828125	2458.2963097934
0.057525634765625	0.000449981689453125	2459.18131979116
0.06195068359375	0.000470611572265625	2460.06632978893
0.066375732421875	0.000489715576171875	2460.95133978669
0.07080078125	0.000507659912109375	2461.83634978446
0.075225830078125	0.000524169921875	2462.72135978223
0.07965087890625	0.000538818359375	2463.60636977999
0.084075927734375	0.000553131103515625	2464.49137977776
0.0885009765625	0.00056646728515625	2465.37638977552
0.092926025390625	0.000578704833984375	2466.26139977329
0.09735107421875	0.000590087890625	2467.14640977105
0.101776123046875	0.000601318359375	2468.03141976882
0.106201171875	0.00061126708984375	2468.91642976659
0.110626220703125	0.000621337890625	2469.80143976435
0.11505126953125	0.00063018798828125	2470.68644976212
0.119476318359375	0.00063812255859375	2471.57145975988
0.1239013671875	0.00064666748046875	2472.45646975765
0.128326416015625	0.00065460205078125	2473.34147975541
0.13275146484375	0.0006622314453125	2474.22648975318
0.137176513671875	0.0006695556640625	2475.11149975094
0.1416015625	0.0006768798828125	2475.99650974871
0.146026611328125	0.00068328857421875	2476.88151974648
0.15045166015625	0.00069000244140625	2477.76652974424
0.154876708984375	0.0006964111328125	2478.65153974201
0.1593017578125	0.0007025146484375	2479.53654973977
0.163726806640625	0.00070831298828125	2480.42155973754
0.16815185546875	0.000714111328125	2481.3065697353
0.172576904296875	0.00072021484375	2482.19157973307
0.177001953125	0.0007257080078125	2483.07658973083
0.181427001953125	0.00073211669921875	2483.9615997286
0.18585205078125	0.0007373046875	2484.84660972637
0.190277099609375	0.00074310302734375	2485.73161972413
0.1947021484375	0.00074859619140625	2486.6166297219
0.199127197265625	0.0007537841796875	2487.50163971966
0.20355224609375	0.00075958251953125	2488.38664971743
0.207977294921875	0.00076507568359375	2489.27165971519
0.21240234375	0.000770263671875	2490.15666971296
0.216827392578125	0.00077606201171875	2491.04167971072
0.22125244140625	0.00078125	2491.92668970849
0.225677490234375	0.00078643798828125	2492.81169970626
0.2301025390625	0.000792236328125	2493.69670970402
0.234527587890625	0.000797119140625	2494.58171970179
0.23895263671875	0.00080291748046875	2495.46672969955
0.243377685546875	0.0008087158203125	2496.35173969732
0.247802734375	0.00081451416015625	2497.23674969508
0.252227783203125	0.0008203125	2498.12175969285
0.25665283203125	0.00082611083984375	2499.00676969061
0.261077880859375	0.0008319091796875	2499.89177968838
0.2655029296875	0.0008380126953125	2500.77678968615
0.269927978515625	0.00084381103515625	2501.66179968391
0.27435302734375	0.000849609375	2502.54680968168
0.278778076171875	0.000855712890625	2503.43181967944
0.283203125	0.00086181640625	2504.31682967721
0.287628173828125	0.00086822509765625	2505.20183967497
0.29205322265625	0.00087432861328125	2506.08684967274
0.296478271484375	0.00088043212890625	2506.9718596705
0.3009033203125	0.0008868408203125	2507.85686966827
0.305328369140625	0.0008929443359375	2508.74187966604
0.30975341796875	0.000899658203125	2509.6268896638
0.314178466796875	0.0009075927734375	2510.51189966157
0.318603515625	0.00091339111328125	2511.39690965933
0.323028564453125	0.000919189453125	2512.2819196571
0.32745361328125	0.00092559814453125	2513.16692965486
0.331878662109375	0.0009320068359375	2514.05193965263
0.3363037109375	0.00093780517578125	2514.93694965039
0.340728759765625	0.0009442138671875	2515.82195964816
0.34515380859375	0.00095001220703125	2516.70696964593
0.349578857421875	0.000955810546875	2517.59197964369
0.35400390625	0.00096038818359375	2518.47698964146
0.358428955078125	0.0009661865234375	2519.36199963922
0.36285400390625	0.00097198486328125	2520.24700963699
0.367279052734375	0.0009771728515625	2521.13201963475
0.3717041015625	0.00098175048828125	2522.01702963252
0.376129150390625	0.000986328125	2522.90203963028
0.38055419921875	0.00099090576171875	2523.78704962805
0.384979248046875	0.0009942626953125	2524.67205962582
0.389404296875	0.0009979248046875	2525.55706962358
0.393829345703125	0.00100067138671875	2526.44207962135
0.39825439453125	0.00100433349609375	2527.32708961911
0.402679443359375	0.00100677490234375	2528.21209961688
0.4071044921875	0.001009521484375	2529.09710961464
0.411529541015625	0.00101165771484375	2529.98211961241
0.41595458984375	0.00101348876953125	2530.86712961017
0.420379638671875	0.00101531982421875	2531.75213960794
0.4248046875	0.001016845703125	2532.63714960571
0.429229736328125	0.0010186767578125	2533.52215960347
0.43365478515625	0.00101959228515625	2534.40716960124
0.438079833984375	0.00102081298828125	2535.292179599
0.4425048828125	0.00102142333984375	2536.17718959677
0.446929931640625	0.0010223388671875	2537.06219959453
0.45135498046875	0.00102294921875	2537.9472095923
0.455780029296875	0.0010235595703125	2538.83221959006
0.460205078125	0.0010235595703125	2539.71722958783
0.464630126953125	0.00102447509765625	2540.6022395856
0.46905517578125	0.0010235595703125	2541.48724958336
0.473480224609375	0.00102386474609375	2542.37225958113
0.4779052734375	0.0010235595703125	2543.25726957889
0.482330322265625	0.00102294921875	2544.14227957666
0.48675537109375	0.00102294921875	2545.02728957442
0.491180419921875	0.0010223388671875	2545.91229957219
0.49560546875	0.00102142333984375	2546.79730956995
0.500030517578125	0.0010211181640625	2547.68231956772
0.50445556640625	0.00102020263671875	2548.56732956549
0.508880615234375	0.001019287109375	2549.45233956325
0.5133056640625	0.00101837158203125	2550.33734956102
0.517730712890625	0.0010174560546875	2551.22235955878
0.52215576171875	0.00101654052734375	2552.10736955655
0.526580810546875	0.001015625	2552.99237955431
0.531005859375	0.00101470947265625	2553.87738955208
0.535430908203125	0.00101348876953125	2554.76239954985
0.53985595703125	0.001011962890625	2555.64740954761
0.544281005859375	0.00101043701171875	2556.53241954538
0.5487060546875	0.00100860595703125	2557.41742954314
0.553131103515625	0.00100738525390625	2558.30243954091
0.55755615234375	0.0010052490234375	2559.18744953867
0.561981201171875	0.00100372314453125	2560.07245953644
0.56640625	0.00100250244140625	2560.9574695342
0.570831298828125	0.0010003662109375	2561.84247953197
0.57525634765625	0.00099884033203125	2562.72748952974
0.579681396484375	0.0009979248046875	2563.6124995275
0.5841064453125	0.00099609375	2564.49750952527
0.588531494140625	0.0009942626953125	2565.38251952303
0.59295654296875	0.00099365234375	2566.2675295208
0.597381591796875	0.000992431640625	2567.15253951856
0.601806640625	0.00099212646484375	2568.03754951633
0.606231689453125	0.0009912109375	2568.92255951409
0.61065673828125	0.00099151611328125	2569.80756951186
0.615081787109375	0.0009912109375	2570.69257950962
0.6195068359375	0.0009906005859375	2571.57758950739
0.623931884765625	0.00099090576171875	2572.46259950516
0.62835693359375	0.00099334716796875	2573.34760950292
0.632781982421875	0.00099334716796875	2574.23261950069
0.63720703125	0.00099365234375	2575.11762949845
0.641632080078125	0.000994873046875	2576.00263949622
0.64605712890625	0.00099609375	2576.88764949398
0.650482177734375	0.000997314453125	2577.77265949175
0.6549072265625	0.0009979248046875	2578.65766948952
0.659332275390625	0.00100067138671875	2579.54267948728
0.66375732421875	0.0010028076171875	2580.42768948505
0.668182373046875	0.00100494384765625	2581.31269948281
0.672607421875	0.0010076904296875	2582.19770948058
0.677032470703125	0.00101104736328125	2583.08271947834
0.68145751953125	0.001014404296875	2583.96772947611
0.685882568359375	0.00101776123046875	2584.85273947387
0.6903076171875	0.00102203369140625	2585.73774947164
0.694732666015625	0.00102630615234375	2586.62275946941
0.69915771484375	0.001031494140625	2587.50776946717
0.703582763671875	0.00103546142578125	2588.39277946494
0.7080078125	0.001041259765625	2589.2777894627
0.712432861328125	0.00104736328125	2590.16279946047
0.71685791015625	0.0010540771484375	2591.04780945823
0.721282958984375	0.00106109619140625	2591.932819456
0.7257080078125	0.0010687255859375	2592.81782945376
0.730133056640625	0.00107666015625	2593.70283945153
0.73455810546875	0.001085205078125	2594.5878494493
0.738983154296875	0.00109405517578125	2595.47285944706
0.743408203125	0.00110260009765625	2596.35786944483
0.747833251953125	0.00111358642578125	2597.24287944259
0.75225830078125	0.0011248779296875	2598.12788944036
0.756683349609375	0.00113739013671875	2599.01289943812
0.7611083984375	0.0011505126953125	2599.89790943589
0.765533447265625	0.00116455078125	2600.78291943365
0.76995849609375	0.00117889404296875	2601.66792943142
0.774383544921875	0.001195068359375	2602.55293942919
0.77880859375	0.0012115478515625	2603.43794942695
0.783233642578125	0.001229248046875	2604.32295942472
0.78765869140625	0.001248779296875	2605.20796942248
0.792083740234375	0.00126861572265625	2606.09297942025
0.7965087890625	0.001290283203125	2606.97798941801
0.800933837890625	0.00131317138671875	2607.86299941578
0.80535888671875	0.0013372802734375	2608.74800941354
0.809783935546875	0.0013623046875	2609.63301941131
0.814208984375	0.0013897705078125	2610.51802940908
0.818634033203125	0.00141754150390625	2611.40303940684
0.82305908203125	0.00144775390625	2612.28804940461
0.827484130859375	0.0014788818359375	2613.17305940237
0.8319091796875	0.00151214599609375	2614.05806940014
0.836334228515625	0.00154693603515625	2614.9430793979
0.84075927734375	0.001583251953125	2615.82808939567
0.845184326171875	0.00162139892578125	2616.71309939343
0.849609375	0.001661376953125	2617.5981093912
0.854034423828125	0.001702880859375	2618.48311938897
0.85845947265625	0.0017462158203125	2619.36812938673
0.862884521484375	0.001790771484375	2620.2531393845
0.8673095703125	0.00183807373046875	2621.13814938226
0.871734619140625	0.00188690185546875	2622.02315938003
0.87615966796875	0.001937255859375	2622.90816937779
0.880584716796875	0.00199005126953125	2623.79317937556
0.885009765625	0.00204376220703125	2624.67818937332
0.889434814453125	0.00209930419921875	2625.56319937109
0.89385986328125	0.002156982421875	2626.44820936886
0.898284912109375	0.0022149658203125	2627.33321936662
0.9027099609375	0.00227508544921875	2628.21822936439
0.907135009765625	0.00233673095703125	2629.10323936215
0.91156005859375	0.0023992919921875	2629.98824935992
0.915985107421875	0.00246307373046875	2630.87325935768
0.92041015625	0.002528076171875	2631.75826935545
0.924835205078125	0.00259368896484375	2632.64327935321
0.92926025390625	0.0026605224609375	2633.52828935098
0.933685302734375	0.00272857666015625	2634.41329934875
0.9381103515625	0.0027984619140625	2635.29830934651
0.942535400390625	0.0028662109375	2636.18331934428
0.94696044921875	0.0029351806640625	2637.06832934204
0.951385498046875	0.00300384521484375	2637.95333933981
0.955810546875	0.00307342529296875	2638.83834933757
0.960235595703125	0.0031427001953125	2639.72335933534
0.96466064453125	0.00321197509765625	2640.6083693331
0.969085693359375	0.0032806396484375	2641.49337933087
0.9735107421875	0.00334930419921875	2642.37838932864
0.977935791015625	0.00341583251953125	2643.2633993264
0.98236083984375	0.00348297119140625	2644.14840932417
0.986785888671875	0.0035498046875	2645.03341932193
0.9912109375	0.00361480712890625	2645.9184293197
0.995635986328125	0.00367919921875	2646.80343931746
1.00006103515625	0.00374176025390625	2647.68844931523
0.995635986328125	0.00329345703125	2648.57345931299
0.9912109375	0.00292022705078125	2649.45846931076
0.986785888671875	0.00259490966796875	2650.34347930853
0.98236083984375	0.00230560302734375	2651.22848930629
0.977935791015625	0.00204376220703125	2652.11349930406
0.9735107421875	0.00180633544921875	2652.99850930182
0.969085693359375	0.0015875244140625	2653.88351929959
0.96466064453125	0.001385498046875	2654.76852929735
0.960235595703125	0.00119781494140625	2655.65353929512
0.955810546875	0.0010235595703125	2656.53854929288
0.951385498046875	0.00086090087890625	2657.42355929065
0.94696044921875	0.000709228515625	2658.30856928842
0.942535400390625	0.00056732177734375	2659.19357928618
0.9381103515625	0.000433929443359375	2660.07858928395
0.933685302734375	0.00030731201171875	2660.96359928171
0.92926025390625	0.00019012451171875	2661.84860927948
0.924835205078125	8.0413818359375E-05	2662.73361927724
0.92041015625	-2.3419189453125E-05	2663.61862927501
0.915985107421875	-0.00012060546875	2664.50363927278
0.91156005859375	-0.00021258544921875	2665.38864927054
0.907135009765625	-0.00029888916015625	2666.27365926831
0.9027099609375	-0.00038018798828125	2667.15866926607
0.898284912109375	-0.000456298828125	2668.04367926384
0.89385986328125	-0.00052777099609375	2668.9286892616
0.889434814453125	-0.000594970703125	2669.81369925937
0.885009765625	-0.000658294677734375	2670.69870925713
0.880584716796875	-0.0007171630859375	2671.5837192549
0.87615966796875	-0.00077301025390625	2672.46872925267
0.871734619140625	-0.00082427978515625	2673.35373925043
0.8673095703125	-0.000872802734375	2674.2387492482
0.862884521484375	-0.00091766357421875	2675.12375924596
0.85845947265625	-0.00095855712890625	2676.00876924373
0.854034423828125	-0.000997314453125	2676.89377924149
0.849609375	-0.0010333251953125	2677.77878923926
0.845184326171875	-0.0010662841796875	2678.66379923702
0.84075927734375	-0.00109649658203125	2679.54880923479
0.836334228515625	-0.001124267578125	2680.43381923255
0.8319091796875	-0.00114959716796875	2681.31882923032
0.827484130859375	-0.00117218017578125	2682.20383922809
0.82305908203125	-0.001192626953125	2683.08884922585
0.818634033203125	-0.0012109375	2683.97385922362
0.814208984375	-0.0012274169921875	2684.85886922138
0.809783935546875	-0.00124114990234375	2685.74387921915
0.80535888671875	-0.00125335693359375	2686.62888921691
0.800933837890625	-0.00126373291015625	2687.51389921468
0.7965087890625	-0.00127197265625	2688.39890921245
0.792083740234375	-0.00127899169921875	2689.28391921021
0.78765869140625	-0.0012841796875	2690.16892920798
0.783233642578125	-0.001287841796875	2691.05393920574
0.77880859375	-0.00128997802734375	2691.93894920351
0.774383544921875	-0.00129180908203125	2692.82395920127
0.76995849609375	-0.0012921142578125	2693.70896919904
0.765533447265625	-0.00129058837890625	2694.5939791968
0.7611083984375	-0.00128814697265625	2695.47898919457
0.756683349609375	-0.0012847900390625	2696.36399919234
0.75225830078125	-0.00128082275390625	2697.2490091901
0.747833251953125	-0.0012762451171875	2698.13401918787
0.743408203125	-0.0012701416015625	2699.01902918563
0.738983154296875	-0.0012628173828125	2699.9040391834
0.73455810546875	-0.0012567138671875	2700.78904918116
0.730133056640625	-0.0012493896484375	2701.67405917893
0.7257080078125	-0.001241455078125	2702.55906917669
0.721282958984375	-0.00123382568359375	2703.44407917446
0.71685791015625	-0.00122528076171875	2704.32908917223
0.712432861328125	-0.001217041015625	2705.21409916999
0.7080078125	-0.00120849609375	2706.09910916776
0.703582763671875	-0.00119964599609375	2706.98411916552
0.69915771484375	-0.001190185546875	2707.86912916329
0.694732666015625	-0.001181640625	2708.75413916105
0.6903076171875	-0.001173095703125	2709.63914915882
0.685882568359375	-0.00116455078125	2710.52415915658
0.68145751953125	-0.00115631103515625	2711.40916915435
0.677032470703125	-0.00114776611328125	2712.29417915212
0.672607421875	-0.00113983154296875	2713.17918914988
0.668182373046875	-0.00113189697265625	2714.06419914765
0.66375732421875	-0.00112396240234375	2714.94920914541
0.659332275390625	-0.00111602783203125	2715.83421914318
0.6549072265625	-0.0011090087890625	2716.71922914094
0.650482177734375	-0.001102294921875	2717.60423913871
0.64605712890625	-0.00109527587890625	2718.48924913647
0.641632080078125	-0.0010894775390625	2719.37425913424
0.63720703125	-0.001082763671875	2720.25926913201
0.632781982421875	-0.00107696533203125	2721.14427912977
0.62835693359375	-0.0010711669921875	2722.02928912754
0.623931884765625	-0.001068115234375	2722.9142991253
0.6195068359375	-0.00106231689453125	2723.79930912307
0.615081787109375	-0.00105682373046875	2724.68431912083
0.61065673828125	-0.00105194091796875	2725.5693291186
0.606231689453125	-0.00104736328125	2726.45433911636
0.601806640625	-0.00104339599609375	2727.33934911413
0.597381591796875	-0.00103973388671875	2728.2243591119
0.59295654296875	-0.00103607177734375	2729.10936910966
0.588531494140625	-0.00103271484375	2729.99437910743
0.5841064453125	-0.0010284423828125	2730.87938910519
0.579681396484375	-0.0010260009765625	2731.76439910296
0.57525634765625	-0.00102386474609375	2732.64940910072
0.570831298828125	-0.00102142333984375	2733.53441909849
0.56640625	-0.00101959228515625	2734.41942909625
0.561981201171875	-0.0010174560546875	2735.30443909402
0.55755615234375	-0.00101593017578125	2736.18944909179
0.553131103515625	-0.0010150146484375	2737.07445908955
0.5487060546875	-0.0010137939453125	2737.95946908732
0.544281005859375	-0.00101165771484375	2738.84447908508
0.53985595703125	-0.00101104736328125	2739.72948908285
0.535430908203125	-0.0010107421875	2740.61449908061
0.531005859375	-0.0010101318359375	2741.49950907838
0.526580810546875	-0.001009521484375	2742.38451907614
0.52215576171875	-0.0010089111328125	2743.26952907391
0.517730712890625	-0.00100860595703125	2744.15453907168
0.5133056640625	-0.00100830078125	2745.03954906944
0.508880615234375	-0.00100860595703125	2745.92455906721
0.50445556640625	-0.00100830078125	2746.80956906497
0.500030517578125	-0.00100830078125	2747.69457906274
0.49560546875	-0.00100830078125	2748.5795890605
0.491180419921875	-0.00100860595703125	2749.46459905827
0.48675537109375	-0.00100860595703125	2750.34960905603
0.482330322265625	-0.0010089111328125	2751.2346190538
0.4779052734375	-0.0010089111328125	2752.11962905157
0.473480224609375	-0.001009521484375	2753.00463904933
0.46905517578125	-0.00100982666015625	2753.8896490471
0.464630126953125	-0.001009521484375	2754.77465904486
0.460205078125	-0.00100982666015625	2755.65966904263
0.455780029296875	-0.00100982666015625	2756.54467904039
0.45135498046875	-0.0010101318359375	2757.42968903816
0.446929931640625	-0.00101043701171875	2758.31469903592
0.4425048828125	-0.00101043701171875	2759.19970903369
0.438079833984375	-0.0010107421875	2760.08471903146
0.43365478515625	-0.0010107421875	2760.96972902922
0.429229736328125	-0.0010107421875	2761.85473902699
0.4248046875	-0.0010107421875	2762.73974902475
0.420379638671875	-0.0010107421875	2763.62475902252
0.41595458984375	-0.00101104736328125	2764.50976902028
0.411529541015625	-0.0010113525390625	2765.39477901805
0.4071044921875	-0.0010113525390625	2766.27978901581
0.402679443359375	-0.00101165771484375	2767.16479901358
0.39825439453125	-0.001011962890625	2768.04980901135
0.393829345703125	-0.00101226806640625	2768.93481900911
0.389404296875	-0.001011962890625	2769.81982900688
0.384979248046875	-0.00101287841796875	2770.70483900464
0.38055419921875	-0.0010137939453125	2771.58984900241
0.376129150390625	-0.001014404296875	2772.47485900017
0.3717041015625	-0.00101531982421875	2773.35986899794
0.367279052734375	-0.00101593017578125	2774.24487899571
0.36285400390625	-0.0010174560546875	2775.12988899347
0.358428955078125	-0.00101837158203125	2776.01489899124
0.35400390625	-0.00101959228515625	2776.899908989
0.349578857421875	-0.00101959228515625	2777.78491898677
0.34515380859375	-0.00102142333984375	2778.66992898453
0.340728759765625	-0.00102264404296875	2779.5549389823
0.3363037109375	-0.00102447509765625	2780.43994898006
0.331878662109375	-0.0010260009765625	2781.32495897783
0.32745361328125	-0.00102813720703125	2782.2099689756
0.323028564453125	-0.0010296630859375	2783.09497897336
0.318603515625	-0.00103118896484375	2783.97998897113
0.314178466796875	-0.0010333251953125	2784.86499896889
0.30975341796875	-0.001036376953125	2785.75000896666
0.305328369140625	-0.0010382080078125	2786.63501896442
0.3009033203125	-0.00103973388671875	2787.52002896219
0.296478271484375	-0.0010418701171875	2788.40503895995
0.29205322265625	-0.001043701171875	2789.29004895772
0.287628173828125	-0.00104644775390625	2790.17505895548
0.283203125	-0.00104888916015625	2791.06006895325
0.278778076171875	-0.0010504150390625	2791.94507895102
0.27435302734375	-0.00105316162109375	2792.83008894878
0.269927978515625	-0.0010552978515625	2793.71509894655
0.2655029296875	-0.0010577392578125	2794.60010894431
0.261077880859375	-0.00105987548828125	2795.48511894208
0.25665283203125	-0.0010626220703125	2796.37012893984
0.252227783203125	-0.00106475830078125	2797.25513893761
0.247802734375	-0.00106719970703125	2798.14014893538
0.243377685546875	-0.00106964111328125	2799.02515893314
0.23895263671875	-0.00107208251953125	2799.91016893091
0.234527587890625	-0.00107452392578125	2800.79517892867
0.2301025390625	-0.00107635498046875	2801.68018892644
0.225677490234375	-0.0010791015625	2802.5651989242
0.22125244140625	-0.00108154296875	2803.45020892197
0.216827392578125	-0.001083984375	2804.33521891973
0.21240234375	-0.00108642578125	2805.2202289175
0.207977294921875	-0.0010888671875	2806.10523891527
0.20355224609375	-0.00109130859375	2806.99024891303
0.199127197265625	-0.00109375	2807.8752589108
0.1947021484375	-0.00109588623046875	2808.76026890856
0.190277099609375	-0.0010980224609375	2809.64527890633
0.18585205078125	-0.00110015869140625	2810.53028890409
0.181427001953125	-0.0011029052734375	2811.41529890186
0.177001953125	-0.00110565185546875	2812.30030889962
0.172576904296875	-0.0011083984375	2813.18531889739
0.16815185546875	-0.00111114501953125	2814.07032889516
0.163726806640625	-0.0011138916015625	2814.95533889292
0.1593017578125	-0.001116943359375	2815.84034889069
0.154876708984375	-0.00111968994140625	2816.72535888845
0.15045166015625	-0.001123046875	2817.61036888622
0.146026611328125	-0.0011260986328125	2818.49537888398
0.1416015625	-0.0011297607421875	2819.38038888175
0.137176513671875	-0.00113372802734375	2820.26539887951
0.13275146484375	-0.0011376953125	2821.15040887728
0.128326416015625	-0.001141357421875	2822.03541887505
0.1239013671875	-0.00114593505859375	2822.92042887281
0.119476318359375	-0.00114990234375	2823.80543887058
0.11505126953125	-0.00115325927734375	2824.69044886834
0.110626220703125	-0.001158447265625	2825.57545886611
0.106201171875	-0.0011627197265625	2826.46046886387
0.101776123046875	-0.0011676025390625	2827.34547886164
0.09735107421875	-0.001171875	2828.2304888594
0.092926025390625	-0.00117645263671875	2829.11549885717
0.0885009765625	-0.0011810302734375	2830.00050885494
0.084075927734375	-0.001185302734375	2830.8855188527
0.07965087890625	-0.0011895751953125	2831.77052885047
0.075225830078125	-0.00119293212890625	2832.65553884823
0.07080078125	-0.00119720458984375	2833.540548846
0.066375732421875	-0.001201171875	2834.42555884376
0.06195068359375	-0.001204833984375	2835.31056884153
0.057525634765625	-0.00120849609375	2836.19557883929
0.0531005859375	-0.001212158203125	2837.08058883706
0.048675537109375	-0.0012152099609375	2837.96559883483
0.04425048828125	-0.00121917724609375	2838.85060883259
0.039825439453125	-0.00122283935546875	2839.73561883036
0.035400390625	-0.0012261962890625	2840.62062882812
0.030975341796875	-0.00123016357421875	2841.50563882589
0.02655029296875	-0.00123443603515625	2842.39064882365
0.022125244140625	-0.001239013671875	2843.27565882142
0.0177001953125	-0.001243896484375	2844.16066881918
0.013275146484375	-0.001248779296875	2845.04567881695
0.00885009765625	-0.00125396728515625	2845.93068881472
0.004425048828125	-0.00126007080078125	2846.81569881248
0	-0.0012664794921875	2847.70070881025
0.004425048828125	-0.00086090087890625	2848.58571880801
0.00885009765625	-0.0005731201171875	2849.47072880578
0.013275146484375	-0.000357757568359375	2850.35573880354
0.0177001953125	-0.000191802978515625	2851.24074880131
0.022125244140625	-6.0455322265625E-05	2852.12575879907
0.02655029296875	4.51904296875E-05	2853.01076879684
0.030975341796875	0.0001314697265625	2853.89577879461
0.035400390625	0.00020318603515625	2854.78078879237
0.039825439453125	0.000263275146484375	2855.66579879014
0.04425048828125	0.000314178466796875	2856.5508087879
0.048675537109375	0.000357879638671875	2857.43581878567
0.0531005859375	0.00039569091796875	2858.32082878343
0.057525634765625	0.00042877197265625	2859.2058387812
0.06195068359375	0.00045770263671875	2860.09084877896
0.066375732421875	0.000483062744140625	2860.97585877673
0.07080078125	0.00050567626953125	2861.8608687745
0.075225830078125	0.00052606201171875	2862.74587877226
0.07965087890625	0.000543609619140625	2863.63088877003
0.084075927734375	0.000560394287109375	2864.51589876779
0.0885009765625	0.000575714111328125	2865.40090876556
0.092926025390625	0.0005894775390625	2866.28591876332
0.09735107421875	0.00060198974609375	2867.17092876109
0.101776123046875	0.00061431884765625	2868.05593875885
0.106201171875	0.000625	2868.94094875662
0.110626220703125	0.00063507080078125	2869.82595875439
0.11505126953125	0.00064483642578125	2870.71096875215
0.119476318359375	0.00065277099609375	2871.59597874992
0.1239013671875	0.00066162109375	2872.48098874768
0.128326416015625	0.00066986083984375	2873.36599874545
0.13275146484375	0.00067779541015625	2874.25100874321
0.137176513671875	0.00068511962890625	2875.13601874098
0.1416015625	0.000692138671875	2876.02102873874
0.146026611328125	0.000699462890625	2876.90603873651
0.15045166015625	0.00070587158203125	2877.79104873428
0.154876708984375	0.0007122802734375	2878.67605873204
0.1593017578125	0.0007183837890625	2879.56106872981
0.163726806640625	0.00072479248046875	2880.44607872757
0.16815185546875	0.0007305908203125	2881.33108872534
0.172576904296875	0.0007366943359375	2882.2160987231
0.177001953125	0.00074249267578125	2883.10110872087
0.181427001953125	0.0007489013671875	2883.98611871864
0.18585205078125	0.00075439453125	2884.8711287164
0.190277099609375	0.000760498046875	2885.75613871417
0.1947021484375	0.00076629638671875	2886.64114871193
0.199127197265625	0.00077178955078125	2887.5261587097
0.20355224609375	0.00077789306640625	2888.41116870746
0.207977294921875	0.0007830810546875	2889.29617870523
0.21240234375	0.00078887939453125	2890.18118870299
0.216827392578125	0.00079437255859375	2891.06619870076
0.22125244140625	0.0008001708984375	2891.95120869853
0.225677490234375	0.00080596923828125	2892.83621869629
0.2301025390625	0.000811767578125	2893.72122869406
0.234527587890625	0.0008172607421875	2894.60623869182
0.23895263671875	0.00082305908203125	2895.49124868959
0.243377685546875	0.00082916259765625	2896.37625868735
0.247802734375	0.00083526611328125	2897.26126868512
0.252227783203125	0.000841064453125	2898.14627868288
0.25665283203125	0.00084716796875	2899.03128868065
0.261077880859375	0.000853271484375	2899.91629867841
0.2655029296875	0.000859375	2900.80130867618
0.269927978515625	0.00086517333984375	2901.68631867395
0.27435302734375	0.00087127685546875	2902.57132867171
0.278778076171875	0.000877685546875	2903.45633866948
0.283203125	0.0008837890625	2904.34134866724
0.287628173828125	0.00089019775390625	2905.22635866501
0.29205322265625	0.00089630126953125	2906.11136866277
0.296478271484375	0.00090301513671875	2906.99637866054
0.3009033203125	0.00090911865234375	2907.88138865831
0.305328369140625	0.00091552734375	2908.76639865607
0.30975341796875	0.00092193603515625	2909.65140865384
0.314178466796875	0.00092926025390625	2910.5364186516
0.318603515625	0.00093505859375	2911.42142864937
0.323028564453125	0.00094085693359375	2912.30643864713
0.32745361328125	0.00094696044921875	2913.1914486449
0.331878662109375	0.00095306396484375	2914.07645864266
0.3363037109375	0.00095916748046875	2914.96146864043
0.340728759765625	0.00096527099609375	2915.8464786382
0.34515380859375	0.00097076416015625	2916.73148863596
0.349578857421875	0.0009759521484375	2917.61649863373
0.35400390625	0.00098052978515625	2918.50150863149
0.358428955078125	0.0009857177734375	2919.38651862926
0.36285400390625	0.0009912109375	2920.27152862702
0.367279052734375	0.00099578857421875	2921.15653862479
0.3717041015625	0.0010003662109375	2922.04154862255
0.376129150390625	0.0010052490234375	2922.92655862032
0.38055419921875	0.00100921630859375	2923.81156861809
0.384979248046875	0.00101287841796875	2924.69657861585
0.389404296875	0.00101654052734375	2925.58158861362
0.393829345703125	0.001019287109375	2926.46659861138
0.39825439453125	0.0010223388671875	2927.35160860915
0.402679443359375	0.001025390625	2928.23661860691
0.4071044921875	0.0010284423828125	2929.12162860468
0.411529541015625	0.00103057861328125	2930.00663860244
0.41595458984375	0.00103302001953125	2930.89164860021
0.420379638671875	0.00103485107421875	2931.77665859798
0.4248046875	0.00103668212890625	2932.66166859574
0.429229736328125	0.00103851318359375	2933.54667859351
0.43365478515625	0.0010400390625	2934.43168859127
0.438079833984375	0.001041259765625	2935.31669858904
0.4425048828125	0.00104217529296875	2936.2017085868
0.446929931640625	0.0010430908203125	2937.08671858457
0.45135498046875	0.00104400634765625	2937.97172858233
0.455780029296875	0.0010443115234375	2938.8567385801
0.460205078125	0.00104522705078125	2939.74174857787
0.464630126953125	0.00104522705078125	2940.62675857563
0.46905517578125	0.001044921875	2941.5117685734
0.473480224609375	0.00104522705078125	2942.39677857116
0.4779052734375	0.0010443115234375	2943.28178856893
0.482330322265625	0.001043701171875	2944.16679856669
0.48675537109375	0.0010430908203125	2945.05180856446
0.491180419921875	0.00104248046875	2945.93681856222
0.49560546875	0.001041259765625	2946.82182855999
0.500030517578125	0.0010400390625	2947.70683855776
0.50445556640625	0.001038818359375	2948.59184855552
0.508880615234375	0.00103759765625	2949.47685855329
0.5133056640625	0.001036376953125	2950.36186855105
0.517730712890625	0.00103485107421875	2951.24687854882
0.52215576171875	0.0010333251953125	2952.13188854658
0.526580810546875	0.0010321044921875	2953.01689854435
0.531005859375	0.00103057861328125	2953.90190854211
0.535430908203125	0.00102874755859375	2954.78691853988
0.53985595703125	0.00102752685546875	2955.67192853765
0.544281005859375	0.0010260009765625	2956.55693853541
0.5487060546875	0.001024169921875	2957.44194853318
0.553131103515625	0.00102294921875	2958.32695853094
0.55755615234375	0.001021728515625	2959.21196852871
0.561981201171875	0.0010205078125	2960.09697852647
0.56640625	0.001019287109375	2960.98198852424
0.570831298828125	0.00101837158203125	2961.866998522
0.57525634765625	0.0010174560546875	2962.75200851977
0.579681396484375	0.0010162353515625	2963.63701851754
0.5841064453125	0.00101531982421875	2964.5220285153
0.588531494140625	0.0010137939453125	2965.40703851307
0.59295654296875	0.0010137939453125	2966.29204851083
0.597381591796875	0.00101318359375	2967.1770585086
0.601806640625	0.00101318359375	2968.06206850636
0.606231689453125	0.00101287841796875	2968.94707850413
0.61065673828125	0.0010125732421875	2969.83208850189
0.615081787109375	0.00101318359375	2970.71709849966
0.6195068359375	0.00101348876953125	2971.60210849743
0.623931884765625	0.00101409912109375	2972.48711849519
0.62835693359375	0.00101654052734375	2973.37212849296
0.632781982421875	0.001016845703125	2974.25713849072
0.63720703125	0.0010174560546875	2975.14214848849
0.641632080078125	0.0010186767578125	2976.02715848625
0.64605712890625	0.0010198974609375	2976.91216848402
0.650482177734375	0.00102142333984375	2977.79717848178
0.6549072265625	0.0010235595703125	2978.68218847955
0.659332275390625	0.00102569580078125	2979.56719847732
0.66375732421875	0.00102752685546875	2980.45220847508
0.668182373046875	0.00103057861328125	2981.33721847285
0.672607421875	0.00103363037109375	2982.22222847061
0.677032470703125	0.00103668212890625	2983.10723846838
0.68145751953125	0.00103973388671875	2983.99224846614
0.685882568359375	0.001043701171875	2984.87725846391
0.6903076171875	0.0010479736328125	2985.76226846167
0.694732666015625	0.00105224609375	2986.64727845944
0.69915771484375	0.00105682373046875	2987.53228845721
0.703582763671875	0.00106109619140625	2988.41729845497
0.7080078125	0.00106658935546875	2989.30230845274
0.712432861328125	0.001072998046875	2990.1873184505
0.71685791015625	0.0010791015625	2991.07232844827
0.721282958984375	0.0010858154296875	2991.95733844603
0.7257080078125	0.001092529296875	2992.8423484438
0.730133056640625	0.00110015869140625	2993.72735844157
0.73455810546875	0.0011077880859375	2994.61236843933
0.738983154296875	0.00111663818359375	2995.4973784371
0.743408203125	0.00112457275390625	2996.38238843486
0.747833251953125	0.00113494873046875	2997.26739843263
0.75225830078125	0.0011456298828125	2998.15240843039
0.756683349609375	0.00115692138671875	2999.03741842816
0.7611083984375	0.00116912841796875	2999.92242842592
0.765533447265625	0.00118133544921875	3000.80743842369
0.76995849609375	0.00119476318359375	3001.69244842146
0.774383544921875	0.00120941162109375	3002.57745841922
0.77880859375	0.00122467041015625	3003.46246841699
0.783233642578125	0.00123992919921875	3004.34747841475
0.78765869140625	0.00125701904296875	3005.23248841252
0.792083740234375	0.00127532958984375	3006.11749841028
0.7965087890625	0.0012945556640625	3007.00250840805
0.800933837890625	0.0013140869140625	3007.88751840581
0.80535888671875	0.00133514404296875	3008.77252840358
0.809783935546875	0.0013580322265625	3009.65753840134
0.814208984375	0.0013812255859375	3010.54254839911
0.818634033203125	0.0014056396484375	3011.42755839688
0.82305908203125	0.0014312744140625	3012.31256839464
0.827484130859375	0.00145843505859375	3013.19757839241
0.8319091796875	0.0014862060546875	3014.08258839017
0.836334228515625	0.00151580810546875	3014.96759838794
0.84075927734375	0.00154632568359375	3015.8526083857
0.845184326171875	0.00157806396484375	3016.73761838347
0.849609375	0.0016107177734375	3017.62262838124
0.854034423828125	0.0016455078125	3018.507638379
0.85845947265625	0.00168121337890625	3019.39264837677
0.862884521484375	0.001717529296875	3020.27765837453
0.8673095703125	0.00175537109375	3021.1626683723
0.871734619140625	0.00179443359375	3022.04767837006
0.87615966796875	0.00183502197265625	3022.93268836783
0.880584716796875	0.00187652587890625	3023.81769836559
0.885009765625	0.0019195556640625	3024.70270836336
0.889434814453125	0.001962890625	3025.58771836113
0.89385986328125	0.002008056640625	3026.47272835889
0.898284912109375	0.00205352783203125	3027.35773835666
0.9027099609375	0.0021002197265625	3028.24274835442
0.907135009765625	0.0021484375	3029.12775835219
0.91156005859375	0.0021966552734375	3030.01276834995
0.915985107421875	0.00224639892578125	3030.89777834772
0.92041015625	0.002296142578125	3031.78278834548
0.924835205078125	0.00234710693359375	3032.66779834325
0.92926025390625	0.00239837646484375	3033.55280834102
0.933685302734375	0.002451171875	3034.43781833878
0.9381103515625	0.0025054931640625	3035.32282833655
0.942535400390625	0.00255859375	3036.20783833431
0.94696044921875	0.00261260986328125	3037.09284833208
0.951385498046875	0.00266510009765625	3037.97785832984
0.955810546875	0.0027191162109375	3038.86286832761
0.960235595703125	0.0027734375	3039.74787832537
0.96466064453125	0.00282745361328125	3040.63288832314
0.969085693359375	0.002880859375	3041.51789832091
0.9735107421875	0.00293487548828125	3042.40290831867
0.977935791015625	0.0029864501953125	3043.28791831644
0.98236083984375	0.0030401611328125	3044.1729283142
0.986785888671875	0.00309234619140625	3045.05793831197
0.9912109375	0.00314422607421875	3045.94294830973
0.995635986328125	0.00319610595703125	3046.8279583075
1.00006103515625	0.0032464599609375	3047.71296830526
0.995635986328125	0.0028009033203125	3048.59797830303
0.9912109375	0.0024359130859375	3049.4829883008
0.986785888671875	0.00212371826171875	3050.36799829856
0.98236083984375	0.00185089111328125	3051.25300829633
0.977935791015625	0.001607666015625	3052.13801829409
0.9735107421875	0.001390380859375	3053.02302829186
0.969085693359375	0.00119110107421875	3053.90803828962
0.96466064453125	0.00100982666015625	3054.79304828739
0.960235595703125	0.000843505859375	3055.67805828515
0.955810546875	0.000689697265625	3056.56306828292
0.951385498046875	0.000546875	3057.44807828069
0.94696044921875	0.00041436767578125	3058.33308827845
0.942535400390625	0.000291107177734375	3059.21809827622
0.9381103515625	0.000175811767578125	3060.10310827398
0.933685302734375	6.6802978515625E-05	3060.98811827175
0.92926025390625	-3.402099609375E-05	3061.87312826951
0.924835205078125	-0.000127960205078125	3062.75813826728
0.92041015625	-0.00021636962890625	3063.64314826504
0.915985107421875	-0.000299163818359375	3064.52815826281
0.91156005859375	-0.000377349853515625	3065.41316826058
0.907135009765625	-0.00045037841796875	3066.29817825834
0.9027099609375	-0.000519012451171875	3067.18318825611
0.898284912109375	-0.00058331298828125	3068.06819825387
0.89385986328125	-0.00064373779296875	3068.95320825164
0.889434814453125	-0.00070037841796875	3069.8382182494
0.885009765625	-0.000753173828125	3070.72322824717
0.880584716796875	-0.00080230712890625	3071.60823824493
0.87615966796875	-0.00084930419921875	3072.4932482427
0.871734619140625	-0.00089263916015625	3073.37825824047
0.8673095703125	-0.00093292236328125	3074.26326823823
0.862884521484375	-0.00097015380859375	3075.148278236
0.85845947265625	-0.0010040283203125	3076.03328823376
0.854034423828125	-0.00103607177734375	3076.91829823153
0.849609375	-0.00106597900390625	3077.80330822929
0.845184326171875	-0.00109283447265625	3078.68831822706
0.84075927734375	-0.00111724853515625	3079.57332822482
0.836334228515625	-0.00113983154296875	3080.45833822259
0.8319091796875	-0.0011602783203125	3081.34334822036
0.827484130859375	-0.0011785888671875	3082.22835821812
0.82305908203125	-0.001195068359375	3083.11336821589
0.818634033203125	-0.0012091064453125	3083.99837821365
0.814208984375	-0.00122222900390625	3084.88338821142
0.809783935546875	-0.00123291015625	3085.76839820918
0.80535888671875	-0.0012420654296875	3086.65340820695
0.800933837890625	-0.0012493896484375	3087.53841820471
0.7965087890625	-0.00125518798828125	3088.42342820248
0.792083740234375	-0.001259765625	3089.30843820025
0.78765869140625	-0.00126251220703125	3090.19344819801
0.783233642578125	-0.00126434326171875	3091.07845819578
0.77880859375	-0.00126495361328125	3091.96346819354
0.774383544921875	-0.0012646484375	3092.84847819131
0.76995849609375	-0.00126312255859375	3093.73348818907
0.765533447265625	-0.00126068115234375	3094.61849818684
0.7611083984375	-0.00125732421875	3095.5035081846
0.756683349609375	-0.00125396728515625	3096.38851818237
0.75225830078125	-0.00124908447265625	3097.27352818014
0.747833251953125	-0.0012432861328125	3098.1585381779
0.743408203125	-0.00123748779296875	3099.04354817567
0.738983154296875	-0.00122955322265625	3099.92855817343
0.73455810546875	-0.00122283935546875	3100.8135681712
0.730133056640625	-0.00121551513671875	3101.69857816896
0.7257080078125	-0.00120819091796875	3102.58358816673
0.721282958984375	-0.0012005615234375	3103.4685981645
0.71685791015625	-0.00119232177734375	3104.35360816226
0.712432861328125	-0.00118438720703125	3105.23861816003
0.7080078125	-0.00117645263671875	3106.12362815779
0.703582763671875	-0.001168212890625	3107.00863815556
0.69915771484375	-0.00115936279296875	3107.89364815332
0.694732666015625	-0.00115142822265625	3108.77865815109
0.6903076171875	-0.00114349365234375	3109.66366814885
0.685882568359375	-0.0011358642578125	3110.54867814662
0.68145751953125	-0.00112823486328125	3111.43368814439
0.677032470703125	-0.00112030029296875	3112.31869814215
0.672607421875	-0.00111328125	3113.20370813992
0.668182373046875	-0.00110565185546875	3114.08871813768
0.66375732421875	-0.00109832763671875	3114.97372813545
0.659332275390625	-0.00109222412109375	3115.85873813321
0.6549072265625	-0.00108551025390625	3116.74374813098
0.650482177734375	-0.0010791015625	3117.62875812874
0.64605712890625	-0.00107330322265625	3118.51376812651
0.641632080078125	-0.0010675048828125	3119.39877812427
0.63720703125	-0.00106231689453125	3120.28378812204
0.632781982421875	-0.0010565185546875	3121.16879811981
0.62835693359375	-0.0010516357421875	3122.05380811757
0.623931884765625	-0.00104888916015625	3122.93881811534
0.6195068359375	-0.001043701171875	3123.8238281131
0.615081787109375	-0.0010394287109375	3124.70883811087
0.61065673828125	-0.00103485107421875	3125.59384810863
0.606231689453125	-0.0010308837890625	3126.4788581064
0.601806640625	-0.0010272216796875	3127.36386810417
0.597381591796875	-0.001024169921875	3128.24887810193
0.59295654296875	-0.0010211181640625	3129.1338880997
0.588531494140625	-0.00101837158203125	3130.01889809746
0.5841064453125	-0.0010150146484375	3130.90390809523
0.579681396484375	-0.00101318359375	3131.78891809299
0.57525634765625	-0.0010113525390625	3132.67392809076
0.570831298828125	-0.001009521484375	3133.55893808852
0.56640625	-0.00100830078125	3134.44394808629
0.561981201171875	-0.00100677490234375	3135.32895808406
0.55755615234375	-0.001005859375	3136.21396808182
0.553131103515625	-0.00100494384765625	3137.09897807959
0.5487060546875	-0.00100433349609375	3137.98398807735
0.544281005859375	-0.00100311279296875	3138.86899807512
0.53985595703125	-0.00100311279296875	3139.75400807288
0.535430908203125	-0.00100311279296875	3140.63901807065
0.531005859375	-0.0010028076171875	3141.52402806841
0.526580810546875	-0.0010028076171875	3142.40903806618
0.52215576171875	-0.00100311279296875	3143.29404806395
0.517730712890625	-0.00100372314453125	3144.17905806171
0.5133056640625	-0.0010040283203125	3145.06406805948
0.508880615234375	-0.00100433349609375	3145.94907805724
0.50445556640625	-0.001004638671875	3146.83408805501
0.500030517578125	-0.00100555419921875	3147.71909805277
0.49560546875	-0.001005859375	3148.60410805054
0.491180419921875	-0.00100677490234375	3149.4891180483
0.48675537109375	-0.00100738525390625	3150.37412804607
0.482330322265625	-0.00100830078125	3151.25913804384
0.4779052734375	-0.00100921630859375	3152.1441480416
0.473480224609375	-0.00100982666015625	3153.02915803937
0.46905517578125	-0.00101043701171875	3153.91416803713
0.464630126953125	-0.0010107421875	3154.7991780349
0.460205078125	-0.001011962890625	3155.68418803266
0.455780029296875	-0.00101226806640625	3156.56919803043
0.45135498046875	-0.00101287841796875	3157.45420802819
0.446929931640625	-0.00101318359375	3158.33921802596
0.4425048828125	-0.00101348876953125	3159.22422802373
0.438079833984375	-0.0010137939453125	3160.10923802149
0.43365478515625	-0.00101409912109375	3160.99424801926
0.429229736328125	-0.001014404296875	3161.87925801702
0.4248046875	-0.00101470947265625	3162.76426801479
0.420379638671875	-0.00101470947265625	3163.64927801255
0.41595458984375	-0.0010150146484375	3164.53428801032
0.411529541015625	-0.00101531982421875	3165.41929800808
0.4071044921875	-0.00101593017578125	3166.30430800585
0.402679443359375	-0.00101593017578125	3167.18931800362
0.39825439453125	-0.0010162353515625	3168.07432800138
0.393829345703125	-0.00101654052734375	3168.95933799915
0.389404296875	-0.0010162353515625	3169.84434799691
0.384979248046875	-0.00101715087890625	3170.72935799468
0.38055419921875	-0.00101776123046875	3171.61436799244
0.376129150390625	-0.00101837158203125	3172.49937799021
0.3717041015625	-0.001019287109375	3173.38438798797
0.367279052734375	-0.00101959228515625	3174.26939798574
0.36285400390625	-0.0010205078125	3175.15440798351
0.358428955078125	-0.00102142333984375	3176.03941798127
0.35400390625	-0.00102203369140625	3176.92442797904
0.349578857421875	-0.0010223388671875	3177.8094379768
0.34515380859375	-0.0010235595703125	3178.69444797457
0.340728759765625	-0.0010247802734375	3179.57945797233
0.3363037109375	-0.001026611328125	3180.4644679701
0.331878662109375	-0.00102752685546875	3181.34947796786
0.32745361328125	-0.001029052734375	3182.23448796563
0.323028564453125	-0.00103057861328125	3183.1194979634
0.318603515625	-0.0010321044921875	3184.00450796116
0.314178466796875	-0.00103363037109375	3184.88951795893
0.30975341796875	-0.0010369873046875	3185.77452795669
0.305328369140625	-0.0010382080078125	3186.65953795446
0.3009033203125	-0.00103973388671875	3187.54454795222
0.296478271484375	-0.001041259765625	3188.42955794999
0.29205322265625	-0.0010430908203125	3189.31456794775
0.287628173828125	-0.001044921875	3190.19957794552
0.283203125	-0.0010467529296875	3191.08458794329
0.278778076171875	-0.00104888916015625	3191.96959794105
0.27435302734375	-0.00105072021484375	3192.85460793882
0.269927978515625	-0.0010528564453125	3193.73961793658
0.2655029296875	-0.0010546875	3194.62462793435
0.261077880859375	-0.00105682373046875	3195.50963793211
0.25665283203125	-0.0010589599609375	3196.39464792988
0.252227783203125	-0.00106109619140625	3197.27965792764
0.247802734375	-0.00106353759765625	3198.16466792541
0.243377685546875	-0.0010650634765625	3199.04967792318
0.23895263671875	-0.00106719970703125	3199.93468792094
0.234527587890625	-0.0010693359375	3200.81969791871
0.2301025390625	-0.00107086181640625	3201.70470791647
0.225677490234375	-0.0010736083984375	3202.58971791424
0.22125244140625	-0.00107574462890625	3203.474727912
0.216827392578125	-0.00107818603515625	3204.35973790977
0.21240234375	-0.001080322265625	3205.24474790753
0.207977294921875	-0.00108245849609375	3206.1297579053
0.20355224609375	-0.001083984375	3207.01476790307
0.199127197265625	-0.00108642578125	3207.89977790083
0.1947021484375	-0.0010882568359375	3208.7847878986
0.190277099609375	-0.00109039306640625	3209.66979789636
0.18585205078125	-0.0010931396484375	3210.55480789413
0.181427001953125	-0.00109527587890625	3211.43981789189
0.177001953125	-0.00109710693359375	3212.32482788966
0.172576904296875	-0.00109954833984375	3213.20983788743
0.16815185546875	-0.00110198974609375	3214.09484788519
0.163726806640625	-0.00110443115234375	3214.97985788296
0.1593017578125	-0.00110748291015625	3215.86486788072
0.154876708984375	-0.00110992431640625	3216.74987787849
0.15045166015625	-0.00111297607421875	3217.63488787625
0.146026611328125	-0.0011163330078125	3218.51989787402
0.1416015625	-0.00111968994140625	3219.40490787178
0.137176513671875	-0.001123046875	3220.28991786955
0.13275146484375	-0.00112640380859375	3221.17492786732
0.128326416015625	-0.00113067626953125	3222.05993786508
0.1239013671875	-0.0011346435546875	3222.94494786285
0.119476318359375	-0.00113861083984375	3223.82995786061
0.11505126953125	-0.0011419677734375	3224.71496785838
0.110626220703125	-0.00114654541015625	3225.59997785614
0.106201171875	-0.001151123046875	3226.48498785391
0.101776123046875	-0.00115570068359375	3227.36999785167
0.09735107421875	-0.00115997314453125	3228.25500784944
0.092926025390625	-0.00116455078125	3229.1400178472
0.0885009765625	-0.00116912841796875	3230.02502784497
0.084075927734375	-0.00117340087890625	3230.91003784274
0.07965087890625	-0.001177978515625	3231.7950478405
0.075225830078125	-0.00118133544921875	3232.68005783827
0.07080078125	-0.0011859130859375	3233.56506783603
0.066375732421875	-0.0011895751953125	3234.4500778338
0.06195068359375	-0.00119415283203125	3235.33508783156
0.057525634765625	-0.00119842529296875	3236.22009782933
0.0531005859375	-0.00120269775390625	3237.1051078271
0.048675537109375	-0.00120697021484375	3237.99011782486
0.04425048828125	-0.0012109375	3238.87512782263
0.039825439453125	-0.00121551513671875	3239.76013782039
0.035400390625	-0.0012200927734375	3240.64514781816
0.030975341796875	-0.0012249755859375	3241.53015781592
0.02655029296875	-0.00123046875	3242.41516781369
0.022125244140625	-0.0012359619140625	3243.30017781145
0.0177001953125	-0.0012420654296875	3244.18518780922
0.013275146484375	-0.0012481689453125	3245.07019780699
0.00885009765625	-0.00125457763671875	3245.95520780475
0.004425048828125	-0.00126190185546875	3246.84021780252
0	-0.00126983642578125	3247.72522780028
0.004425048828125	-0.0008636474609375	3248.61023779805
0.00885009765625	-0.00057464599609375	3249.49524779581
0.013275146484375	-0.0003592529296875	3250.38025779358
0.0177001953125	-0.000192291259765625	3251.26526779134
0.022125244140625	-6.024169921875E-05	3252.15027778911
0.02655029296875	4.5916748046875E-05	3253.03528778688
0.030975341796875	0.00013275146484375	3253.92029778464
0.035400390625	0.000204986572265625	3254.80530778241
0.039825439453125	0.000265625	3255.69031778017
0.04425048828125	0.0003172607421875	3256.57532777794
0.048675537109375	0.000361175537109375	3257.4603377757
0.0531005859375	0.000399261474609375	3258.34534777347
0.057525634765625	0.0004327392578125	3259.23035777123
0.06195068359375	0.0004617919921875	3260.115367769
0.066375732421875	0.000487579345703125	3261.00037776677
0.07080078125	0.000510223388671875	3261.88538776453
0.075225830078125	0.00053070068359375	3262.7703977623
0.07965087890625	0.000548431396484375	3263.65540776006
0.084075927734375	0.000565460205078125	3264.54041775783
0.0885009765625	0.0005804443359375	3265.42542775559
0.092926025390625	0.0005946044921875	3266.31043775336
0.09735107421875	0.000607421875	3267.19544775112
0.101776123046875	0.00061920166015625	3268.08045774889
0.106201171875	0.00063018798828125	3268.96546774666
0.110626220703125	0.0006402587890625	3269.85047774442
0.11505126953125	0.0006494140625	3270.73548774219
0.119476318359375	0.00065765380859375	3271.62049773995
0.1239013671875	0.00066650390625	3272.50550773772
0.128326416015625	0.0006744384765625	3273.39051773548
0.13275146484375	0.00068206787109375	3274.27552773325
0.137176513671875	0.00068939208984375	3275.16053773101
0.1416015625	0.0006964111328125	3276.04554772878
0.146026611328125	0.000703125	3276.93055772655
0.15045166015625	0.00070953369140625	3277.81556772431
0.154876708984375	0.0007159423828125	3278.70057772208
0.1593017578125	0.00072174072265625	3279.58558771984
0.163726806640625	0.0007275390625	3280.47059771761
0.16815185546875	0.000733642578125	3281.35560771537
0.172576904296875	0.00073944091796875	3282.24061771314
0.177001953125	0.0007452392578125	3283.1256277109
0.181427001953125	0.000750732421875	3284.01063770867
0.18585205078125	0.0007562255859375	3284.89564770644
0.190277099609375	0.00076171875	3285.7806577042
0.1947021484375	0.0007672119140625	3286.66566770197
0.199127197265625	0.000772705078125	3287.55067769973
0.20355224609375	0.00077789306640625	3288.4356876975
0.207977294921875	0.00078277587890625	3289.32069769526
0.21240234375	0.00078826904296875	3290.20570769303
0.216827392578125	0.00079376220703125	3291.09071769079
0.22125244140625	0.00079925537109375	3291.97572768856
0.225677490234375	0.00080474853515625	3292.86073768633
0.2301025390625	0.00081024169921875	3293.74574768409
0.234527587890625	0.0008148193359375	3294.63075768186
0.23895263671875	0.00082061767578125	3295.51576767962
0.243377685546875	0.000826416015625	3296.40077767739
0.247802734375	0.00083160400390625	3297.28578767515
0.252227783203125	0.00083740234375	3298.17079767292
0.25665283203125	0.00084259033203125	3299.05580767068
0.261077880859375	0.000848388671875	3299.94081766845
0.2655029296875	0.0008538818359375	3300.82582766622
0.269927978515625	0.00085968017578125	3301.71083766398
0.27435302734375	0.00086517333984375	3302.59584766175
0.278778076171875	0.0008709716796875	3303.48085765951
0.283203125	0.0008770751953125	3304.36586765728
0.287628173828125	0.00088287353515625	3305.25087765504
0.29205322265625	0.00088836669921875	3306.13588765281
0.296478271484375	0.00089447021484375	3307.02089765057
0.3009033203125	0.00089996337890625	3307.90590764834
0.305328369140625	0.00090576171875	3308.79091764611
0.30975341796875	0.00091156005859375	3309.67592764387
0.314178466796875	0.0009185791015625	3310.56093764164
0.318603515625	0.000924072265625	3311.4459476394
0.323028564453125	0.0009295654296875	3312.33095763717
0.32745361328125	0.00093505859375	3313.21596763493
0.331878662109375	0.0009405517578125	3314.1009776327
0.3363037109375	0.00094573974609375	3314.98598763046
0.340728759765625	0.0009515380859375	3315.87099762823
0.34515380859375	0.0009564208984375	3316.756007626
0.349578857421875	0.00096160888671875	3317.64101762376
0.35400390625	0.000965576171875	3318.52602762153
0.358428955078125	0.00097015380859375	3319.41103761929
0.36285400390625	0.00097503662109375	3320.29604761706
0.367279052734375	0.0009796142578125	3321.18105761482
0.3717041015625	0.00098388671875	3322.06606761259
0.376129150390625	0.0009881591796875	3322.95107761036
0.38055419921875	0.00099151611328125	3323.83608760812
0.384979248046875	0.000994873046875	3324.72109760589
0.389404296875	0.00099853515625	3325.60610760365
0.393829345703125	0.00100067138671875	3326.49111760142
0.39825439453125	0.00100372314453125	3327.37612759918
0.402679443359375	0.00100677490234375	3328.26113759695
0.4071044921875	0.0010089111328125	3329.14614759471
0.411529541015625	0.00101104736328125	3330.03115759248
0.41595458984375	0.00101348876953125	3330.91616759025
0.420379638671875	0.00101531982421875	3331.80117758801
0.4248046875	0.001016845703125	3332.68618758578
0.429229736328125	0.0010186767578125	3333.57119758354
0.43365478515625	0.00101959228515625	3334.45620758131
0.438079833984375	0.00102081298828125	3335.34121757907
0.4425048828125	0.0010223388671875	3336.22622757684
0.446929931640625	0.00102294921875	3337.1112375746
0.45135498046875	0.00102386474609375	3337.99624757237
0.455780029296875	0.00102447509765625	3338.88125757013
0.460205078125	0.00102447509765625	3339.7662675679
0.464630126953125	0.001025390625	3340.65127756567
0.46905517578125	0.0010247802734375	3341.53628756343
0.473480224609375	0.0010247802734375	3342.4212975612
0.4779052734375	0.00102447509765625	3343.30630755896
0.482330322265625	0.00102386474609375	3344.19131755673
0.48675537109375	0.00102325439453125	3345.07632755449
0.491180419921875	0.0010223388671875	3345.96133755226
0.49560546875	0.00102142333984375	3346.84634755003
0.500030517578125	0.00102020263671875	3347.73135754779
0.50445556640625	0.001019287109375	3348.61636754556
0.508880615234375	0.00101806640625	3349.50137754332
0.5133056640625	0.001016845703125	3350.38638754109
0.517730712890625	0.00101531982421875	3351.27139753885
0.52215576171875	0.00101409912109375	3352.15640753662
0.526580810546875	0.00101287841796875	3353.04141753438
0.531005859375	0.0010113525390625	3353.92642753215
0.535430908203125	0.0010101318359375	3354.81143752992
0.53985595703125	0.0010089111328125	3355.69644752768
0.544281005859375	0.00100738525390625	3356.58145752545
0.5487060546875	0.001005859375	3357.46646752321
0.553131103515625	0.00100494384765625	3358.35147752098
0.55755615234375	0.00100372314453125	3359.23648751874
0.561981201171875	0.00100250244140625	3360.12149751651
0.56640625	0.0010015869140625	3361.00650751427
0.570831298828125	0.0010009765625	3361.89151751204
0.57525634765625	0.0010003662109375	3362.77652750981
0.579681396484375	0.00099945068359375	3363.66153750757
0.5841064453125	0.00099884033203125	3364.54654750534
0.588531494140625	0.000997314453125	3365.4315575031
0.59295654296875	0.000997314453125	3366.31656750087
0.597381591796875	0.00099700927734375	3367.20157749863
0.601806640625	0.00099700927734375	3368.0865874964
0.606231689453125	0.00099700927734375	3368.97159749416
0.61065673828125	0.00099761962890625	3369.85660749193
0.615081787109375	0.0009979248046875	3370.7416174897
0.6195068359375	0.00099822998046875	3371.62662748746
0.623931884765625	0.00099853515625	3372.51163748523
0.62835693359375	0.0010015869140625	3373.39664748299
0.632781982421875	0.00100189208984375	3374.28165748076
0.63720703125	0.001002197265625	3375.16666747852
0.641632080078125	0.00100341796875	3376.05167747629
0.64605712890625	0.001004638671875	3376.93668747405
0.650482177734375	0.0010064697265625	3377.82169747182
0.6549072265625	0.00100830078125	3378.70670746959
0.659332275390625	0.0010101318359375	3379.59171746735
0.66375732421875	0.00101226806640625	3380.47672746512
0.668182373046875	0.00101470947265625	3381.36173746288
0.672607421875	0.0010174560546875	3382.24674746065
0.677032470703125	0.0010205078125	3383.13175745841
0.68145751953125	0.0010235595703125	3384.01676745618
0.685882568359375	0.00102691650390625	3384.90177745394
0.6903076171875	0.0010308837890625	3385.78678745171
0.694732666015625	0.00103485107421875	3386.67179744948
0.69915771484375	0.00103973388671875	3387.55680744724
0.703582763671875	0.00104339599609375	3388.44181744501
0.7080078125	0.001048583984375	3389.32682744277
0.712432861328125	0.0010540771484375	3390.21183744054
0.71685791015625	0.0010601806640625	3391.0968474383
0.721282958984375	0.00106597900390625	3391.98185743607
0.7257080078125	0.00107269287109375	3392.86686743383
0.730133056640625	0.00107940673828125	3393.7518774316
0.73455810546875	0.00108673095703125	3394.63688742937
0.738983154296875	0.0010943603515625	3395.52189742713
0.743408203125	0.00110198974609375	3396.4069074249
0.747833251953125	0.0011114501953125	3397.29191742266
0.75225830078125	0.00112091064453125	3398.17692742043
0.756683349609375	0.001131591796875	3399.06193741819
0.7611083984375	0.00114227294921875	3399.94694741596
0.765533447265625	0.0011541748046875	3400.83195741372
0.76995849609375	0.00116668701171875	3401.71696741149
0.774383544921875	0.0011798095703125	3402.60197740926
0.77880859375	0.0011932373046875	3403.48698740702
0.783233642578125	0.0012078857421875	3404.37199740479
0.78765869140625	0.00122344970703125	3405.25700740255
0.792083740234375	0.001240234375	3406.14201740032
0.7965087890625	0.00125732421875	3407.02702739808
0.800933837890625	0.001275634765625	3407.91203739585
0.80535888671875	0.00129547119140625	3408.79704739361
0.809783935546875	0.00131591796875	3409.68205739138
0.814208984375	0.001337890625	3410.56706738915
0.818634033203125	0.00135986328125	3411.45207738691
0.82305908203125	0.00138397216796875	3412.33708738468
0.827484130859375	0.00140838623046875	3413.22209738244
0.8319091796875	0.001434326171875	3414.10710738021
0.836334228515625	0.00146148681640625	3414.99211737797
0.84075927734375	0.00148895263671875	3415.87712737574
0.845184326171875	0.00151885986328125	3416.7621373735
0.849609375	0.001549072265625	3417.64714737127
0.854034423828125	0.001580810546875	3418.53215736904
0.85845947265625	0.0016131591796875	3419.4171673668
0.862884521484375	0.0016461181640625	3420.30217736457
0.8673095703125	0.001680908203125	3421.18718736233
0.871734619140625	0.0017169189453125	3422.0721973601
0.87615966796875	0.0017535400390625	3422.95720735786
0.880584716796875	0.00179229736328125	3423.84221735563
0.885009765625	0.0018310546875	3424.72722735339
0.889434814453125	0.00187103271484375	3425.61223735116
0.89385986328125	0.00191192626953125	3426.49724734893
0.898284912109375	0.00195343017578125	3427.38225734669
0.9027099609375	0.001995849609375	3428.26726734446
0.907135009765625	0.00203887939453125	3429.15227734222
0.91156005859375	0.00208282470703125	3430.03728733999
0.915985107421875	0.00212738037109375	3430.92229733775
0.92041015625	0.0021728515625	3431.80730733552
0.924835205078125	0.00221832275390625	3432.69231733329
0.92926025390625	0.002264404296875	3433.57732733105
0.933685302734375	0.002310791015625	3434.46233732882
0.9381103515625	0.00235931396484375	3435.34734732658
0.942535400390625	0.00240570068359375	3436.23235732435
0.94696044921875	0.00245208740234375	3437.11736732211
0.951385498046875	0.0024993896484375	3438.00237731988
0.955810546875	0.00254547119140625	3438.88738731764
0.960235595703125	0.002591552734375	3439.77239731541
0.96466064453125	0.002637939453125	3440.65740731318
0.969085693359375	0.00268341064453125	3441.54241731094
0.9735107421875	0.0027288818359375	3442.42742730871
0.977935791015625	0.00277191162109375	3443.31243730647
0.98236083984375	0.002816162109375	3444.19744730424
0.986785888671875	0.00285888671875	3445.082457302
0.9912109375	0.00290252685546875	3445.96746729977
0.995635986328125	0.00294464111328125	3446.85247729753
1.00006103515625	0.0029864501953125	3447.7374872953
0.995635986328125	0.00254241943359375	3448.62249729306
0.9912109375	0.0021826171875	3449.50750729083
0.986785888671875	0.00187896728515625	3450.3925172886
0.98236083984375	0.00161529541015625	3451.27752728636
0.977935791015625	0.0013836669921875	3452.16253728413
0.9735107421875	0.00117706298828125	3453.04754728189
0.969085693359375	0.00099029541015625	3453.93255727966
0.96466064453125	0.00082061767578125	3454.81756727742
0.960235595703125	0.00066619873046875	3455.70257727519
0.955810546875	0.00052398681640625	3456.58758727296
0.951385498046875	0.000392578125	3457.47259727072
0.94696044921875	0.000271514892578125	3458.35760726849
0.942535400390625	0.000158935546875	3459.24261726625
0.9381103515625	5.413818359375E-05	3460.12762726402
0.933685302734375	-4.501953125E-05	3461.01263726178
0.92926025390625	-0.00013623046875	3461.89764725955
0.924835205078125	-0.00022119140625	3462.78265725731
0.92041015625	-0.00030108642578125	3463.66766725508
0.915985107421875	-0.000375762939453125	3464.55267725285
0.91156005859375	-0.000445892333984375	3465.43768725061
0.907135009765625	-0.000511627197265625	3466.32269724838
0.9027099609375	-0.000573272705078125	3467.20770724614
0.898284912109375	-0.00063079833984375	3468.09271724391
0.89385986328125	-0.0006854248046875	3468.97772724167
0.889434814453125	-0.00073577880859375	3469.86273723944
0.885009765625	-0.0007830810546875	3470.7477472372
0.880584716796875	-0.00082733154296875	3471.63275723497
0.87615966796875	-0.00086883544921875	3472.51776723274
0.871734619140625	-0.00090728759765625	3473.4027772305
0.8673095703125	-0.00094329833984375	3474.28778722827
0.862884521484375	-0.0009765625	3475.17279722603
0.85845947265625	-0.00100677490234375	3476.0578072238
0.854034423828125	-0.00103546142578125	3476.94281722156
0.849609375	-0.00106201171875	3477.82782721933
0.845184326171875	-0.0010858154296875	3478.71283721709
0.84075927734375	-0.00110687255859375	3479.59784721486
0.836334228515625	-0.00112701416015625	3480.48285721263
0.8319091796875	-0.00114471435546875	3481.36786721039
0.827484130859375	-0.00116058349609375	3482.25287720816
0.82305908203125	-0.00117462158203125	3483.13788720592
0.818634033203125	-0.00118682861328125	3484.02289720369
0.814208984375	-0.00119781494140625	3484.90790720145
0.809783935546875	-0.00120697021484375	3485.79291719922
0.80535888671875	-0.00121429443359375	3486.67792719698
0.800933837890625	-0.001220703125	3487.56293719475
0.7965087890625	-0.00122589111328125	3488.44794719252
0.792083740234375	-0.0012286376953125	3489.33295719028
0.78765869140625	-0.00123138427734375	3490.21796718805
0.783233642578125	-0.00123199462890625	3491.10297718581
0.77880859375	-0.001231689453125	3491.98798718358
0.774383544921875	-0.00123138427734375	3492.87299718134
0.76995849609375	-0.001229248046875	3493.75800717911
0.765533447265625	-0.0012261962890625	3494.64301717687
0.7611083984375	-0.00122314453125	3495.52802717464
0.756683349609375	-0.0012188720703125	3496.41303717241
0.75225830078125	-0.00121368408203125	3497.29804717017
0.747833251953125	-0.00120849609375	3498.18305716794
0.743408203125	-0.00120269775390625	3499.0680671657
0.738983154296875	-0.00119537353515625	3499.95307716347
0.73455810546875	-0.00118865966796875	3500.83808716123
0.730133056640625	-0.00118194580078125	3501.723097159
0.7257080078125	-0.00117462158203125	3502.60810715676
0.721282958984375	-0.00116790771484375	3503.49311715453
0.71685791015625	-0.0011602783203125	3504.3781271523
0.712432861328125	-0.0011529541015625	3505.26313715006
0.7080078125	-0.00114532470703125	3506.14814714783
0.703582763671875	-0.00113739013671875	3507.03315714559
0.69915771484375	-0.00112945556640625	3507.91816714336
0.694732666015625	-0.0011224365234375	3508.80317714112
0.6903076171875	-0.0011151123046875	3509.68818713889
0.685882568359375	-0.00110748291015625	3510.57319713665
0.68145751953125	-0.0011004638671875	3511.45820713442
0.677032470703125	-0.00109375	3512.34321713219
0.672607421875	-0.0010870361328125	3513.22822712995
0.668182373046875	-0.00108062744140625	3514.11323712772
0.66375732421875	-0.00107391357421875	3514.99824712548
0.659332275390625	-0.00106781005859375	3515.88325712325
0.6549072265625	-0.00106170654296875	3516.76826712101
0.650482177734375	-0.001055908203125	3517.65327711878
0.64605712890625	-0.00105072021484375	3518.53828711654
0.641632080078125	-0.0010455322265625	3519.42329711431
0.63720703125	-0.0010406494140625	3520.30830711208
0.632781982421875	-0.0010357666015625	3521.19331710984
0.62835693359375	-0.00103118896484375	3522.07832710761
0.623931884765625	-0.00102935791015625	3522.96333710537
0.6195068359375	-0.00102447509765625	3523.84834710314
0.615081787109375	-0.00102081298828125	3524.7333571009
0.61065673828125	-0.00101715087890625	3525.61836709867
0.606231689453125	-0.00101348876953125	3526.50337709643
0.601806640625	-0.0010107421875	3527.3883870942
0.597381591796875	-0.0010076904296875	3528.27339709197
0.59295654296875	-0.0010052490234375	3529.15840708973
0.588531494140625	-0.00100311279296875	3530.0434170875
0.5841064453125	-0.00100006103515625	3530.92842708526
0.579681396484375	-0.00099853515625	3531.81343708303
0.57525634765625	-0.00099700927734375	3532.69844708079
0.570831298828125	-0.00099609375	3533.58345707856
0.56640625	-0.000994873046875	3534.46846707632
0.561981201171875	-0.00099395751953125	3535.35347707409
0.55755615234375	-0.00099334716796875	3536.23848707186
0.553131103515625	-0.00099273681640625	3537.12349706962
0.5487060546875	-0.000992431640625	3538.00850706739
0.544281005859375	-0.00099151611328125	3538.89351706515
0.53985595703125	-0.0009918212890625	3539.77852706292
0.535430908203125	-0.00099212646484375	3540.66353706068
0.531005859375	-0.00099273681640625	3541.54854705845
0.526580810546875	-0.0009930419921875	3542.43355705622
0.52215576171875	-0.00099365234375	3543.31856705398
0.517730712890625	-0.00099456787109375	3544.20357705175
0.5133056640625	-0.00099517822265625	3545.08858704951
0.508880615234375	-0.00099609375	3545.97359704728
0.50445556640625	-0.00099700927734375	3546.85860704504
0.500030517578125	-0.0009979248046875	3547.74361704281
0.49560546875	-0.0009991455078125	3548.62862704057
0.491180419921875	-0.00100006103515625	3549.51363703834
0.48675537109375	-0.0010009765625	3550.39864703611
0.482330322265625	-0.001002197265625	3551.28365703387
0.4779052734375	-0.00100311279296875	3552.16866703164
0.473480224609375	-0.0010040283203125	3553.0536770294
0.46905517578125	-0.0010052490234375	3553.93868702717
0.464630126953125	-0.00100555419921875	3554.82369702493
0.460205078125	-0.0010064697265625	3555.7087070227
0.455780029296875	-0.0010076904296875	3556.59371702046
0.45135498046875	-0.00100799560546875	3557.47872701823
0.446929931640625	-0.0010089111328125	3558.36373701599
0.4425048828125	-0.00100982666015625	3559.24874701376
0.438079833984375	-0.0010101318359375	3560.13375701153
0.43365478515625	-0.0010107421875	3561.01876700929
0.429229736328125	-0.00101104736328125	3561.90377700706
0.4248046875	-0.00101104736328125	3562.78878700482
0.420379638671875	-0.0010113525390625	3563.67379700259
0.41595458984375	-0.00101165771484375	3564.55880700035
0.411529541015625	-0.00100982666015625	3565.44381699812
0.4071044921875	-0.0010107421875	3566.32882699589
0.402679443359375	-0.00101165771484375	3567.21383699365
0.39825439453125	-0.001011962890625	3568.09884699142
0.393829345703125	-0.00101287841796875	3568.98385698918
0.389404296875	-0.00101226806640625	3569.86886698695
0.384979248046875	-0.00101287841796875	3570.75387698471
0.38055419921875	-0.00101348876953125	3571.63888698248
0.376129150390625	-0.001014404296875	3572.52389698024
0.3717041015625	-0.0010150146484375	3573.40890697801
0.367279052734375	-0.00101593017578125	3574.29391697578
0.36285400390625	-0.0010162353515625	3575.17892697354
0.358428955078125	-0.00101715087890625	3576.06393697131
0.35400390625	-0.00101776123046875	3576.94894696907
0.349578857421875	-0.0010174560546875	3577.83395696684
0.34515380859375	-0.00101898193359375	3578.7189669646
0.340728759765625	-0.00102020263671875	3579.60397696237
0.3363037109375	-0.0010211181640625	3580.48898696013
0.331878662109375	-0.00102264404296875	3581.3739969579
0.32745361328125	-0.00102386474609375	3582.25900695567
0.323028564453125	-0.001025390625	3583.14401695343
0.318603515625	-0.00102630615234375	3584.0290269512
0.314178466796875	-0.00102752685546875	3584.91403694896
0.30975341796875	-0.0010308837890625	3585.79904694673
0.305328369140625	-0.0010321044921875	3586.68405694449
0.3009033203125	-0.0010333251953125	3587.56906694226
0.296478271484375	-0.00103485107421875	3588.45407694002
0.29205322265625	-0.00103607177734375	3589.33908693779
0.287628173828125	-0.00103790283203125	3590.22409693556
0.283203125	-0.00103973388671875	3591.10910693332
0.278778076171875	-0.00104095458984375	3591.99411693109
0.27435302734375	-0.0010430908203125	3592.87912692885
0.269927978515625	-0.00104461669921875	3593.76413692662
0.2655029296875	-0.0010467529296875	3594.64914692438
0.261077880859375	-0.001048583984375	3595.53415692215
0.25665283203125	-0.0010504150390625	3596.41916691991
0.252227783203125	-0.00105224609375	3597.30417691768
0.247802734375	-0.00105438232421875	3598.18918691545
0.243377685546875	-0.00105621337890625	3599.07419691321
0.23895263671875	-0.00105804443359375	3599.95920691098
0.234527587890625	-0.0010601806640625	3600.84421690874
0.2301025390625	-0.00106170654296875	3601.72922690651
0.225677490234375	-0.00106353759765625	3602.61423690427
0.22125244140625	-0.00106536865234375	3603.49924690204
0.216827392578125	-0.0010675048828125	3604.3842568998
0.21240234375	-0.0010693359375	3605.26926689757
0.207977294921875	-0.00107177734375	3606.15427689534
0.20355224609375	-0.00107330322265625	3607.0392868931
0.199127197265625	-0.001075439453125	3607.92429689087
0.1947021484375	-0.00107757568359375	3608.80930688863
0.190277099609375	-0.00107940673828125	3609.6943168864
0.18585205078125	-0.00108123779296875	3610.57932688416
0.181427001953125	-0.0010833740234375	3611.46433688193
0.177001953125	-0.0010858154296875	3612.34934687969
0.172576904296875	-0.0010882568359375	3613.23435687746
0.16815185546875	-0.00109039306640625	3614.11936687523
0.163726806640625	-0.00109283447265625	3615.00437687299
0.1593017578125	-0.0010955810546875	3615.88938687076
0.154876708984375	-0.00109771728515625	3616.77439686852
0.15045166015625	-0.00110107421875	3617.65940686629
0.146026611328125	-0.00110382080078125	3618.54441686405
0.1416015625	-0.001107177734375	3619.42942686182
0.137176513671875	-0.00111053466796875	3620.31443685958
0.13275146484375	-0.00111419677734375	3621.19944685735
0.128326416015625	-0.0011181640625	3622.08445685512
0.1239013671875	-0.00112213134765625	3622.96946685288
0.119476318359375	-0.00112579345703125	3623.85447685065
0.11505126953125	-0.00112884521484375	3624.73948684841
0.110626220703125	-0.0011334228515625	3625.62449684618
0.106201171875	-0.0011376953125	3626.50950684394
0.101776123046875	-0.001142578125	3627.39451684171
0.09735107421875	-0.0011468505859375	3628.27952683947
0.092926025390625	-0.0011517333984375	3629.16453683724
0.0885009765625	-0.00115631103515625	3630.04954683501
0.084075927734375	-0.0011602783203125	3630.93455683277
0.07965087890625	-0.00116455078125	3631.81956683054
0.075225830078125	-0.00116851806640625	3632.7045768283
0.07080078125	-0.001173095703125	3633.58958682607
0.066375732421875	-0.0011773681640625	3634.47459682383
0.06195068359375	-0.001181640625	3635.3596068216
0.057525634765625	-0.0011859130859375	3636.24461681936
0.0531005859375	-0.001190185546875	3637.12962681713
0.048675537109375	-0.001195068359375	3638.0146368149
0.04425048828125	-0.001199951171875	3638.89964681266
0.039825439453125	-0.001204833984375	3639.78465681043
0.035400390625	-0.00121002197265625	3640.66966680819
0.030975341796875	-0.0012158203125	3641.55467680596
0.02655029296875	-0.00122161865234375	3642.43968680372
0.022125244140625	-0.00122802734375	3643.32469680149
0.0177001953125	-0.0012347412109375	3644.20970679925
0.013275146484375	-0.0012420654296875	3645.09471679702
0.00885009765625	-0.0012493896484375	3645.97972679479
0.004425048828125	-0.0012567138671875	3646.86473679255
0	-0.0012652587890625	3647.74974679032
0.004425048828125	-0.0008599853515625	3648.63475678808
0.00885009765625	-0.0005712890625	3649.51976678585
0.013275146484375	-0.00035504150390625	3650.40477678361
0.0177001953125	-0.0001876220703125	3651.28978678138
0.022125244140625	-5.52978515625E-05	3652.17479677915
0.02655029296875	5.1300048828125E-05	3653.05980677691
0.030975341796875	0.00013861083984375	3653.94481677468
0.035400390625	0.000211151123046875	3654.82982677244
0.039825439453125	0.000272308349609375	3655.71483677021
0.04425048828125	0.000323883056640625	3656.59984676797
0.048675537109375	0.0003680419921875	3657.48485676574
0.0531005859375	0.0004066162109375	3658.3698667635
0.057525634765625	0.000440185546875	3659.25487676127
0.06195068359375	0.000469512939453125	3660.13988675904
0.066375732421875	0.00049493408203125	3661.0248967568
0.07080078125	0.0005179443359375	3661.90990675457
0.075225830078125	0.000538177490234375	3662.79491675233
0.07965087890625	0.00055615234375	3663.6799267501
0.084075927734375	0.00057366943359375	3664.56493674786
0.0885009765625	0.000588409423828125	3665.44994674563
0.092926025390625	0.000602752685546875	3666.33495674339
0.09735107421875	0.00061553955078125	3667.21996674116
0.101776123046875	0.00062744140625	3668.10497673892
0.106201171875	0.00063812255859375	3668.98998673669
0.110626220703125	0.000648193359375	3669.87499673446
0.11505126953125	0.0006573486328125	3670.76000673222
0.119476318359375	0.000665283203125	3671.64501672999
0.1239013671875	0.000673828125	3672.53002672775
0.128326416015625	0.00068206787109375	3673.41503672552
0.13275146484375	0.000689697265625	3674.30004672328
0.137176513671875	0.0006964111328125	3675.18505672105
0.1416015625	0.00070343017578125	3676.07006671882
0.146026611328125	0.0007098388671875	3676.95507671658
0.15045166015625	0.0007159423828125	3677.84008671435
0.154876708984375	0.00072235107421875	3678.72509671211
0.1593017578125	0.0007275390625	3679.61010670988
0.163726806640625	0.000733642578125	3680.49511670764
0.16815185546875	0.0007391357421875	3681.38012670541
0.172576904296875	0.00074462890625	3682.26513670317
0.177001953125	0.0007501220703125	3683.15014670094
0.181427001953125	0.00075592041015625	3684.03515669871
0.18585205078125	0.00076080322265625	3684.92016669647
0.190277099609375	0.00076629638671875	3685.80517669424
0.1947021484375	0.000771484375	3686.690186692
0.199127197265625	0.0007763671875	3687.57519668977
0.20355224609375	0.00078125	3688.46020668753
0.207977294921875	0.0007861328125	3689.3452166853
0.21240234375	0.00079132080078125	3690.23022668306
0.216827392578125	0.00079620361328125	3691.11523668083
0.22125244140625	0.0008013916015625	3692.0002466786
0.225677490234375	0.0008062744140625	3692.88525667636
0.2301025390625	0.0008111572265625	3693.77026667413
0.234527587890625	0.00081573486328125	3694.65527667189
0.23895263671875	0.0008209228515625	3695.54028666966
0.243377685546875	0.000826416015625	3696.42529666742
0.247802734375	0.00083099365234375	3697.31030666519
0.252227783203125	0.00083648681640625	3698.19531666295
0.25665283203125	0.0008416748046875	3699.08032666072
0.261077880859375	0.00084686279296875	3699.96533665849
0.2655029296875	0.00085205078125	3700.85034665625
0.269927978515625	0.0008575439453125	3701.73535665402
0.27435302734375	0.00086273193359375	3702.62036665178
0.278778076171875	0.00086822509765625	3703.50537664955
0.283203125	0.00087310791015625	3704.39038664731
0.287628173828125	0.00087860107421875	3705.27539664508
0.29205322265625	0.0008837890625	3706.16040664284
0.296478271484375	0.0008892822265625	3707.04541664061
0.3009033203125	0.00089447021484375	3707.93042663838
0.305328369140625	0.0009002685546875	3708.81543663614
0.30975341796875	0.00090545654296875	3709.70044663391
0.314178466796875	0.00091217041015625	3710.58545663167
0.318603515625	0.0009173583984375	3711.47046662944
0.323028564453125	0.0009222412109375	3712.3554766272
0.32745361328125	0.0009271240234375	3713.24048662497
0.331878662109375	0.0009326171875	3714.12549662273
0.3363037109375	0.00093719482421875	3715.0105066205
0.340728759765625	0.0009417724609375	3715.89551661827
0.34515380859375	0.0009466552734375	3716.78052661603
0.349578857421875	0.00095123291015625	3717.6655366138
0.35400390625	0.00095458984375	3718.55054661156
0.358428955078125	0.00095947265625	3719.43555660933
0.36285400390625	0.00096343994140625	3720.32056660709
0.367279052734375	0.00096832275390625	3721.20557660486
0.3717041015625	0.0009716796875	3722.09058660262
0.376129150390625	0.000975341796875	3722.97559660039
0.38055419921875	0.00097900390625	3723.86060659816
0.384979248046875	0.0009820556640625	3724.74561659592
0.389404296875	0.000985107421875	3725.63062659369
0.393829345703125	0.00098724365234375	3726.51563659145
0.39825439453125	0.000989990234375	3727.40064658922
0.402679443359375	0.00099273681640625	3728.28565658698
0.4071044921875	0.00099517822265625	3729.17066658475
0.411529541015625	0.000997314453125	3730.05567658251
0.41595458984375	0.0009991455078125	3730.94068658028
0.420379638671875	0.00100067138671875	3731.82569657805
0.4248046875	0.0010028076171875	3732.71070657581
0.429229736328125	0.0010040283203125	3733.59571657358
0.43365478515625	0.00100555419921875	3734.48072657134
0.438079833984375	0.00100677490234375	3735.36573656911
0.4425048828125	0.0010076904296875	3736.25074656687
0.446929931640625	0.0010089111328125	3737.13575656464
0.45135498046875	0.00100921630859375	3738.0207665624
0.455780029296875	0.0010101318359375	3738.90577656017
0.460205078125	0.0010107421875	3739.79078655794
0.464630126953125	0.00101104736328125	3740.6757965557
0.46905517578125	0.0010107421875	3741.56080655347
0.473480224609375	0.00101104736328125	3742.44581655123
0.4779052734375	0.0010107421875	3743.330826549
0.482330322265625	0.00101043701171875	3744.21583654676
0.48675537109375	0.0010101318359375	3745.10084654453
0.491180419921875	0.00100921630859375	3745.98585654229
0.49560546875	0.00100830078125	3746.87086654006
0.500030517578125	0.0010076904296875	3747.75587653783
0.50445556640625	0.0010064697265625	3748.64088653559
0.508880615234375	0.0010052490234375	3749.52589653336
0.5133056640625	0.00100433349609375	3750.41090653112
0.517730712890625	0.00100341796875	3751.29591652889
0.52215576171875	0.001002197265625	3752.18092652665
0.526580810546875	0.0010009765625	3753.06593652442
0.531005859375	0.000999755859375	3753.95094652218
0.535430908203125	0.00099853515625	3754.83595651995
0.53985595703125	0.00099700927734375	3755.72096651772
0.544281005859375	0.00099639892578125	3756.60597651548
0.5487060546875	0.000994873046875	3757.49098651325
0.553131103515625	0.00099395751953125	3758.37599651101
0.55755615234375	0.0009930419921875	3759.26100650878
0.561981201171875	0.00099212646484375	3760.14601650654
0.56640625	0.0009912109375	3761.03102650431
0.570831298828125	0.0009906005859375	3761.91603650208
0.57525634765625	0.00099029541015625	3762.80104649984
0.579681396484375	0.0009893798828125	3763.68605649761
0.5841064453125	0.00098907470703125	3764.57106649537
0.588531494140625	0.00098724365234375	3765.45607649314
0.59295654296875	0.00098785400390625	3766.3410864909
0.597381591796875	0.000987548828125	3767.22609648867
0.601806640625	0.00098785400390625	3768.11110648643
0.606231689453125	0.00098785400390625	3768.9961164842
0.61065673828125	0.0009881591796875	3769.88112648197
0.615081787109375	0.00098876953125	3770.76613647973
0.6195068359375	0.00098907470703125	3771.6511464775
0.623931884765625	0.00098968505859375	3772.53615647526
0.62835693359375	0.000992431640625	3773.42116647303
0.632781982421875	0.00099273681640625	3774.30617647079
0.63720703125	0.0009930419921875	3775.19118646856
0.641632080078125	0.00099456787109375	3776.07619646632
0.64605712890625	0.0009954833984375	3776.96120646409
0.650482177734375	0.00099700927734375	3777.84621646185
0.6549072265625	0.00099884033203125	3778.73122645962
0.659332275390625	0.0010009765625	3779.61623645739
0.66375732421875	0.00100250244140625	3780.50124645515
0.668182373046875	0.00100494384765625	3781.38625645292
0.672607421875	0.00100738525390625	3782.27126645068
0.677032470703125	0.00101043701171875	3783.15627644845
0.68145751953125	0.00101348876953125	3784.04128644621
0.685882568359375	0.00101654052734375	3784.92629644398
0.6903076171875	0.00102020263671875	3785.81130644175
0.694732666015625	0.0010235595703125	3786.69631643951
0.69915771484375	0.00102752685546875	3787.58132643728
0.703582763671875	0.00103118896484375	3788.46633643504
0.7080078125	0.001036376953125	3789.35134643281
0.712432861328125	0.001041259765625	3790.23635643057
0.71685791015625	0.00104644775390625	3791.12136642834
0.721282958984375	0.00105224609375	3792.0063764261
0.7257080078125	0.001058349609375	3792.89138642387
0.730133056640625	0.0010650634765625	3793.77639642164
0.73455810546875	0.00107177734375	3794.6614064194
0.738983154296875	0.0010791015625	3795.54641641717
0.743408203125	0.00108642578125	3796.43142641493
0.747833251953125	0.0010943603515625	3797.3164364127
0.75225830078125	0.001103515625	3798.20144641046
0.756683349609375	0.00111328125	3799.08645640823
0.7611083984375	0.0011236572265625	3799.97146640599
0.765533447265625	0.00113433837890625	3800.85647640376
0.76995849609375	0.00114593505859375	3801.74148640153
0.774383544921875	0.00115814208984375	3802.62649639929
0.77880859375	0.00117095947265625	3803.51150639706
0.783233642578125	0.0011846923828125	3804.39651639482
0.78765869140625	0.0011993408203125	3805.28152639259
0.792083740234375	0.001214599609375	3806.16653639035
0.7965087890625	0.00123077392578125	3807.05154638812
0.800933837890625	0.0012481689453125	3807.93655638588
0.80535888671875	0.001265869140625	3808.82156638365
0.809783935546875	0.00128509521484375	3809.70657638142
0.814208984375	0.00130584716796875	3810.59158637918
0.818634033203125	0.00132659912109375	3811.47659637695
0.82305908203125	0.00134857177734375	3812.36160637471
0.827484130859375	0.00137176513671875	3813.24661637248
0.8319091796875	0.0013958740234375	3814.13162637024
0.836334228515625	0.00142059326171875	3815.01663636801
0.84075927734375	0.00144683837890625	3815.90164636577
0.845184326171875	0.001474609375	3816.78665636354
0.849609375	0.001502685546875	3817.67166636131
0.854034423828125	0.0015325927734375	3818.55667635907
0.85845947265625	0.00156280517578125	3819.44168635684
0.862884521484375	0.0015936279296875	3820.3266963546
0.8673095703125	0.00162628173828125	3821.21170635237
0.871734619140625	0.0016595458984375	3822.09671635013
0.87615966796875	0.0016943359375	3822.9817263479
0.880584716796875	0.00172943115234375	3823.86673634566
0.885009765625	0.0017657470703125	3824.75174634343
0.889434814453125	0.001802978515625	3825.6367563412
0.89385986328125	0.00184112548828125	3826.52176633896
0.898284912109375	0.0018798828125	3827.40677633673
0.9027099609375	0.00191925048828125	3828.29178633449
0.907135009765625	0.001959228515625	3829.17679633226
0.91156005859375	0.00199981689453125	3830.06180633002
0.915985107421875	0.002041015625	3830.94681632779
0.92041015625	0.00208221435546875	3831.83182632555
0.924835205078125	0.0021246337890625	3832.71683632332
0.92926025390625	0.002166748046875	3833.60184632109
0.933685302734375	0.00220916748046875	3834.48685631885
0.9381103515625	0.00225341796875	3835.37186631662
0.942535400390625	0.0022955322265625	3836.25687631438
0.94696044921875	0.002337646484375	3837.14188631215
0.951385498046875	0.002379150390625	3838.02689630991
0.955810546875	0.0024212646484375	3838.91190630768
0.960235595703125	0.00246246337890625	3839.79691630544
0.96466064453125	0.00250274658203125	3840.68192630321
0.969085693359375	0.00254241943359375	3841.56693630098
0.9735107421875	0.002581787109375	3842.45194629874
0.977935791015625	0.00261871337890625	3843.33695629651
0.98236083984375	0.00265655517578125	3844.22196629427
0.986785888671875	0.00269317626953125	3845.10697629204
0.9912109375	0.00273040771484375	3845.9919862898
