Potential applied (V)	WE(1).Current (A)	Time (s)
0.004425048828125	-0.0552764892578125	3848.82545328265
0.00885009765625	-0.0453826904296875	3849.26795828153
0.013275146484375	-0.0377471923828125	3849.71046328042
0.0177001953125	-0.0317352294921875	3850.1529682793
0.022125244140625	-0.026904296875	3850.59547327818
0.02655029296875	-0.022955322265625	3851.03797827706
0.030975341796875	-0.0196746826171875	3851.48048327595
0.035400390625	-0.016925048828125	3851.92298827483
0.039825439453125	-0.014593505859375	3852.36549327371
0.04425048828125	-0.012615966796875	3852.80799827259
0.048675537109375	-0.010931396484375	3853.25050327148
0.0531005859375	-0.00948486328125	3853.69300827036
0.057525634765625	-0.00823974609375	3854.13551326924
0.06195068359375	-0.0071685791015625	3854.57801826813
0.066375732421875	-0.00623779296875	3855.02052326701
0.07080078125	-0.005426025390625	3855.46302826589
0.075225830078125	-0.00471954345703125	3855.90553326477
0.07965087890625	-0.00410125732421875	3856.34803826366
0.084075927734375	-0.00355743408203125	3856.79054326254
0.0885009765625	-0.0030780029296875	3857.23304826142
0.092926025390625	-0.00265411376953125	3857.67555326031
0.09735107421875	-0.0022882080078125	3858.11805825919
0.101776123046875	-0.0019537353515625	3858.56056325807
0.106201171875	-0.00165496826171875	3859.00306825695
0.110626220703125	-0.00138885498046875	3859.44557325584
0.11505126953125	-0.00114990234375	3859.88807825472
0.119476318359375	-0.00093658447265625	3860.3305832536
0.1239013671875	-0.00074310302734375	3860.77308825248
0.128326416015625	-0.00056854248046875	3861.21559325137
0.13275146484375	-0.00041168212890625	3861.65809825025
0.137176513671875	-0.000268829345703125	3862.10060324913
0.1416015625	-0.00013946533203125	3862.54310824802
0.146026611328125	-2.158203125E-05	3862.9856132469
0.15045166015625	8.55712890625E-05	3863.42811824578
0.154876708984375	0.000183441162109375	3863.87062324466
0.1593017578125	0.00027276611328125	3864.31312824355
0.163726806640625	0.000354827880859375	3864.75563324243
0.16815185546875	0.0004302978515625	3865.19813824131
0.172576904296875	0.000499755859375	3865.6406432402
0.177001953125	0.00056365966796875	3866.08314823908
0.181427001953125	0.00062335205078125	3866.52565323796
0.18585205078125	0.00067840576171875	3866.96815823684
0.190277099609375	0.00072967529296875	3867.41066323573
0.1947021484375	0.00077728271484375	3867.85316823461
0.199127197265625	0.0008209228515625	3868.29567323349
0.20355224609375	0.0008624267578125	3868.73817823238
0.207977294921875	0.00090087890625	3869.18068323126
0.21240234375	0.0009368896484375	3869.62318823014
0.216827392578125	0.0009710693359375	3870.06569322902
0.22125244140625	0.00100341796875	3870.50819822791
0.225677490234375	0.001033935546875	3870.95070322679
0.2301025390625	0.001063232421875	3871.39320822567
0.234527587890625	0.00109039306640625	3871.83571322455
0.23895263671875	0.00111663818359375	3872.27821822344
0.243377685546875	0.00114227294921875	3872.72072322232
0.247802734375	0.00116607666015625	3873.1632282212
0.252227783203125	0.00118927001953125	3873.60573322009
0.25665283203125	0.00121185302734375	3874.04823821897
0.261077880859375	0.00123321533203125	3874.49074321785
0.2655029296875	0.00125396728515625	3874.93324821673
0.269927978515625	0.00127349853515625	3875.37575321562
0.27435302734375	0.00129241943359375	3875.8182582145
0.278778076171875	0.00131103515625	3876.26076321338
0.283203125	0.0013287353515625	3876.70326821227
0.287628173828125	0.0013458251953125	3877.14577321115
0.29205322265625	0.0013629150390625	3877.58827821003
0.296478271484375	0.00137939453125	3878.03078320891
0.3009033203125	0.001395263671875	3878.4732882078
0.305328369140625	0.00141082763671875	3878.91579320668
0.30975341796875	0.00142608642578125	3879.35829820556
0.314178466796875	0.00144256591796875	3879.80080320444
0.318603515625	0.00145721435546875	3880.24330820333
0.323028564453125	0.00147125244140625	3880.68581320221
0.32745361328125	0.00148529052734375	3881.12831820109
0.331878662109375	0.00149932861328125	3881.57082319998
0.3363037109375	0.001512451171875	3882.01332819886
0.340728759765625	0.00152618408203125	3882.45583319774
0.34515380859375	0.00153900146484375	3882.89833819662
0.349578857421875	0.0015521240234375	3883.34084319551
0.35400390625	0.00156280517578125	3883.78334819439
0.358428955078125	0.00157501220703125	3884.22585319327
0.36285400390625	0.0015869140625	3884.66835819216
0.367279052734375	0.00159912109375	3885.11086319104
0.3717041015625	0.00160980224609375	3885.55336818992
0.376129150390625	0.00162109375	3885.9958731888
0.38055419921875	0.0016314697265625	3886.43837818769
0.384979248046875	0.001641845703125	3886.88088318657
0.389404296875	0.001651611328125	3887.32338818545
0.393829345703125	0.0016607666015625	3887.76589318433
0.39825439453125	0.001669921875	3888.20839818322
0.402679443359375	0.00167816162109375	3888.6509031821
0.4071044921875	0.00168670654296875	3889.09340818098
0.411529541015625	0.0016949462890625	3889.53591317987
0.41595458984375	0.0017022705078125	3889.97841817875
0.420379638671875	0.00170928955078125	3890.42092317763
0.4248046875	0.00171600341796875	3890.86342817651
0.429229736328125	0.00172210693359375	3891.3059331754
0.43365478515625	0.00172821044921875	3891.74843817428
0.438079833984375	0.0017333984375	3892.19094317316
0.4425048828125	0.00173858642578125	3892.63344817205
0.446929931640625	0.0017437744140625	3893.07595317093
0.45135498046875	0.0017486572265625	3893.51845816981
0.455780029296875	0.00175262451171875	3893.96096316869
0.460205078125	0.00175689697265625	3894.40346816758
0.464630126953125	0.00176116943359375	3894.84597316646
0.46905517578125	0.00176483154296875	3895.28847816534
0.473480224609375	0.0017681884765625	3895.73098316422
0.4779052734375	0.001771240234375	3896.17348816311
0.482330322265625	0.0017742919921875	3896.61599316199
0.48675537109375	0.00177703857421875	3897.05849816087
0.491180419921875	0.00177978515625	3897.50100315976
0.49560546875	0.00178192138671875	3897.94350815864
0.500030517578125	0.00178436279296875	3898.38601315752
0.50445556640625	0.00178619384765625	3898.8285181564
0.508880615234375	0.00178802490234375	3899.27102315529
0.5133056640625	0.00178985595703125	3899.71352815417
0.517730712890625	0.00179168701171875	3900.15603315305
0.52215576171875	0.0017938232421875	3900.59853815194
0.526580810546875	0.00179534912109375	3901.04104315082
0.531005859375	0.00179656982421875	3901.4835481497
0.535430908203125	0.001798095703125	3901.92605314858
0.53985595703125	0.00179901123046875	3902.36855814747
0.544281005859375	0.00180023193359375	3902.81106314635
0.5487060546875	0.00180084228515625	3903.25356814523
0.553131103515625	0.0018023681640625	3903.69607314411
0.55755615234375	0.00180267333984375	3904.138578143
0.561981201171875	0.0018035888671875	3904.58108314188
0.56640625	0.0018048095703125	3905.02358814076
0.570831298828125	0.00180511474609375	3905.46609313965
0.57525634765625	0.001806640625	3905.90859813853
0.579681396484375	0.00180755615234375	3906.35110313741
0.5841064453125	0.00180816650390625	3906.79360813629
0.588531494140625	0.001807861328125	3907.23611313518
0.59295654296875	0.00180908203125	3907.67861813406
0.597381591796875	0.00180999755859375	3908.12112313294
0.601806640625	0.00181121826171875	3908.56362813183
0.606231689453125	0.00181243896484375	3909.00613313071
0.61065673828125	0.00181396484375	3909.44863812959
0.615081787109375	0.00181549072265625	3909.89114312847
0.6195068359375	0.0018170166015625	3910.33364812736
0.623931884765625	0.00181884765625	3910.77615312624
0.62835693359375	0.0018231201171875	3911.21865812512
0.632781982421875	0.00182464599609375	3911.661163124
0.63720703125	0.00182586669921875	3912.10366812289
0.641632080078125	0.00182830810546875	3912.54617312177
0.64605712890625	0.00183013916015625	3912.98867812065
0.650482177734375	0.0018328857421875	3913.43118311954
0.6549072265625	0.0018353271484375	3913.87368811842
0.659332275390625	0.00183807373046875	3914.3161931173
0.66375732421875	0.00184173583984375	3914.75869811618
0.668182373046875	0.00184478759765625	3915.20120311507
0.672607421875	0.00184844970703125	3915.64370811395
0.677032470703125	0.00185211181640625	3916.08621311283
0.68145751953125	0.00185638427734375	3916.52871811172
0.685882568359375	0.00186065673828125	3916.9712231106
0.6903076171875	0.00186553955078125	3917.41372810948
0.694732666015625	0.00187042236328125	3917.85623310836
0.69915771484375	0.0018756103515625	3918.29873810725
0.703582763671875	0.0018804931640625	3918.74124310613
0.7080078125	0.00188629150390625	3919.18374810501
0.712432861328125	0.00189300537109375	3919.6262531039
0.71685791015625	0.00189971923828125	3920.06875810278
0.721282958984375	0.00190704345703125	3920.51126310166
0.7257080078125	0.00191436767578125	3920.95376810054
0.730133056640625	0.0019219970703125	3921.39627309943
0.73455810546875	0.001929931640625	3921.83877809831
0.738983154296875	0.0019390869140625	3922.28128309719
0.743408203125	0.00194732666015625	3922.72378809607
0.747833251953125	0.00195709228515625	3923.16629309496
0.75225830078125	0.00196746826171875	3923.60879809384
0.756683349609375	0.00197845458984375	3924.05130309272
0.7611083984375	0.0019903564453125	3924.49380809161
0.765533447265625	0.0020025634765625	3924.93631309049
0.76995849609375	0.00201568603515625	3925.37881808937
0.774383544921875	0.00202911376953125	3925.82132308825
0.77880859375	0.0020428466796875	3926.26382808714
0.783233642578125	0.00205780029296875	3926.70633308602
0.78765869140625	0.00207366943359375	3927.1488380849
0.792083740234375	0.00209014892578125	3927.59134308378
0.7965087890625	0.00210784912109375	3928.03384808267
0.800933837890625	0.0021270751953125	3928.47635308155
0.80535888671875	0.0021466064453125	3928.91885808043
0.809783935546875	0.002166748046875	3929.36136307932
0.814208984375	0.002188720703125	3929.8038680782
0.818634033203125	0.0022113037109375	3930.24637307708
0.82305908203125	0.002235107421875	3930.68887807596
0.827484130859375	0.0022601318359375	3931.13138307485
0.8319091796875	0.00228668212890625	3931.57388807373
0.836334228515625	0.002314453125	3932.01639307261
0.84075927734375	0.00234283447265625	3932.4588980715
0.845184326171875	0.00237274169921875	3932.90140307038
0.849609375	0.00240386962890625	3933.34390806926
0.854034423828125	0.0024365234375	3933.78641306814
0.85845947265625	0.002470703125	3934.22891806703
0.862884521484375	0.00250457763671875	3934.67142306591
0.8673095703125	0.00254150390625	3935.11392806479
0.871734619140625	0.002579345703125	3935.55643306368
0.87615966796875	0.0026190185546875	3935.99893806256
0.880584716796875	0.00265899658203125	3936.44144306144
0.885009765625	0.00270111083984375	3936.88394806032
0.889434814453125	0.0027435302734375	3937.32645305921
0.89385986328125	0.0027880859375	3937.76895805809
0.898284912109375	0.00283355712890625	3938.21146305697
0.9027099609375	0.0028802490234375	3938.65396805585
0.907135009765625	0.00292816162109375	3939.09647305474
0.91156005859375	0.00297637939453125	3939.53897805362
0.915985107421875	0.00302734375	3939.9814830525
0.92041015625	0.00307830810546875	3940.42398805139
0.924835205078125	0.00313018798828125	3940.86649305027
0.92926025390625	0.00318359375	3941.30899804915
0.933685302734375	0.0032379150390625	3941.75150304803
0.9381103515625	0.0032940673828125	3942.19400804692
0.942535400390625	0.00334991455078125	3942.6365130458
0.94696044921875	0.00340545654296875	3943.07901804468
0.951385498046875	0.00346160888671875	3943.52152304357
0.955810546875	0.003519287109375	3943.96402804245
0.960235595703125	0.0035772705078125	3944.40653304133
0.96466064453125	0.00363525390625	3944.84903804021
0.969085693359375	0.0036932373046875	3945.2915430391
0.9735107421875	0.0037518310546875	3945.73404803798
0.977935791015625	0.0038092041015625	3946.17655303686
0.98236083984375	0.0038677978515625	3946.61905803574
0.986785888671875	0.00392547607421875	3947.06156303463
0.9912109375	0.00398284912109375	3947.50406803351
0.995635986328125	0.00403961181640625	3947.94657303239
1.00006103515625	0.0040960693359375	3948.38907803128
0.995635986328125	0.00359771728515625	3948.83158303016
0.9912109375	0.00316619873046875	3949.27408802904
0.986785888671875	0.00278228759765625	3949.71659302792
0.98236083984375	0.00243438720703125	3950.15909802681
0.977935791015625	0.002117919921875	3950.60160302569
0.9735107421875	0.00182861328125	3951.04410802457
0.969085693359375	0.00156036376953125	3951.48661302346
0.96466064453125	0.00131195068359375	3951.92911802234
0.960235595703125	0.00108154296875	3952.37162302122
0.955810546875	0.00086669921875	3952.8141280201
0.951385498046875	0.00066619873046875	3953.25663301899
0.94696044921875	0.000478363037109375	3953.69913801787
0.942535400390625	0.000302215576171875	3954.14164301675
0.9381103515625	0.000136932373046875	3954.58414801564
0.933685302734375	-2.0501708984375E-05	3955.02665301452
0.92926025390625	-0.000166778564453125	3955.4691580134
0.924835205078125	-0.000304534912109375	3955.91166301228
0.92041015625	-0.00043487548828125	3956.35416801117
0.915985107421875	-0.000557586669921875	3956.79667301005
0.91156005859375	-0.00067352294921875	3957.23917800893
0.907135009765625	-0.0007830810546875	3957.68168300781
0.9027099609375	-0.0008868408203125	3958.1241880067
0.898284912109375	-0.00098480224609375	3958.56669300558
0.89385986328125	-0.001077880859375	3959.00919800446
0.889434814453125	-0.00116546630859375	3959.45170300335
0.885009765625	-0.00124847412109375	3959.89420800223
0.880584716796875	-0.00132659912109375	3960.33671300111
0.87615966796875	-0.0014007568359375	3960.77921799999
0.871734619140625	-0.0014703369140625	3961.22172299888
0.8673095703125	-0.00153594970703125	3961.66422799776
0.862884521484375	-0.00159820556640625	3962.10673299664
0.85845947265625	-0.0016552734375	3962.54923799552
0.854034423828125	-0.00171051025390625	3962.99174299441
0.849609375	-0.00176177978515625	3963.43424799329
0.845184326171875	-0.00180938720703125	3963.87675299217
0.84075927734375	-0.00185455322265625	3964.31925799106
0.836334228515625	-0.00189605712890625	3964.76176298994
0.8319091796875	-0.00193511962890625	3965.20426798882
0.827484130859375	-0.0019708251953125	3965.6467729877
0.82305908203125	-0.00200439453125	3966.08927798659
0.818634033203125	-0.00203460693359375	3966.53178298547
0.814208984375	-0.00206298828125	3966.97428798435
0.809783935546875	-0.00208892822265625	3967.41679298324
0.80535888671875	-0.00211273193359375	3967.85929798212
0.800933837890625	-0.0021337890625	3968.301802981
0.7965087890625	-0.00215301513671875	3968.74430797988
0.792083740234375	-0.0021697998046875	3969.18681297877
0.78765869140625	-0.00218475341796875	3969.62931797765
0.783233642578125	-0.0021978759765625	3970.07182297653
0.77880859375	-0.0022088623046875	3970.51432797541
0.774383544921875	-0.0022186279296875	3970.9568329743
0.76995849609375	-0.0022265625	3971.39933797318
0.765533447265625	-0.00223297119140625	3971.84184297206
0.7611083984375	-0.00223785400390625	3972.28434797095
0.756683349609375	-0.0022418212890625	3972.72685296983
0.75225830078125	-0.00224365234375	3973.16935796871
0.747833251953125	-0.00224395751953125	3973.61186296759
0.743408203125	-0.00224365234375	3974.05436796648
0.738983154296875	-0.0022412109375	3974.49687296536
0.73455810546875	-0.0022393798828125	3974.93937796424
0.730133056640625	-0.0022357177734375	3975.38188296313
0.7257080078125	-0.0022320556640625	3975.82438796201
0.721282958984375	-0.00222747802734375	3976.26689296089
0.71685791015625	-0.0022222900390625	3976.70939795977
0.712432861328125	-0.002215576171875	3977.15190295866
0.7080078125	-0.0022088623046875	3977.59440795754
0.703582763671875	-0.0022015380859375	3978.03691295642
0.69915771484375	-0.00219329833984375	3978.47941795531
0.694732666015625	-0.002186279296875	3978.92192295419
0.6903076171875	-0.00217864990234375	3979.36442795307
0.685882568359375	-0.00217010498046875	3979.80693295195
0.68145751953125	-0.002161865234375	3980.24943795084
0.677032470703125	-0.0021539306640625	3980.69194294972
0.672607421875	-0.00214569091796875	3981.1344479486
0.668182373046875	-0.00213653564453125	3981.57695294748
0.66375732421875	-0.00212890625	3982.01945794637
0.659332275390625	-0.0021209716796875	3982.46196294525
0.6549072265625	-0.002113037109375	3982.90446794413
0.650482177734375	-0.0021051025390625	3983.34697294302
0.64605712890625	-0.00209747314453125	3983.7894779419
0.641632080078125	-0.0020904541015625	3984.23198294078
0.63720703125	-0.00208343505859375	3984.67448793966
0.632781982421875	-0.00207611083984375	3985.11699293855
0.62835693359375	-0.0020697021484375	3985.55949793743
0.623931884765625	-0.0020660400390625	3986.00200293631
0.6195068359375	-0.00205963134765625	3986.4445079352
0.615081787109375	-0.00205352783203125	3986.88701293408
0.61065673828125	-0.0020477294921875	3987.32951793296
0.606231689453125	-0.00204254150390625	3987.77202293184
0.601806640625	-0.002037353515625	3988.21452793073
0.597381591796875	-0.00203277587890625	3988.65703292961
0.59295654296875	-0.00202880859375	3989.09953792849
0.588531494140625	-0.002025146484375	3989.54204292737
0.5841064453125	-0.002020263671875	3989.98454792626
0.579681396484375	-0.0020172119140625	3990.42705292514
0.57525634765625	-0.00201416015625	3990.86955792402
0.570831298828125	-0.0020123291015625	3991.31206292291
0.56640625	-0.0020098876953125	3991.75456792179
0.561981201171875	-0.002008056640625	3992.19707292067
0.55755615234375	-0.00200653076171875	3992.63957791955
0.553131103515625	-0.002005615234375	3993.08208291844
0.5487060546875	-0.00200469970703125	3993.52458791732
0.544281005859375	-0.00200347900390625	3993.9670929162
0.53985595703125	-0.002003173828125	3994.40959791509
0.535430908203125	-0.002003173828125	3994.85210291397
0.531005859375	-0.0020037841796875	3995.29460791285
0.526580810546875	-0.00200408935546875	3995.73711291173
0.52215576171875	-0.00200531005859375	3996.17961791062
0.517730712890625	-0.00200653076171875	3996.6221229095
0.5133056640625	-0.00200775146484375	3997.06462790838
0.508880615234375	-0.00200897216796875	3997.50713290726
0.50445556640625	-0.002010498046875	3997.94963790615
0.500030517578125	-0.0020123291015625	3998.39214290503
0.49560546875	-0.0020147705078125	3998.83464790391
0.491180419921875	-0.00201690673828125	3999.2771529028
0.48675537109375	-0.00201934814453125	3999.71965790168
0.482330322265625	-0.00202178955078125	4000.16216290056
0.4779052734375	-0.00202392578125	4000.60466789944
0.473480224609375	-0.0020263671875	4001.04717289833
0.46905517578125	-0.00202880859375	4001.48967789721
0.464630126953125	-0.00203125	4001.93218289609
0.460205078125	-0.00203399658203125	4002.37468789498
0.455780029296875	-0.0020367431640625	4002.81719289386
0.45135498046875	-0.0020391845703125	4003.25969789274
0.446929931640625	-0.002042236328125	4003.70220289162
0.4425048828125	-0.002044677734375	4004.14470789051
0.438079833984375	-0.002047119140625	4004.58721288939
0.43365478515625	-0.0020489501953125	4005.02971788827
0.429229736328125	-0.00205108642578125	4005.47222288715
0.4248046875	-0.00205352783203125	4005.91472788604
0.420379638671875	-0.0020550537109375	4006.35723288492
0.41595458984375	-0.002056884765625	4006.7997378838
0.411529541015625	-0.00205841064453125	4007.24224288269
0.4071044921875	-0.0020599365234375	4007.68474788157
0.402679443359375	-0.002061767578125	4008.12725288045
0.39825439453125	-0.00206268310546875	4008.56975787933
0.393829345703125	-0.00206390380859375	4009.01226287822
0.389404296875	-0.002064208984375	4009.4547678771
0.384979248046875	-0.0020654296875	4009.89727287598
0.38055419921875	-0.0020660400390625	4010.33977787487
0.376129150390625	-0.0020672607421875	4010.78228287375
0.3717041015625	-0.00206817626953125	4011.22478787263
0.367279052734375	-0.0020684814453125	4011.66729287151
0.36285400390625	-0.00206939697265625	4012.1097978704
0.358428955078125	-0.00206939697265625	4012.55230286928
0.35400390625	-0.00207061767578125	4012.99480786816
0.349578857421875	-0.0020697021484375	4013.43731286704
0.34515380859375	-0.0020709228515625	4013.87981786593
0.340728759765625	-0.00207122802734375	4014.32232286481
0.3363037109375	-0.00207244873046875	4014.76482786369
0.331878662109375	-0.00207366943359375	4015.20733286258
0.32745361328125	-0.0020745849609375	4015.64983786146
0.323028564453125	-0.00207550048828125	4016.09234286034
0.318603515625	-0.00207672119140625	4016.53484785922
0.314178466796875	-0.00207763671875	4016.97735285811
0.30975341796875	-0.002081298828125	4017.41985785699
0.305328369140625	-0.0020819091796875	4017.86236285587
0.3009033203125	-0.00208282470703125	4018.30486785476
0.296478271484375	-0.00208404541015625	4018.74737285364
0.29205322265625	-0.0020855712890625	4019.18987785252
0.287628173828125	-0.00208709716796875	4019.6323828514
0.283203125	-0.00208892822265625	4020.07488785029
0.278778076171875	-0.00209014892578125	4020.51739284917
0.27435302734375	-0.00209197998046875	4020.95989784805
0.269927978515625	-0.00209381103515625	4021.40240284693
0.2655029296875	-0.00209564208984375	4021.84490784582
0.261077880859375	-0.0020977783203125	4022.2874128447
0.25665283203125	-0.0021002197265625	4022.72991784358
0.252227783203125	-0.00210235595703125	4023.17242284247
0.247802734375	-0.0021044921875	4023.61492784135
0.243377685546875	-0.00210693359375	4024.05743284023
0.23895263671875	-0.0021087646484375	4024.49993783911
0.234527587890625	-0.0021112060546875	4024.942442838
0.2301025390625	-0.00211334228515625	4025.38494783688
0.225677490234375	-0.002115478515625	4025.82745283576
0.22125244140625	-0.00211761474609375	4026.26995783465
0.216827392578125	-0.00212066650390625	4026.71246283353
0.21240234375	-0.00212371826171875	4027.15496783241
0.207977294921875	-0.00212646484375	4027.59747283129
0.20355224609375	-0.00212921142578125	4028.03997783018
0.199127197265625	-0.0021319580078125	4028.48248282906
0.1947021484375	-0.00213470458984375	4028.92498782794
0.190277099609375	-0.0021380615234375	4029.36749282683
0.18585205078125	-0.00214080810546875	4029.80999782571
0.181427001953125	-0.00214385986328125	4030.25250282459
0.177001953125	-0.002147216796875	4030.69500782347
0.172576904296875	-0.0021502685546875	4031.13751282236
0.16815185546875	-0.00215362548828125	4031.58001782124
0.163726806640625	-0.002156982421875	4032.02252282012
0.1593017578125	-0.00216064453125	4032.465027819
0.154876708984375	-0.0021636962890625	4032.90753281789
0.15045166015625	-0.00216796875	4033.35003781677
0.146026611328125	-0.002171630859375	4033.79254281565
0.1416015625	-0.002176513671875	4034.23504781454
0.137176513671875	-0.00218109130859375	4034.67755281342
0.13275146484375	-0.00218536376953125	4035.1200578123
0.128326416015625	-0.00219024658203125	4035.56256281118
0.1239013671875	-0.002196044921875	4036.00506781007
0.119476318359375	-0.00220123291015625	4036.44757280895
0.11505126953125	-0.00220611572265625	4036.89007780783
0.110626220703125	-0.00221221923828125	4037.33258280671
0.106201171875	-0.00221923828125	4037.7750878056
0.101776123046875	-0.00222564697265625	4038.21759280448
0.09735107421875	-0.00223358154296875	4038.66009780336
0.092926025390625	-0.00224090576171875	4039.10260280225
0.0885009765625	-0.00224884033203125	4039.54510780113
0.084075927734375	-0.0022564697265625	4039.98761280001
0.07965087890625	-0.00226470947265625	4040.43011779889
0.075225830078125	-0.0022723388671875	4040.87262279778
0.07080078125	-0.002281494140625	4041.31512779666
0.066375732421875	-0.00229034423828125	4041.75763279554
0.06195068359375	-0.00229949951171875	4042.20013779443
0.057525634765625	-0.0023089599609375	4042.64264279331
0.0531005859375	-0.00231842041015625	4043.08514779219
0.048675537109375	-0.00232757568359375	4043.52765279107
0.04425048828125	-0.00233734130859375	4043.97015778996
0.039825439453125	-0.00234619140625	4044.41266278884
0.035400390625	-0.00235565185546875	4044.85516778772
0.030975341796875	-0.00236572265625	4045.29767278661
0.02655029296875	-0.00237548828125	4045.74017778549
0.022125244140625	-0.00238525390625	4046.18268278437
0.0177001953125	-0.0023956298828125	4046.62518778325
0.013275146484375	-0.00240509033203125	4047.06769278214
0.00885009765625	-0.00241607666015625	4047.51019778102
0.004425048828125	-0.00242645263671875	4047.9527027799
0	-0.00243743896484375	4048.39520777878
0.004425048828125	-0.00193695068359375	4048.83771277767
0.00885009765625	-0.00152618408203125	4049.28021777655
0.013275146484375	-0.001180419921875	4049.72272277543
0.0177001953125	-0.0008843994140625	4050.16522777432
0.022125244140625	-0.000628662109375	4050.6077327732
0.02655029296875	-0.000406402587890625	4051.05023777208
0.030975341796875	-0.00021136474609375	4051.49274277096
0.035400390625	-3.92303466796875E-05	4051.93524776985
0.039825439453125	0.0001124267578125	4052.37775276873
0.04425048828125	0.0002470703125	4052.82025776761
0.048675537109375	0.000366912841796875	4053.2627627665
0.0531005859375	0.00047430419921875	4053.70526776538
0.057525634765625	0.00057049560546875	4054.14777276426
0.06195068359375	0.000656341552734375	4054.59027776314
0.066375732421875	0.0007342529296875	4055.03278276203
0.07080078125	0.0008038330078125	4055.47528776091
0.075225830078125	0.0008673095703125	4055.91779275979
0.07965087890625	0.0009234619140625	4056.36029775867
0.084075927734375	0.0009747314453125	4056.80280275756
0.0885009765625	0.001021728515625	4057.24530775644
0.092926025390625	0.00106414794921875	4057.68781275532
0.09735107421875	0.00110321044921875	4058.13031775421
0.101776123046875	0.00113983154296875	4058.57282275309
0.106201171875	0.001173095703125	4059.01532775197
0.110626220703125	0.00120330810546875	4059.45783275085
0.11505126953125	0.001231689453125	4059.90033774974
0.119476318359375	0.001256103515625	4060.34284274862
0.1239013671875	0.001280517578125	4060.7853477475
0.128326416015625	0.00130340576171875	4061.22785274639
0.13275146484375	0.001324462890625	4061.67035774527
0.137176513671875	0.00134429931640625	4062.11286274415
0.1416015625	0.00136260986328125	4062.55536774303
0.146026611328125	0.0013800048828125	4062.99787274192
0.15045166015625	0.001396484375	4063.4403777408
0.154876708984375	0.0014117431640625	4063.88288273968
0.1593017578125	0.00142578125	4064.32538773857
0.163726806640625	0.0014398193359375	4064.76789273745
0.16815185546875	0.00145355224609375	4065.21039773633
0.172576904296875	0.00146636962890625	4065.65290273521
0.177001953125	0.00147857666015625	4066.0954077341
0.181427001953125	0.001490478515625	4066.53791273298
0.18585205078125	0.00150177001953125	4066.98041773186
0.190277099609375	0.00151336669921875	4067.42292273074
0.1947021484375	0.0015240478515625	4067.86542772963
0.199127197265625	0.001534423828125	4068.30793272851
0.20355224609375	0.0015447998046875	4068.75043772739
0.207977294921875	0.0015545654296875	4069.19294272628
0.21240234375	0.00156463623046875	4069.63544772516
0.216827392578125	0.0015740966796875	4070.07795272404
0.22125244140625	0.0015838623046875	4070.52045772292
0.225677490234375	0.001593017578125	4070.96296272181
0.2301025390625	0.0016021728515625	4071.40546772069
0.234527587890625	0.00161102294921875	4071.84797271957
0.23895263671875	0.001619873046875	4072.29047771845
0.243377685546875	0.00162933349609375	4072.73298271734
0.247802734375	0.00163848876953125	4073.17548771622
0.252227783203125	0.0016473388671875	4073.6179927151
0.25665283203125	0.00165618896484375	4074.06049771399
0.261077880859375	0.00166473388671875	4074.50300271287
0.2655029296875	0.00167388916015625	4074.94550771175
0.269927978515625	0.00168243408203125	4075.38801271063
0.27435302734375	0.0016912841796875	4075.83051770952
0.278778076171875	0.00170013427734375	4076.2730227084
0.283203125	0.001708984375	4076.71552770728
0.287628173828125	0.001717529296875	4077.15803270617
0.29205322265625	0.00172607421875	4077.60053770505
0.296478271484375	0.0017352294921875	4078.04304270393
0.3009033203125	0.00174407958984375	4078.48554770281
0.305328369140625	0.0017529296875	4078.9280527017
0.30975341796875	0.00176177978515625	4079.37055770058
0.314178466796875	0.00177215576171875	4079.81306269946
0.318603515625	0.001781005859375	4080.25556769834
0.323028564453125	0.00178985595703125	4080.69807269723
0.32745361328125	0.0017987060546875	4081.14057769611
0.331878662109375	0.0018072509765625	4081.58308269499
0.3363037109375	0.00181610107421875	4082.02558769388
0.340728759765625	0.00182464599609375	4082.46809269276
0.34515380859375	0.00183380126953125	4082.91059769164
0.349578857421875	0.00184295654296875	4083.35310269052
0.35400390625	0.0018499755859375	4083.79560768941
0.358428955078125	0.00185882568359375	4084.23811268829
0.36285400390625	0.00186737060546875	4084.68061768717
0.367279052734375	0.00187530517578125	4085.12312268606
0.3717041015625	0.001883544921875	4085.56562768494
0.376129150390625	0.00189208984375	4086.00813268382
0.38055419921875	0.00189971923828125	4086.4506376827
0.384979248046875	0.00190673828125	4086.89314268159
0.389404296875	0.0019140625	4087.33564768047
0.393829345703125	0.0019207763671875	4087.77815267935
0.39825439453125	0.00192718505859375	4088.22065767824
0.402679443359375	0.00193359375	4088.66316267712
0.4071044921875	0.0019390869140625	4089.105667676
0.411529541015625	0.00194488525390625	4089.54817267488
0.41595458984375	0.00195037841796875	4089.99067767377
0.420379638671875	0.00195465087890625	4090.43318267265
0.4248046875	0.00195953369140625	4090.87568767153
0.429229736328125	0.00196319580078125	4091.31819267041
0.43365478515625	0.0019671630859375	4091.7606976693
0.438079833984375	0.00197113037109375	4092.20320266818
0.4425048828125	0.00197479248046875	4092.64570766706
0.446929931640625	0.00197784423828125	4093.08821266595
0.45135498046875	0.0019805908203125	4093.53071766483
0.455780029296875	0.00198394775390625	4093.97322266371
0.460205078125	0.001986083984375	4094.41572766259
0.464630126953125	0.00198883056640625	4094.85823266148
0.46905517578125	0.001990966796875	4095.30073766036
0.473480224609375	0.00199310302734375	4095.74324265924
0.4779052734375	0.00199554443359375	4096.18574765813
0.482330322265625	0.00199737548828125	4096.62825265701
0.48675537109375	0.0019989013671875	4097.07075765589
0.491180419921875	0.0020001220703125	4097.51326265477
0.49560546875	0.0020013427734375	4097.95576765366
0.500030517578125	0.002001953125	4098.39827265254
0.50445556640625	0.00200286865234375	4098.84077765142
0.508880615234375	0.00200286865234375	4099.2832826503
0.5133056640625	0.00200286865234375	4099.72578764919
0.517730712890625	0.00200286865234375	4100.16829264807
0.52215576171875	0.00200286865234375	4100.61079764695
0.526580810546875	0.0020025634765625	4101.05330264584
0.531005859375	0.002001953125	4101.49580764472
0.535430908203125	0.00200103759765625	4101.9383126436
0.53985595703125	0.0020001220703125	4102.38081764248
0.544281005859375	0.00199951171875	4102.82332264137
0.5487060546875	0.0019970703125	4103.26582764025
0.553131103515625	0.00199676513671875	4103.70833263913
0.55755615234375	0.00199493408203125	4104.15083763802
0.561981201171875	0.00199371337890625	4104.5933426369
0.56640625	0.00199249267578125	4105.03584763578
0.570831298828125	0.00199127197265625	4105.47835263466
0.57525634765625	0.00198974609375	4105.92085763355
0.579681396484375	0.001988525390625	4106.36336263243
0.5841064453125	0.0019873046875	4106.80586763131
0.588531494140625	0.00198486328125	4107.24837263019
0.59295654296875	0.00198394775390625	4107.69087762908
0.597381591796875	0.0019830322265625	4108.13338262796
0.601806640625	0.001982421875	4108.57588762684
0.606231689453125	0.0019818115234375	4109.01839262573
0.61065673828125	0.00198150634765625	4109.46089762461
0.615081787109375	0.001981201171875	4109.90340262349
0.6195068359375	0.00198089599609375	4110.34590762237
0.623931884765625	0.001981201171875	4110.78841262126
0.62835693359375	0.001983642578125	4111.23091762014
0.632781982421875	0.00198333740234375	4111.67342261902
0.63720703125	0.00198333740234375	4112.11592761791
0.641632080078125	0.00198333740234375	4112.55843261679
0.64605712890625	0.0019842529296875	4113.00093761567
0.650482177734375	0.00198516845703125	4113.44344261455
0.6549072265625	0.00198638916015625	4113.88594761344
0.659332275390625	0.00198760986328125	4114.32845261232
0.66375732421875	0.00198944091796875	4114.7709576112
0.668182373046875	0.0019915771484375	4115.21346261009
0.672607421875	0.00199310302734375	4115.65596760897
0.677032470703125	0.00199615478515625	4116.09847260785
0.68145751953125	0.0019989013671875	4116.54097760673
0.685882568359375	0.002001953125	4116.98348260562
0.6903076171875	0.002005615234375	4117.4259876045
0.694732666015625	0.00200927734375	4117.86849260338
0.69915771484375	0.0020135498046875	4118.31099760226
0.703582763671875	0.0020172119140625	4118.75350260115
0.7080078125	0.00202178955078125	4119.19600760003
0.712432861328125	0.00202728271484375	4119.63851259891
0.71685791015625	0.002032470703125	4120.08101759779
0.721282958984375	0.00203857421875	4120.52352259668
0.7257080078125	0.00204498291015625	4120.96602759556
0.730133056640625	0.002052001953125	4121.40853259444
0.73455810546875	0.00205902099609375	4121.85103759333
0.738983154296875	0.00206695556640625	4122.29354259221
0.743408203125	0.00207366943359375	4122.73604759109
0.747833251953125	0.0020819091796875	4123.17855258997
0.75225830078125	0.00209197998046875	4123.62105758886
0.756683349609375	0.00210174560546875	4124.06356258774
0.7611083984375	0.00211212158203125	4124.50606758662
0.765533447265625	0.0021234130859375	4124.94857258551
0.76995849609375	0.00213470458984375	4125.39107758439
0.774383544921875	0.002147216796875	4125.83358258327
0.77880859375	0.0021600341796875	4126.27608758215
0.783233642578125	0.00217376708984375	4126.71859258104
0.78765869140625	0.0021881103515625	4127.16109757992
0.792083740234375	0.002203369140625	4127.6036025788
0.7965087890625	0.00221923828125	4128.04610757769
0.800933837890625	0.00223724365234375	4128.48861257657
0.80535888671875	0.00225555419921875	4128.93111757545
0.809783935546875	0.0022747802734375	4129.37362257433
0.814208984375	0.00229461669921875	4129.81612757322
0.818634033203125	0.00231597900390625	4130.2586325721
0.82305908203125	0.0023382568359375	4130.70113757098
0.827484130859375	0.0023614501953125	4131.14364256986
0.8319091796875	0.00238616943359375	4131.58614756875
0.836334228515625	0.002412109375	4132.02865256763
0.84075927734375	0.00243927001953125	4132.47115756651
0.845184326171875	0.0024676513671875	4132.9136625654
0.849609375	0.00249664306640625	4133.35616756428
0.854034423828125	0.002528076171875	4133.79867256316
0.85845947265625	0.002559814453125	4134.24117756204
0.862884521484375	0.0025927734375	4134.68368256093
0.8673095703125	0.00262725830078125	4135.12618755981
0.871734619140625	0.0026629638671875	4135.56869255869
0.87615966796875	0.0027008056640625	4136.01119755758
0.880584716796875	0.0027392578125	4136.45370255646
0.885009765625	0.00277862548828125	4136.89620755534
0.889434814453125	0.00281982421875	4137.33871255422
0.89385986328125	0.00286224365234375	4137.78121755311
0.898284912109375	0.00290557861328125	4138.22372255199
0.9027099609375	0.00295074462890625	4138.66622755087
0.907135009765625	0.00299652099609375	4139.10873254975
0.91156005859375	0.00304290771484375	4139.55123754864
0.915985107421875	0.00309173583984375	4139.99374254752
0.92041015625	0.00314056396484375	4140.4362475464
0.924835205078125	0.00319091796875	4140.87875254529
0.92926025390625	0.00324188232421875	4141.32125754417
0.933685302734375	0.00329315185546875	4141.76376254305
0.9381103515625	0.00334808349609375	4142.20626754193
0.942535400390625	0.0034014892578125	4142.64877254082
0.94696044921875	0.0034552001953125	4143.0912775397
0.951385498046875	0.0035101318359375	4143.53378253858
0.955810546875	0.0035650634765625	4143.97628753747
0.960235595703125	0.00361968994140625	4144.41879253635
0.96466064453125	0.003675537109375	4144.86129753523
0.969085693359375	0.0037322998046875	4145.30380253411
0.9735107421875	0.003787841796875	4145.746307533
0.977935791015625	0.00384246826171875	4146.18881253188
0.98236083984375	0.0038983154296875	4146.63131753076
0.986785888671875	0.00395355224609375	4147.07382252965
0.9912109375	0.00400848388671875	4147.51632752853
0.995635986328125	0.0040631103515625	4147.95883252741
1.00006103515625	0.0041168212890625	4148.40133752629
0.995635986328125	0.00361663818359375	4148.84384252518
0.9912109375	0.0031842041015625	4149.28634752406
0.986785888671875	0.00279815673828125	4149.72885252294
0.98236083984375	0.00244964599609375	4150.17135752182
0.977935791015625	0.0021319580078125	4150.61386252071
0.9735107421875	0.00184173583984375	4151.05636751959
0.969085693359375	0.001572265625	4151.49887251847
0.96466064453125	0.0013238525390625	4151.94137751736
0.960235595703125	0.0010931396484375	4152.38388251624
0.955810546875	0.00087799072265625	4152.82638751512
0.951385498046875	0.00067718505859375	4153.268892514
0.94696044921875	0.00048944091796875	4153.71139751289
0.942535400390625	0.000313385009765625	4154.15390251177
0.9381103515625	0.000148040771484375	4154.59640751065
0.933685302734375	-8.99658203125001E-06	4155.03891250954
0.92926025390625	-0.00015472412109375	4155.48141750842
0.924835205078125	-0.00029193115234375	4155.9239225073
0.92041015625	-0.000421478271484375	4156.36642750618
0.915985107421875	-0.000543304443359375	4156.80893250507
0.91156005859375	-0.0006588134765625	4157.25143750395
0.907135009765625	-0.000767822265625	4157.69394250283
0.9027099609375	-0.00087066650390625	4158.13644750171
0.898284912109375	-0.00096771240234375	4158.5789525006
0.89385986328125	-0.0010595703125	4159.02145749948
0.889434814453125	-0.001146240234375	4159.46396249836
0.885009765625	-0.0012286376953125	4159.90646749725
0.880584716796875	-0.00130584716796875	4160.34897249613
0.87615966796875	-0.00137908935546875	4160.79147749501
0.871734619140625	-0.00144775390625	4161.23398249389
0.8673095703125	-0.00151275634765625	4161.67648749278
0.862884521484375	-0.001573486328125	4162.11899249166
0.85845947265625	-0.0016302490234375	4162.56149749054
0.854034423828125	-0.00168426513671875	4163.00400248943
0.849609375	-0.001734619140625	4163.44650748831
0.845184326171875	-0.0017816162109375	4163.88901248719
0.84075927734375	-0.00182586669921875	4164.33151748607
0.836334228515625	-0.00186676025390625	4164.77402248496
0.8319091796875	-0.00190521240234375	4165.21652748384
0.827484130859375	-0.00194061279296875	4165.65903248272
0.82305908203125	-0.0019732666015625	4166.10153748161
0.818634033203125	-0.00200347900390625	4166.54404248049
0.814208984375	-0.0020306396484375	4166.98654747937
0.809783935546875	-0.0020556640625	4167.42905247825
0.80535888671875	-0.00207916259765625	4167.87155747714
0.800933837890625	-0.00209991455078125	4168.31406247602
0.7965087890625	-0.0021185302734375	4168.7565674749
0.792083740234375	-0.00213531494140625	4169.19907247378
0.78765869140625	-0.002149658203125	4169.64157747267
0.783233642578125	-0.00216278076171875	4170.08408247155
0.77880859375	-0.00217376708984375	4170.52658747043
0.774383544921875	-0.00218353271484375	4170.96909246932
0.76995849609375	-0.00219146728515625	4171.4115974682
0.765533447265625	-0.00219757080078125	4171.85410246708
0.7611083984375	-0.00220306396484375	4172.29660746596
0.756683349609375	-0.00220672607421875	4172.73911246485
0.75225830078125	-0.00220916748046875	4173.18161746373
0.747833251953125	-0.00220977783203125	4173.62412246261
0.743408203125	-0.00220947265625	4174.0666274615
0.738983154296875	-0.00220733642578125	4174.50913246038
0.73455810546875	-0.0022052001953125	4174.95163745926
0.730133056640625	-0.0022021484375	4175.39414245814
0.7257080078125	-0.002198486328125	4175.83664745703
0.721282958984375	-0.002193603515625	4176.27915245591
0.71685791015625	-0.002188720703125	4176.72165745479
0.712432861328125	-0.00218292236328125	4177.16416245367
0.7080078125	-0.0021771240234375	4177.60666745256
0.703582763671875	-0.00217041015625	4178.04917245144
0.69915771484375	-0.00216278076171875	4178.49167745032
0.694732666015625	-0.00215545654296875	4178.93418244921
0.6903076171875	-0.0021478271484375	4179.37668744809
0.685882568359375	-0.00214019775390625	4179.81919244697
0.68145751953125	-0.00213287353515625	4180.26169744585
0.677032470703125	-0.00212493896484375	4180.70420244474
0.672607421875	-0.0021173095703125	4181.14670744362
0.668182373046875	-0.002109375	4181.5892124425
0.66375732421875	-0.00210174560546875	4182.03171744138
0.659332275390625	-0.00209381103515625	4182.47422244027
0.6549072265625	-0.00208648681640625	4182.91672743915
0.650482177734375	-0.002078857421875	4183.35923243803
0.64605712890625	-0.002071533203125	4183.80173743692
0.641632080078125	-0.0020648193359375	4184.2442424358
0.63720703125	-0.00205841064453125	4184.68674743468
0.632781982421875	-0.002052001953125	4185.12925243356
0.62835693359375	-0.0020458984375	4185.57175743245
0.623931884765625	-0.00204254150390625	4186.01426243133
0.6195068359375	-0.00203643798828125	4186.45676743021
0.615081787109375	-0.0020306396484375	4186.8992724291
0.61065673828125	-0.0020257568359375	4187.34177742798
0.606231689453125	-0.00202117919921875	4187.78428242686
0.601806640625	-0.0020159912109375	4188.22678742574
0.597381591796875	-0.00201202392578125	4188.66929242463
0.59295654296875	-0.002008056640625	4189.11179742351
0.588531494140625	-0.00200469970703125	4189.55430242239
0.5841064453125	-0.002000732421875	4189.99680742127
0.579681396484375	-0.0019976806640625	4190.43931242016
0.57525634765625	-0.00199554443359375	4190.88181741904
0.570831298828125	-0.001993408203125	4191.32432241792
0.56640625	-0.00199188232421875	4191.76682741681
0.561981201171875	-0.00199005126953125	4192.20933241569
0.55755615234375	-0.00198944091796875	4192.65183741457
0.553131103515625	-0.001988525390625	4193.09434241345
0.5487060546875	-0.0019879150390625	4193.53684741234
0.544281005859375	-0.00198699951171875	4193.97935241122
0.53985595703125	-0.0019873046875	4194.4218574101
0.535430908203125	-0.0019873046875	4194.86436240899
0.531005859375	-0.00198822021484375	4195.30686740787
0.526580810546875	-0.0019891357421875	4195.74937240675
0.52215576171875	-0.00199005126953125	4196.19187740563
0.517730712890625	-0.00199127197265625	4196.63438240452
0.5133056640625	-0.00199310302734375	4197.0768874034
0.508880615234375	-0.00199493408203125	4197.51939240228
0.50445556640625	-0.0019964599609375	4197.96189740116
0.500030517578125	-0.0019989013671875	4198.40440240005
0.49560546875	-0.0020013427734375	4198.84690739893
0.491180419921875	-0.00200408935546875	4199.28941239781
0.48675537109375	-0.0020068359375	4199.7319173967
0.482330322265625	-0.00200958251953125	4200.17442239558
0.4779052734375	-0.0020123291015625	4200.61692739446
0.473480224609375	-0.00201507568359375	4201.05943239334
0.46905517578125	-0.002017822265625	4201.50193739223
0.464630126953125	-0.002020263671875	4201.94444239111
0.460205078125	-0.00202362060546875	4202.38694738999
0.455780029296875	-0.0020263671875	4202.82945238888
0.45135498046875	-0.0020294189453125	4203.27195738776
0.446929931640625	-0.002032470703125	4203.71446238664
0.4425048828125	-0.002034912109375	4204.15696738552
0.438079833984375	-0.002037353515625	4204.59947238441
0.43365478515625	-0.00204010009765625	4205.04197738329
0.429229736328125	-0.002042236328125	4205.48448238217
0.4248046875	-0.00204437255859375	4205.92698738106
0.420379638671875	-0.0020465087890625	4206.36949237994
0.41595458984375	-0.00204864501953125	4206.81199737882
0.411529541015625	-0.00205047607421875	4207.2545023777
0.4071044921875	-0.002052001953125	4207.69700737659
0.402679443359375	-0.00205352783203125	4208.13951237547
0.39825439453125	-0.00205474853515625	4208.58201737435
0.393829345703125	-0.0020562744140625	4209.02452237323
0.389404296875	-0.00205657958984375	4209.46702737212
0.384979248046875	-0.00205780029296875	4209.909532371
0.38055419921875	-0.00205902099609375	4210.35203736988
0.376129150390625	-0.00205963134765625	4210.79454236877
0.3717041015625	-0.0020599365234375	4211.23704736765
0.367279052734375	-0.0020611572265625	4211.67955236653
0.36285400390625	-0.002061767578125	4212.12205736541
0.358428955078125	-0.00206268310546875	4212.5645623643
0.35400390625	-0.00206329345703125	4213.00706736318
0.349578857421875	-0.0020623779296875	4213.44957236206
0.34515380859375	-0.00206329345703125	4213.89207736095
0.340728759765625	-0.002064208984375	4214.33458235983
0.3363037109375	-0.0020648193359375	4214.77708735871
0.331878662109375	-0.0020654296875	4215.21959235759
0.32745361328125	-0.00206634521484375	4215.66209735648
0.323028564453125	-0.0020672607421875	4216.10460235536
0.318603515625	-0.00206817626953125	4216.54710735424
0.314178466796875	-0.002069091796875	4216.98961235312
0.30975341796875	-0.0020721435546875	4217.43211735201
0.305328369140625	-0.00207275390625	4217.87462235089
0.3009033203125	-0.002073974609375	4218.31712734977
0.296478271484375	-0.0020751953125	4218.75963234866
0.29205322265625	-0.00207611083984375	4219.20213734754
0.287628173828125	-0.00207763671875	4219.64464234642
0.283203125	-0.0020794677734375	4220.0871473453
0.278778076171875	-0.00208099365234375	4220.52965234419
0.27435302734375	-0.00208221435546875	4220.97215734307
0.269927978515625	-0.002083740234375	4221.41466234195
0.2655029296875	-0.0020855712890625	4221.85716734084
0.261077880859375	-0.00208770751953125	4222.29967233972
0.25665283203125	-0.00208984375	4222.7421773386
0.252227783203125	-0.0020916748046875	4223.18468233748
0.247802734375	-0.00209381103515625	4223.62718733637
0.243377685546875	-0.002095947265625	4224.06969233525
0.23895263671875	-0.00209808349609375	4224.51219733413
0.234527587890625	-0.00210052490234375	4224.95470233302
0.2301025390625	-0.00210174560546875	4225.3972073319
0.225677490234375	-0.00210418701171875	4225.83971233078
0.22125244140625	-0.00210662841796875	4226.28221732966
0.216827392578125	-0.00210845947265625	4226.72472232855
0.21240234375	-0.0021112060546875	4227.16722732743
0.207977294921875	-0.0021136474609375	4227.60973232631
0.20355224609375	-0.0021160888671875	4228.05223732519
0.199127197265625	-0.0021185302734375	4228.49474232408
0.1947021484375	-0.00212127685546875	4228.93724732296
0.190277099609375	-0.0021240234375	4229.37975232184
0.18585205078125	-0.00212677001953125	4229.82225732073
0.181427001953125	-0.0021295166015625	4230.26476231961
0.177001953125	-0.00213226318359375	4230.70726731849
0.172576904296875	-0.002135009765625	4231.14977231737
0.16815185546875	-0.0021380615234375	4231.59227731626
0.163726806640625	-0.00214111328125	4232.03478231514
0.1593017578125	-0.00214447021484375	4232.47728731402
0.154876708984375	-0.002147216796875	4232.9197923129
0.15045166015625	-0.00215087890625	4233.36229731179
0.146026611328125	-0.00215484619140625	4233.80480231067
0.1416015625	-0.0021588134765625	4234.24730730955
0.137176513671875	-0.0021624755859375	4234.68981230844
0.13275146484375	-0.00216705322265625	4235.13231730732
0.128326416015625	-0.002171630859375	4235.5748223062
0.1239013671875	-0.002176513671875	4236.01732730508
0.119476318359375	-0.0021820068359375	4236.45983230397
0.11505126953125	-0.002186279296875	4236.90233730285
0.110626220703125	-0.0021917724609375	4237.34484230173
0.106201171875	-0.00219757080078125	4237.78734730062
0.101776123046875	-0.0022039794921875	4238.2298522995
0.09735107421875	-0.00221038818359375	4238.67235729838
0.092926025390625	-0.00221771240234375	4239.11486229726
0.0885009765625	-0.00222442626953125	4239.55736729615
0.084075927734375	-0.0022314453125	4239.99987229503
0.07965087890625	-0.00223876953125	4240.44237729391
0.075225830078125	-0.00224609375	4240.88488229279
0.07080078125	-0.0022540283203125	4241.32738729168
0.066375732421875	-0.002261962890625	4241.76989229056
0.06195068359375	-0.00227020263671875	4242.21239728944
0.057525634765625	-0.0022784423828125	4242.65490228833
0.0531005859375	-0.00228729248046875	4243.09740728721
0.048675537109375	-0.0022955322265625	4243.53991228609
0.04425048828125	-0.00230438232421875	4243.98241728497
0.039825439453125	-0.002313232421875	4244.42492228386
0.035400390625	-0.00232177734375	4244.86742728274
0.030975341796875	-0.00233123779296875	4245.30993228162
0.02655029296875	-0.002340087890625	4245.75243728051
0.022125244140625	-0.0023492431640625	4246.19494227939
0.0177001953125	-0.0023590087890625	4246.63744727827
0.013275146484375	-0.0023687744140625	4247.07995227715
0.00885009765625	-0.00237945556640625	4247.52245727604
0.004425048828125	-0.00239013671875	4247.96496227492
0	-0.00240142822265625	4248.4074672738
0.004425048828125	-0.00190155029296875	4248.84997227268
0.00885009765625	-0.00149169921875	4249.29247727157
0.013275146484375	-0.0011468505859375	4249.73498227045
0.0177001953125	-0.00085235595703125	4250.17748726933
0.022125244140625	-0.00059814453125	4250.61999226822
0.02655029296875	-0.000376495361328125	4251.0624972671
0.030975341796875	-0.00018280029296875	4251.50500226598
0.035400390625	-1.2451171875E-05	4251.94750726486
0.039825439453125	0.000138214111328125	4252.39001226375
0.04425048828125	0.00027191162109375	4252.83251726263
0.048675537109375	0.000390625	4253.27502226151
0.0531005859375	0.00049676513671875	4253.7175272604
0.057525634765625	0.000591796875	4254.16003225928
0.06195068359375	0.0006767578125	4254.60253725816
0.066375732421875	0.00075408935546875	4255.04504225704
0.07080078125	0.00082244873046875	4255.48754725593
0.075225830078125	0.00088531494140625	4255.93005225481
0.07965087890625	0.00094085693359375	4256.37255725369
0.084075927734375	0.0009918212890625	4256.81506225258
0.0885009765625	0.00103790283203125	4257.25756725146
0.092926025390625	0.0010797119140625	4257.70007225034
0.09735107421875	0.00111846923828125	4258.14257724922
0.101776123046875	0.0011541748046875	4258.58508224811
0.106201171875	0.00118682861328125	4259.02758724699
0.110626220703125	0.001217041015625	4259.47009224587
0.11505126953125	0.00124481201171875	4259.91259724475
0.119476318359375	0.00126953125	4260.35510224364
0.1239013671875	0.0012933349609375	4260.79760724252
0.128326416015625	0.00131561279296875	4261.2401122414
0.13275146484375	0.001336669921875	4261.68261724029
0.137176513671875	0.00135589599609375	4262.12512223917
0.1416015625	0.00137420654296875	4262.56762723805
0.146026611328125	0.0013909912109375	4263.01013223693
0.15045166015625	0.0014068603515625	4263.45263723582
0.154876708984375	0.00142242431640625	4263.8951422347
0.1593017578125	0.0014361572265625	4264.33764723358
0.163726806640625	0.0014501953125	4264.78015223247
0.16815185546875	0.00146331787109375	4265.22265723135
0.172576904296875	0.00147552490234375	4265.66516223023
0.177001953125	0.00148773193359375	4266.10766722911
0.181427001953125	0.0014996337890625	4266.550172228
0.18585205078125	0.0015106201171875	4266.99267722688
0.190277099609375	0.00152130126953125	4267.43518222576
0.1947021484375	0.00153228759765625	4267.87768722464
0.199127197265625	0.0015423583984375	4268.32019222353
0.20355224609375	0.001552734375	4268.76269722241
0.207977294921875	0.00156219482421875	4269.20520222129
0.21240234375	0.00157135009765625	4269.64770722018
0.216827392578125	0.00158111572265625	4270.09021221906
0.22125244140625	0.00159027099609375	4270.53271721794
0.225677490234375	0.00159942626953125	4270.97522221682
0.2301025390625	0.00160858154296875	4271.41772721571
0.234527587890625	0.0016168212890625	4271.86023221459
0.23895263671875	0.00162567138671875	4272.30273721347
0.243377685546875	0.001634521484375	4272.74524221236
0.247802734375	0.00164337158203125	4273.18774721124
0.252227783203125	0.0016522216796875	4273.63025221012
0.25665283203125	0.0016607666015625	4274.072757209
0.261077880859375	0.0016693115234375	4274.51526220789
0.2655029296875	0.00167755126953125	4274.95776720677
0.269927978515625	0.00168609619140625	4275.40027220565
0.27435302734375	0.0016943359375	4275.84277720453
0.278778076171875	0.001702880859375	4276.28528220342
0.283203125	0.00171112060546875	4276.7277872023
0.287628173828125	0.0017193603515625	4277.17029220118
0.29205322265625	0.0017279052734375	4277.61279720007
0.296478271484375	0.0017364501953125	4278.05530219895
0.3009033203125	0.0017449951171875	4278.49780719783
0.305328369140625	0.0017535400390625	4278.94031219671
0.30975341796875	0.00176239013671875	4279.3828171956
0.314178466796875	0.00177276611328125	4279.82532219448
0.318603515625	0.00178070068359375	4280.26782719336
0.323028564453125	0.00178863525390625	4280.71033219225
0.32745361328125	0.001796875	4281.15283719113
0.331878662109375	0.00180572509765625	4281.59534219001
0.3363037109375	0.00181396484375	4282.03784718889
0.340728759765625	0.001822509765625	4282.48035218778
0.34515380859375	0.00183135986328125	4282.92285718666
0.349578857421875	0.001839599609375	4283.36536218554
0.35400390625	0.001846923828125	4283.80786718443
0.358428955078125	0.00185516357421875	4284.25037218331
0.36285400390625	0.0018634033203125	4284.69287718219
0.367279052734375	0.00187103271484375	4285.13538218107
0.3717041015625	0.001878662109375	4285.57788717996
0.376129150390625	0.0018865966796875	4286.02039217884
0.38055419921875	0.0018939208984375	4286.46289717772
0.384979248046875	0.00190155029296875	4286.9054021766
0.389404296875	0.00190826416015625	4287.34790717549
0.393829345703125	0.00191436767578125	4287.79041217437
0.39825439453125	0.00192047119140625	4288.23291717325
0.402679443359375	0.0019268798828125	4288.67542217214
0.4071044921875	0.00193267822265625	4289.11792717102
0.411529541015625	0.0019378662109375	4289.5604321699
0.41595458984375	0.0019427490234375	4290.00293716878
0.420379638671875	0.0019476318359375	4290.44544216767
0.4248046875	0.00195159912109375	4290.88794716655
0.429229736328125	0.0019561767578125	4291.33045216543
0.43365478515625	0.00195953369140625	4291.77295716431
0.438079833984375	0.00196319580078125	4292.2154621632
0.4425048828125	0.00196624755859375	4292.65796716208
0.446929931640625	0.001968994140625	4293.10047216096
0.45135498046875	0.00197235107421875	4293.54297715985
0.455780029296875	0.00197540283203125	4293.98548215873
0.460205078125	0.00197784423828125	4294.42798715761
0.464630126953125	0.00197998046875	4294.87049215649
0.46905517578125	0.001982421875	4295.31299715538
0.473480224609375	0.00198486328125	4295.75550215426
0.4779052734375	0.0019866943359375	4296.19800715314
0.482330322265625	0.001988525390625	4296.64051215203
0.48675537109375	0.00199005126953125	4297.08301715091
0.491180419921875	0.00199127197265625	4297.52552214979
0.49560546875	0.00199249267578125	4297.96802714867
0.500030517578125	0.00199310302734375	4298.41053214756
0.50445556640625	0.001993408203125	4298.85303714644
0.508880615234375	0.0019940185546875	4299.29554214532
0.5133056640625	0.00199432373046875	4299.7380471442
0.517730712890625	0.0019940185546875	4300.18055214309
0.52215576171875	0.00199432373046875	4300.62305714197
0.526580810546875	0.00199371337890625	4301.06556214085
0.531005859375	0.00199310302734375	4301.50806713974
0.535430908203125	0.0019921875	4301.95057213862
0.53985595703125	0.00199127197265625	4302.3930771375
0.544281005859375	0.00199066162109375	4302.83558213638
0.5487060546875	0.001988525390625	4303.27808713527
0.553131103515625	0.0019879150390625	4303.72059213415
0.55755615234375	0.00198638916015625	4304.16309713303
0.561981201171875	0.00198516845703125	4304.60560213192
0.56640625	0.00198394775390625	4305.0481071308
0.570831298828125	0.001982421875	4305.49061212968
0.57525634765625	0.00198089599609375	4305.93311712856
0.579681396484375	0.00197998046875	4306.37562212745
0.5841064453125	0.001978759765625	4306.81812712633
0.588531494140625	0.001976318359375	4307.26063212521
0.59295654296875	0.00197540283203125	4307.7031371241
0.597381591796875	0.00197509765625	4308.14564212298
0.601806640625	0.001973876953125	4308.58814712186
0.606231689453125	0.001973876953125	4309.03065212074
0.61065673828125	0.00197265625	4309.47315711963
0.615081787109375	0.00197265625	4309.91566211851
0.6195068359375	0.00197235107421875	4310.35816711739
0.623931884765625	0.00197235107421875	4310.80067211627
0.62835693359375	0.00197479248046875	4311.24317711516
0.632781982421875	0.0019744873046875	4311.68568211404
0.63720703125	0.0019744873046875	4312.12818711292
0.641632080078125	0.00197479248046875	4312.57069211181
0.64605712890625	0.00197540283203125	4313.01319711069
0.650482177734375	0.00197662353515625	4313.45570210957
0.6549072265625	0.00197723388671875	4313.89820710845
0.659332275390625	0.001978759765625	4314.34071210734
0.66375732421875	0.0019805908203125	4314.78321710622
0.668182373046875	0.00198211669921875	4315.2257221051
0.672607421875	0.00198394775390625	4315.66822710399
0.677032470703125	0.00198699951171875	4316.11073210287
0.68145751953125	0.0019891357421875	4316.55323710175
0.685882568359375	0.0019921875	4316.99574210063
0.6903076171875	0.001995849609375	4317.43824709952
0.694732666015625	0.00199951171875	4317.8807520984
0.69915771484375	0.00200347900390625	4318.32325709728
0.703582763671875	0.0020068359375	4318.76576209616
0.7080078125	0.00201202392578125	4319.20826709505
0.712432861328125	0.0020172119140625	4319.65077209393
0.71685791015625	0.0020220947265625	4320.09327709281
0.721282958984375	0.0020281982421875	4320.5357820917
0.7257080078125	0.00203399658203125	4320.97828709058
0.730133056640625	0.00204071044921875	4321.42079208946
0.73455810546875	0.00204742431640625	4321.86329708834
0.738983154296875	0.0020550537109375	4322.30580208723
0.743408203125	0.00206146240234375	4322.74830708611
0.747833251953125	0.00207000732421875	4323.19081208499
0.75225830078125	0.002078857421875	4323.63331708388
0.756683349609375	0.0020892333984375	4324.07582208276
0.7611083984375	0.002098388671875	4324.51832708164
0.765533447265625	0.00210968017578125	4324.96083208052
0.76995849609375	0.00212127685546875	4325.40333707941
0.774383544921875	0.0021331787109375	4325.84584207829
0.77880859375	0.0021453857421875	4326.28834707717
0.783233642578125	0.0021588134765625	4326.73085207605
0.78765869140625	0.00217315673828125	4327.17335707494
0.792083740234375	0.00218780517578125	4327.61586207382
0.7965087890625	0.00220367431640625	4328.0583670727
0.800933837890625	0.002220458984375	4328.50087207159
0.80535888671875	0.0022381591796875	4328.94337707047
0.809783935546875	0.0022564697265625	4329.38588206935
0.814208984375	0.0022760009765625	4329.82838706823
0.818634033203125	0.00229705810546875	4330.27089206712
0.82305908203125	0.00231842041015625	4330.713397066
0.827484130859375	0.00234161376953125	4331.15590206488
0.8319091796875	0.00236572265625	4331.59840706377
0.836334228515625	0.00239105224609375	4332.04091206265
0.84075927734375	0.0024169921875	4332.48341706153
0.845184326171875	0.0024444580078125	4332.92592206041
0.849609375	0.0024725341796875	4333.3684270593
0.854034423828125	0.0025030517578125	4333.81093205818
0.85845947265625	0.0025341796875	4334.25343705706
0.862884521484375	0.00256622314453125	4334.69594205595
0.8673095703125	0.00259979248046875	4335.13844705483
0.871734619140625	0.00263458251953125	4335.58095205371
0.87615966796875	0.00267059326171875	4336.02345705259
0.880584716796875	0.002708740234375	4336.46596205148
0.885009765625	0.0027471923828125	4336.90846705036
0.889434814453125	0.00278717041015625	4337.35097204924
0.89385986328125	0.00282806396484375	4337.79347704812
0.898284912109375	0.00287078857421875	4338.23598204701
0.9027099609375	0.00291412353515625	4338.67848704589
0.907135009765625	0.00295928955078125	4339.12099204477
0.91156005859375	0.003004150390625	4339.56349704365
0.915985107421875	0.00305145263671875	4340.00600204254
0.92041015625	0.0030987548828125	4340.44850704142
0.924835205078125	0.00314788818359375	4340.8910120403
0.92926025390625	0.0031976318359375	4341.33351703919
0.933685302734375	0.003248291015625	4341.77602203807
0.9381103515625	0.00330078125	4342.21852703695
0.942535400390625	0.0033526611328125	4342.66103203583
0.94696044921875	0.0034051513671875	4343.10353703472
0.951385498046875	0.0034576416015625	4343.5460420336
0.955810546875	0.00351104736328125	4343.98854703248
0.960235595703125	0.0035650634765625	4344.43105203137
0.96466064453125	0.00361907958984375	4344.87355703025
0.969085693359375	0.0036724853515625	4345.31606202913
0.9735107421875	0.00372711181640625	4345.75856702801
0.977935791015625	0.00377960205078125	4346.2010720269
0.98236083984375	0.0038330078125	4346.64357702578
0.986785888671875	0.00388671875	4347.08608202466
0.9912109375	0.003939208984375	4347.52858702355
0.995635986328125	0.00399169921875	4347.97109202243
1.00006103515625	0.00404296875	4348.41359702131
0.995635986328125	0.00354339599609375	4348.85610202019
0.9912109375	0.003111572265625	4349.29860701908
0.986785888671875	0.00272705078125	4349.74111201796
0.98236083984375	0.00238037109375	4350.18361701684
0.977935791015625	0.0020648193359375	4350.62612201572
0.9735107421875	0.00177703857421875	4351.06862701461
0.969085693359375	0.00151153564453125	4351.51113201349
0.96466064453125	0.00126556396484375	4351.95363701237
0.960235595703125	0.00103790283203125	4352.39614201126
0.955810546875	0.0008258056640625	4352.83864701014
0.951385498046875	0.0006280517578125	4353.28115200902
0.94696044921875	0.000443634033203125	4353.7236570079
0.942535400390625	0.000271240234375	4354.16616200679
0.9381103515625	0.00010919189453125	4354.60866700567
0.933685302734375	-4.45068359375E-05	4355.05117200455
0.92926025390625	-0.000187347412109375	4355.49367700344
0.924835205078125	-0.000321502685546875	4355.93618200232
0.92041015625	-0.000447906494140625	4356.3786870012
0.915985107421875	-0.000567047119140625	4356.82119200008
0.91156005859375	-0.00067974853515625	4357.26369699897
0.907135009765625	-0.00078521728515625	4357.70620199785
0.9027099609375	-0.0008856201171875	4358.14870699673
0.898284912109375	-0.000980224609375	4358.59121199561
0.89385986328125	-0.00106964111328125	4359.0337169945
0.889434814453125	-0.001153564453125	4359.47622199338
0.885009765625	-0.00123321533203125	4359.91872699226
0.880584716796875	-0.00130859375	4360.36123199115
0.87615966796875	-0.00137939453125	4360.80373699003
0.871734619140625	-0.0014459228515625	4361.24624198891
0.8673095703125	-0.0015081787109375	4361.68874698779
0.862884521484375	-0.0015673828125	4362.13125198668
0.85845947265625	-0.00162200927734375	4362.57375698556
0.854034423828125	-0.0016741943359375	4363.01626198444
0.849609375	-0.0017230224609375	4363.45876698333
0.845184326171875	-0.00176849365234375	4363.90127198221
0.84075927734375	-0.00181060791015625	4364.34377698109
0.836334228515625	-0.00185089111328125	4364.78628197997
0.8319091796875	-0.00188720703125	4365.22878697886
0.827484130859375	-0.00192108154296875	4365.67129197774
0.82305908203125	-0.00195281982421875	4366.11379697662
0.818634033203125	-0.00198150634765625	4366.55630197551
0.814208984375	-0.00200775146484375	4366.99880697439
0.809783935546875	-0.00203216552734375	4367.44131197327
0.80535888671875	-0.00205474853515625	4367.88381697215
0.800933837890625	-0.0020745849609375	4368.32632197104
0.7965087890625	-0.00209228515625	4368.76882696992
0.792083740234375	-0.002108154296875	4369.2113319688
0.78765869140625	-0.0021221923828125	4369.65383696768
0.783233642578125	-0.00213470458984375	4370.09634196657
0.77880859375	-0.00214508056640625	4370.53884696545
0.774383544921875	-0.002154541015625	4370.98135196433
0.76995849609375	-0.00216217041015625	4371.42385696322
0.765533447265625	-0.00216796875	4371.8663619621
0.7611083984375	-0.00217315673828125	4372.30886696098
0.756683349609375	-0.00217681884765625	4372.75137195986
0.75225830078125	-0.00217864990234375	4373.19387695875
0.747833251953125	-0.00217926025390625	4373.63638195763
0.743408203125	-0.00217987060546875	4374.07888695651
0.738983154296875	-0.00217681884765625	4374.5213919554
0.73455810546875	-0.00217529296875	4374.96389695428
0.730133056640625	-0.0021722412109375	4375.40640195316
0.7257080078125	-0.00216888427734375	4375.84890695204
0.721282958984375	-0.00216461181640625	4376.29141195093
0.71685791015625	-0.00215972900390625	4376.73391694981
0.712432861328125	-0.00215423583984375	4377.17642194869
0.7080078125	-0.0021484375	4377.61892694757
0.703582763671875	-0.002142333984375	4378.06143194646
0.69915771484375	-0.0021343994140625	4378.50393694534
0.694732666015625	-0.00212738037109375	4378.94644194422
0.6903076171875	-0.00212066650390625	4379.38894694311
0.685882568359375	-0.0021136474609375	4379.83145194199
0.68145751953125	-0.00210693359375	4380.27395694087
0.677032470703125	-0.002099609375	4380.71646193975
0.672607421875	-0.00209228515625	4381.15896693864
0.668182373046875	-0.0020843505859375	4381.60147193752
0.66375732421875	-0.00207733154296875	4382.0439769364
0.659332275390625	-0.00207000732421875	4382.48648193529
0.6549072265625	-0.00206329345703125	4382.92898693417
0.650482177734375	-0.00205596923828125	4383.37149193305
0.64605712890625	-0.00204925537109375	4383.81399693193
0.641632080078125	-0.00204315185546875	4384.25650193082
0.63720703125	-0.00203704833984375	4384.6990069297
0.632781982421875	-0.00203125	4385.14151192858
0.62835693359375	-0.0020257568359375	4385.58401692747
0.623931884765625	-0.00202301025390625	4386.02652192635
0.6195068359375	-0.00201751708984375	4386.46902692523
0.615081787109375	-0.00201202392578125	4386.91153192411
0.61065673828125	-0.00200714111328125	4387.354036923
0.606231689453125	-0.00200286865234375	4387.79654192188
0.601806640625	-0.0019989013671875	4388.23904692076
0.597381591796875	-0.00199493408203125	4388.68155191964
0.59295654296875	-0.00199127197265625	4389.12405691853
0.588531494140625	-0.0019879150390625	4389.56656191741
0.5841064453125	-0.0019842529296875	4390.00906691629
0.579681396484375	-0.0019818115234375	4390.45157191518
0.57525634765625	-0.00197967529296875	4390.89407691406
0.570831298828125	-0.0019775390625	4391.33658191294
0.56640625	-0.001976318359375	4391.77908691182
0.561981201171875	-0.00197509765625	4392.22159191071
0.55755615234375	-0.0019744873046875	4392.66409690959
0.553131103515625	-0.001973876953125	4393.10660190847
0.5487060546875	-0.00197357177734375	4393.54910690736
0.544281005859375	-0.00197296142578125	4393.99161190624
0.53985595703125	-0.00197357177734375	4394.43411690512
0.535430908203125	-0.0019744873046875	4394.876621904
0.531005859375	-0.00197509765625	4395.31912690289
0.526580810546875	-0.00197601318359375	4395.76163190177
0.52215576171875	-0.00197784423828125	4396.20413690065
0.517730712890625	-0.00197967529296875	4396.64664189953
0.5133056640625	-0.00198150634765625	4397.08914689842
0.508880615234375	-0.00198333740234375	4397.5316518973
0.50445556640625	-0.00198577880859375	4397.97415689618
0.500030517578125	-0.00198822021484375	4398.41666189507
0.49560546875	-0.00199066162109375	4398.85916689395
0.491180419921875	-0.00199371337890625	4399.30167189283
0.48675537109375	-0.0019964599609375	4399.74417689171
0.482330322265625	-0.00199981689453125	4400.1866818906
0.4779052734375	-0.0020025634765625	4400.62918688948
0.473480224609375	-0.0020062255859375	4401.07169188836
0.46905517578125	-0.00200927734375	4401.51419688724
0.464630126953125	-0.0020123291015625	4401.95670188613
0.460205078125	-0.00201568603515625	4402.39920688501
0.455780029296875	-0.00201873779296875	4402.84171188389
0.45135498046875	-0.00202178955078125	4403.28421688278
0.446929931640625	-0.0020245361328125	4403.72672188166
0.4425048828125	-0.002027587890625	4404.16922688054
0.438079833984375	-0.00203033447265625	4404.61173187942
0.43365478515625	-0.0020330810546875	4405.05423687831
0.429229736328125	-0.00203521728515625	4405.49674187719
0.4248046875	-0.00203765869140625	4405.93924687607
0.420379638671875	-0.002039794921875	4406.38175187496
0.41595458984375	-0.00204193115234375	4406.82425687384
0.411529541015625	-0.0020440673828125	4407.26676187272
0.4071044921875	-0.0020458984375	4407.7092668716
0.402679443359375	-0.00204742431640625	4408.15177187049
0.39825439453125	-0.002049560546875	4408.59427686937
0.393829345703125	-0.00205047607421875	4409.03678186825
0.389404296875	-0.00205108642578125	4409.47928686713
0.384979248046875	-0.0020526123046875	4409.92179186602
0.38055419921875	-0.00205322265625	4410.3642968649
0.376129150390625	-0.002054443359375	4410.80680186378
0.3717041015625	-0.0020550537109375	4411.24930686267
0.367279052734375	-0.0020556640625	4411.69181186155
0.36285400390625	-0.00205657958984375	4412.13431686043
0.358428955078125	-0.002056884765625	4412.57682185931
0.35400390625	-0.00205780029296875	4413.0193268582
0.349578857421875	-0.00205718994140625	4413.46183185708
0.34515380859375	-0.00205780029296875	4413.90433685596
0.340728759765625	-0.00205810546875	4414.34684185485
0.3363037109375	-0.00205902099609375	4414.78934685373
0.331878662109375	-0.00205963134765625	4415.23185185261
0.32745361328125	-0.00206085205078125	4415.67435685149
0.323028564453125	-0.00206146240234375	4416.11686185038
0.318603515625	-0.0020623779296875	4416.55936684926
0.314178466796875	-0.00206329345703125	4417.00187184814
0.30975341796875	-0.0020660400390625	4417.44437684702
0.305328369140625	-0.002066650390625	4417.88688184591
0.3009033203125	-0.00206756591796875	4418.32938684479
0.296478271484375	-0.0020684814453125	4418.77189184367
0.29205322265625	-0.00206939697265625	4419.21439684256
0.287628173828125	-0.00207122802734375	4419.65690184144
0.283203125	-0.00207244873046875	4420.09940684032
0.278778076171875	-0.00207366943359375	4420.5419118392
0.27435302734375	-0.0020751953125	4420.98441683809
0.269927978515625	-0.00207672119140625	4421.42692183697
0.2655029296875	-0.0020782470703125	4421.86942683585
0.261077880859375	-0.002080078125	4422.31193183474
0.25665283203125	-0.00208221435546875	4422.75443683362
0.252227783203125	-0.00208404541015625	4423.1969418325
0.247802734375	-0.00208587646484375	4423.63944683138
0.243377685546875	-0.00208770751953125	4424.08195183027
0.23895263671875	-0.00208984375	4424.52445682915
0.234527587890625	-0.00209197998046875	4424.96696182803
0.2301025390625	-0.00209320068359375	4425.40946682692
0.225677490234375	-0.00209564208984375	4425.8519718258
0.22125244140625	-0.0020977783203125	4426.29447682468
0.216827392578125	-0.00209991455078125	4426.73698182356
0.21240234375	-0.00210205078125	4427.17948682245
0.207977294921875	-0.0021044921875	4427.62199182133
0.20355224609375	-0.00210693359375	4428.06449682021
0.199127197265625	-0.002109375	4428.50700181909
0.1947021484375	-0.00211151123046875	4428.94950681798
0.190277099609375	-0.0021142578125	4429.39201181686
0.18585205078125	-0.00211669921875	4429.83451681574
0.181427001953125	-0.002119140625	4430.27702181463
0.177001953125	-0.00212188720703125	4430.71952681351
0.172576904296875	-0.00212493896484375	4431.16203181239
0.16815185546875	-0.002127685546875	4431.60453681127
0.163726806640625	-0.0021307373046875	4432.04704181016
0.1593017578125	-0.00213348388671875	4432.48954680904
0.154876708984375	-0.00213623046875	4432.93205180792
0.15045166015625	-0.002139892578125	4433.37455680681
0.146026611328125	-0.0021435546875	4433.81706180569
0.1416015625	-0.002147216796875	4434.25956680457
0.137176513671875	-0.00215118408203125	4434.70207180345
0.13275146484375	-0.00215606689453125	4435.14457680234
0.128326416015625	-0.0021600341796875	4435.58708180122
0.1239013671875	-0.0021649169921875	4436.0295868001
0.119476318359375	-0.00216949462890625	4436.47209179898
0.11505126953125	-0.00217376708984375	4436.91459679787
0.110626220703125	-0.00217926025390625	4437.35710179675
0.106201171875	-0.00218505859375	4437.79960679563
0.101776123046875	-0.002191162109375	4438.24211179452
0.09735107421875	-0.00219757080078125	4438.6846167934
0.092926025390625	-0.00220428466796875	4439.12712179228
0.0885009765625	-0.00221099853515625	4439.56962679116
0.084075927734375	-0.00221832275390625	4440.01213179005
0.07965087890625	-0.00222564697265625	4440.45463678893
0.075225830078125	-0.00223236083984375	4440.89714178781
0.07080078125	-0.0022406005859375	4441.3396467867
0.066375732421875	-0.00224822998046875	4441.78215178558
0.06195068359375	-0.0022564697265625	4442.22465678446
0.057525634765625	-0.00226470947265625	4442.66716178334
0.0531005859375	-0.00227294921875	4443.10966678223
0.048675537109375	-0.002281494140625	4443.55217178111
0.04425048828125	-0.0022900390625	4443.99467677999
0.039825439453125	-0.00229888916015625	4444.43718177888
0.035400390625	-0.0023077392578125	4444.87968677776
0.030975341796875	-0.00231719970703125	4445.32219177664
0.02655029296875	-0.0023260498046875	4445.76469677552
0.022125244140625	-0.0023358154296875	4446.20720177441
0.0177001953125	-0.00234527587890625	4446.64970677329
0.013275146484375	-0.0023553466796875	4447.09221177217
0.00885009765625	-0.00236602783203125	4447.53471677105
0.004425048828125	-0.0023773193359375	4447.97722176994
0	-0.00238861083984375	4448.41972676882
0.004425048828125	-0.00188873291015625	4448.8622317677
0.00885009765625	-0.0014788818359375	4449.30473676659
0.013275146484375	-0.001134033203125	4449.74724176547
0.0177001953125	-0.00083984375	4450.18974676435
0.022125244140625	-0.0005853271484375	4450.63225176323
0.02655029296875	-0.000364288330078125	4451.07475676212
0.030975341796875	-0.000170806884765625	4451.517261761
0.035400390625	-4.33349609374994E-07	4451.95976675988
0.039825439453125	0.0001497802734375	4452.40227175876
0.04425048828125	0.0002833251953125	4452.84477675765
0.048675537109375	0.0004017333984375	4453.28728175653
0.0531005859375	0.000507843017578125	4453.72978675541
0.057525634765625	0.000602874755859375	4454.1722917543
0.06195068359375	0.00068756103515625	4454.61479675318
0.066375732421875	0.00076416015625	4455.05730175206
0.07080078125	0.00083251953125	4455.49980675094
0.075225830078125	0.00089508056640625	4455.94231174983
0.07965087890625	0.0009503173828125	4456.38481674871
0.084075927734375	0.00100128173828125	4456.82732174759
0.0885009765625	0.00104705810546875	4457.26982674648
0.092926025390625	0.00108917236328125	4457.71233174536
0.09735107421875	0.00112762451171875	4458.15483674424
0.101776123046875	0.00116302490234375	4458.59734174312
0.106201171875	0.0011956787109375	4459.03984674201
0.110626220703125	0.00122589111328125	4459.48235174089
0.11505126953125	0.00125335693359375	4459.92485673977
0.119476318359375	0.001278076171875	4460.36736173865
0.1239013671875	0.0013018798828125	4460.80986673754
0.128326416015625	0.00132415771484375	4461.25237173642
0.13275146484375	0.00134429931640625	4461.6948767353
0.137176513671875	0.001363525390625	4462.13738173419
0.1416015625	0.00138153076171875	4462.57988673307
0.146026611328125	0.00139862060546875	4463.02239173195
0.15045166015625	0.0014141845703125	4463.46489673083
0.154876708984375	0.0014288330078125	4463.90740172972
0.1593017578125	0.00144317626953125	4464.3499067286
0.163726806640625	0.00145660400390625	4464.79241172748
0.16815185546875	0.0014697265625	4465.23491672637
0.172576904296875	0.00148193359375	4465.67742172525
0.177001953125	0.00149383544921875	4466.11992672413
0.181427001953125	0.001505126953125	4466.56243172301
0.18585205078125	0.00151611328125	4467.0049367219
0.190277099609375	0.00152679443359375	4467.44744172078
0.1947021484375	0.0015374755859375	4467.88994671966
0.199127197265625	0.0015472412109375	4468.33245171854
0.20355224609375	0.00155670166015625	4468.77495671743
0.207977294921875	0.001566162109375	4469.21746171631
0.21240234375	0.00157562255859375	4469.65996671519
0.216827392578125	0.00158477783203125	4470.10247171408
0.22125244140625	0.00159393310546875	4470.54497671296
0.225677490234375	0.00160247802734375	4470.98748171184
0.2301025390625	0.00161163330078125	4471.42998671072
0.234527587890625	0.00161956787109375	4471.87249170961
0.23895263671875	0.00162811279296875	4472.31499670849
0.243377685546875	0.00163665771484375	4472.75750170737
0.247802734375	0.0016448974609375	4473.20000670626
0.252227783203125	0.0016534423828125	4473.64251170514
0.25665283203125	0.00166168212890625	4474.08501670402
0.261077880859375	0.00166961669921875	4474.5275217029
0.2655029296875	0.0016778564453125	4474.97002670179
0.269927978515625	0.00168609619140625	4475.41253170067
0.27435302734375	0.00169403076171875	4475.85503669955
0.278778076171875	0.00170257568359375	4476.29754169844
0.283203125	0.00171051025390625	4476.74004669732
0.287628173828125	0.00171875	4477.1825516962
0.29205322265625	0.00172698974609375	4477.62505669508
0.296478271484375	0.00173492431640625	4478.06756169397
0.3009033203125	0.0017431640625	4478.51006669285
0.305328369140625	0.0017510986328125	4478.95257169173
0.30975341796875	0.00175933837890625	4479.39507669061
0.314178466796875	0.00176910400390625	4479.8375816895
0.318603515625	0.00177734375	4480.28008668838
0.323028564453125	0.0017852783203125	4480.72259168726
0.32745361328125	0.001793212890625	4481.16509668615
0.331878662109375	0.0018011474609375	4481.60760168503
0.3363037109375	0.00180908203125	4482.05010668391
0.340728759765625	0.0018170166015625	4482.49261168279
0.34515380859375	0.0018255615234375	4482.93511668168
0.349578857421875	0.00183349609375	4483.37762168056
0.35400390625	0.0018402099609375	4483.82012667944
0.358428955078125	0.00184844970703125	4484.26263167833
0.36285400390625	0.00185638427734375	4484.70513667721
0.367279052734375	0.00186370849609375	4485.14764167609
0.3717041015625	0.001871337890625	4485.59014667497
0.376129150390625	0.001878662109375	4486.03265167386
0.38055419921875	0.00188568115234375	4486.47515667274
0.384979248046875	0.00189300537109375	4486.91766167162
0.389404296875	0.0018994140625	4487.3601666705
0.393829345703125	0.0019049072265625	4487.80267166939
0.39825439453125	0.00191131591796875	4488.24517666827
0.402679443359375	0.00191741943359375	4488.68768166715
0.4071044921875	0.001922607421875	4489.13018666604
0.411529541015625	0.00192779541015625	4489.57269166492
0.41595458984375	0.001932373046875	4490.0151966638
0.420379638671875	0.00193695068359375	4490.45770166268
0.4248046875	0.00194122314453125	4490.90020666157
0.429229736328125	0.0019451904296875	4491.34271166045
0.43365478515625	0.00194915771484375	4491.78521665933
0.438079833984375	0.0019525146484375	4492.22772165822
0.4425048828125	0.00195556640625	4492.6702266571
0.446929931640625	0.0019586181640625	4493.11273165598
0.45135498046875	0.00196136474609375	4493.55523665486
0.455780029296875	0.00196380615234375	4493.99774165375
0.460205078125	0.001966552734375	4494.44024665263
0.464630126953125	0.001968994140625	4494.88275165151
0.46905517578125	0.0019708251953125	4495.32525665039
0.473480224609375	0.0019732666015625	4495.76776164928
0.4779052734375	0.00197540283203125	4496.21026664816
0.482330322265625	0.00197662353515625	4496.65277164704
0.48675537109375	0.00197784423828125	4497.09527664593
0.491180419921875	0.00197998046875	4497.53778164481
0.49560546875	0.00198089599609375	4497.98028664369
0.500030517578125	0.00198150634765625	4498.42279164257
0.50445556640625	0.00198211669921875	4498.86529664146
0.508880615234375	0.00198211669921875	4499.30780164034
0.5133056640625	0.001982421875	4499.75030663922
0.517730712890625	0.0019818115234375	4500.19281163811
0.52215576171875	0.001982421875	4500.63531663699
0.526580810546875	0.00198211669921875	4501.07782163587
0.531005859375	0.001981201171875	4501.52032663475
0.535430908203125	0.0019805908203125	4501.96283163364
0.53985595703125	0.00197967529296875	4502.40533663252
0.544281005859375	0.001978759765625	4502.8478416314
0.5487060546875	0.00197723388671875	4503.29034663029
0.553131103515625	0.0019757080078125	4503.73285162917
0.55755615234375	0.0019744873046875	4504.17535662805
0.561981201171875	0.001973876953125	4504.61786162693
0.56640625	0.00197235107421875	4505.06036662582
0.570831298828125	0.001971435546875	4505.5028716247
0.57525634765625	0.00197021484375	4505.94537662358
0.579681396484375	0.00196929931640625	4506.38788162246
0.5841064453125	0.0019677734375	4506.83038662135
0.588531494140625	0.00196563720703125	4507.27289162023
0.59295654296875	0.00196502685546875	4507.71539661911
0.597381591796875	0.001964111328125	4508.157901618
0.601806640625	0.00196319580078125	4508.60040661688
0.606231689453125	0.001962890625	4509.04291161576
0.61065673828125	0.0019622802734375	4509.48541661464
0.615081787109375	0.00196197509765625	4509.92792161353
0.6195068359375	0.001961669921875	4510.37042661241
0.623931884765625	0.001961669921875	4510.81293161129
0.62835693359375	0.001964111328125	4511.25543661017
0.632781982421875	0.001964111328125	4511.69794160906
0.63720703125	0.00196380615234375	4512.14044660794
0.641632080078125	0.00196441650390625	4512.58295160682
0.64605712890625	0.00196533203125	4513.02545660571
0.650482177734375	0.00196624755859375	4513.46796160459
0.6549072265625	0.00196685791015625	4513.91046660347
0.659332275390625	0.00196807861328125	4514.35297160235
0.66375732421875	0.00196990966796875	4514.79547660124
0.668182373046875	0.0019720458984375	4515.23798160012
0.672607421875	0.00197357177734375	4515.680486599
0.677032470703125	0.00197601318359375	4516.12299159789
0.68145751953125	0.00197845458984375	4516.56549659677
0.685882568359375	0.00198150634765625	4517.00800159565
0.6903076171875	0.00198455810546875	4517.45050659453
0.694732666015625	0.00198822021484375	4517.89301159342
0.69915771484375	0.00199249267578125	4518.3355165923
0.703582763671875	0.001995849609375	4518.77802159118
0.7080078125	0.00200042724609375	4519.22052659006
0.712432861328125	0.00200531005859375	4519.66303158895
0.71685791015625	0.00201080322265625	4520.10553658783
0.721282958984375	0.0020159912109375	4520.54804158671
0.7257080078125	0.0020220947265625	4520.9905465856
0.730133056640625	0.0020281982421875	4521.43305158448
0.73455810546875	0.00203460693359375	4521.87555658336
0.738983154296875	0.00204193115234375	4522.31806158224
0.743408203125	0.00204833984375	4522.76056658113
0.747833251953125	0.0020562744140625	4523.20307158001
0.75225830078125	0.0020654296875	4523.64557657889
0.756683349609375	0.00207427978515625	4524.08808157778
0.7611083984375	0.0020843505859375	4524.53058657666
0.765533447265625	0.00209503173828125	4524.97309157554
0.76995849609375	0.002105712890625	4525.41559657442
0.774383544921875	0.00211761474609375	4525.85810157331
0.77880859375	0.002130126953125	4526.30060657219
0.783233642578125	0.002142333984375	4526.74311157107
0.78765869140625	0.00215606689453125	4527.18561656996
0.792083740234375	0.0021710205078125	4527.62812156884
0.7965087890625	0.002186279296875	4528.07062656772
0.800933837890625	0.0022021484375	4528.5131315666
0.80535888671875	0.00222015380859375	4528.95563656549
0.809783935546875	0.00223785400390625	4529.39814156437
0.814208984375	0.002257080078125	4529.84064656325
0.818634033203125	0.00227691650390625	4530.28315156213
0.82305908203125	0.0022979736328125	4530.72565656102
0.827484130859375	0.00232025146484375	4531.1681615599
0.8319091796875	0.0023431396484375	4531.61066655878
0.836334228515625	0.0023675537109375	4532.05317155767
0.84075927734375	0.0023931884765625	4532.49567655655
0.845184326171875	0.00241973876953125	4532.93818155543
0.849609375	0.00244720458984375	4533.38068655431
0.854034423828125	0.00247650146484375	4533.8231915532
0.85845947265625	0.00250701904296875	4534.26569655208
0.862884521484375	0.00253814697265625	4534.70820155096
0.8673095703125	0.00257080078125	4535.15070654985
0.871734619140625	0.00260467529296875	4535.59321154873
0.87615966796875	0.002640380859375	4536.03571654761
0.880584716796875	0.00267669677734375	4536.47822154649
0.885009765625	0.00271484375	4536.92072654538
0.889434814453125	0.00275360107421875	4537.36323154426
0.89385986328125	0.0027935791015625	4537.80573654314
0.898284912109375	0.00283477783203125	4538.24824154202
0.9027099609375	0.00287689208984375	4538.69074654091
0.907135009765625	0.0029205322265625	4539.13325153979
0.91156005859375	0.002965087890625	4539.57575653867
0.915985107421875	0.00301055908203125	4540.01826153756
0.92041015625	0.00305633544921875	4540.46076653644
0.924835205078125	0.00310455322265625	4540.90327153532
0.92926025390625	0.00315216064453125	4541.3457765342
0.933685302734375	0.0032012939453125	4541.78828153309
0.9381103515625	0.003253173828125	4542.23078653197
0.942535400390625	0.00330291748046875	4542.67329153085
0.94696044921875	0.00335418701171875	4543.11579652974
0.951385498046875	0.00340545654296875	4543.55830152862
0.955810546875	0.0034564208984375	4544.0008065275
0.960235595703125	0.00350830078125	4544.44331152638
0.96466064453125	0.003560791015625	4544.88581652527
0.969085693359375	0.0036126708984375	4545.32832152415
0.9735107421875	0.00366485595703125	4545.77082652303
0.977935791015625	0.0037158203125	4546.21333152191
0.98236083984375	0.00376739501953125	4546.6558365208
0.986785888671875	0.00381866455078125	4547.09834151968
0.9912109375	0.00386932373046875	4547.54084651856
