Potential applied (V)	WE(1).Current (A)	Time (s)
0.004425048828125	-0.068310546875	4901.48595362494
0.00885009765625	-0.063775634765625	4901.57445462471
0.013275146484375	-0.060107421875	4901.66295562449
0.0177001953125	-0.0568603515625	4901.75145662427
0.022125244140625	-0.0539215087890625	4901.83995762404
0.02655029296875	-0.0512115478515625	4901.92845862382
0.030975341796875	-0.0486968994140625	4902.0169596236
0.035400390625	-0.0463409423828125	4902.10546062337
0.039825439453125	-0.04412841796875	4902.19396162315
0.04425048828125	-0.042041015625	4902.28246262293
0.048675537109375	-0.040069580078125	4902.3709636227
0.0531005859375	-0.0382049560546875	4902.45946462248
0.057525634765625	-0.036444091796875	4902.54796562226
0.06195068359375	-0.034771728515625	4902.63646662203
0.066375732421875	-0.0331878662109375	4902.72496762181
0.07080078125	-0.0316802978515625	4902.81346862159
0.075225830078125	-0.0302459716796875	4902.90196962136
0.07965087890625	-0.0288848876953125	4902.99047062114
0.084075927734375	-0.027581787109375	4903.07897162092
0.0885009765625	-0.0263427734375	4903.16747262069
0.092926025390625	-0.0251556396484375	4903.25597362047
0.09735107421875	-0.0240234375	4903.34447462024
0.101776123046875	-0.02293701171875	4903.43297562002
0.106201171875	-0.0218963623046875	4903.5214766198
0.110626220703125	-0.0208984375	4903.60997761958
0.11505126953125	-0.0199432373046875	4903.69847861935
0.119476318359375	-0.019024658203125	4903.78697961913
0.1239013671875	-0.0181365966796875	4903.8754806189
0.128326416015625	-0.0172882080078125	4903.96398161868
0.13275146484375	-0.0164703369140625	4904.05248261846
0.137176513671875	-0.0156829833984375	4904.14098361823
0.1416015625	-0.0149261474609375	4904.22948461801
0.146026611328125	-0.01419677734375	4904.31798561779
0.15045166015625	-0.013494873046875	4904.40648661756
0.154876708984375	-0.0128173828125	4904.49498761734
0.1593017578125	-0.012164306640625	4904.58348861712
0.163726806640625	-0.0115325927734375	4904.67198961689
0.16815185546875	-0.01092529296875	4904.76049061667
0.172576904296875	-0.01033935546875	4904.84899161645
0.177001953125	-0.009771728515625	4904.93749261622
0.181427001953125	-0.0092254638671875	4905.025993616
0.18585205078125	-0.008697509765625	4905.11449461578
0.190277099609375	-0.008184814453125	4905.20299561555
0.1947021484375	-0.0076934814453125	4905.29149661533
0.199127197265625	-0.0072174072265625	4905.37999761511
0.20355224609375	-0.0067535400390625	4905.46849861488
0.207977294921875	-0.0063079833984375	4905.55699961466
0.21240234375	-0.005877685546875	4905.64550061444
0.216827392578125	-0.0054595947265625	4905.73400161421
0.22125244140625	-0.0050537109375	4905.82250261399
0.225677490234375	-0.004666748046875	4905.91100361377
0.2301025390625	-0.00428863525390625	4905.99950461354
0.234527587890625	-0.00392333984375	4906.08800561332
0.23895263671875	-0.0035693359375	4906.17650661309
0.243377685546875	-0.003226318359375	4906.26500761287
0.247802734375	-0.00290557861328125	4906.35350861265
0.252227783203125	-0.0025836181640625	4906.44200961242
0.25665283203125	-0.00227081298828125	4906.5305106122
0.261077880859375	-0.001968994140625	4906.61901161198
0.2655029296875	-0.001676025390625	4906.70751261175
0.269927978515625	-0.00139190673828125	4906.79601361153
0.27435302734375	-0.001116943359375	4906.88451461131
0.278778076171875	-0.00085052490234375	4906.97301561108
0.283203125	-0.00059234619140625	4907.06151661086
0.287628173828125	-0.000341522216796875	4907.15001761064
0.29205322265625	-9.86328125E-05	4907.23851861041
0.296478271484375	0.000136810302734375	4907.32701961019
0.3009033203125	0.0003653564453125	4907.41552060997
0.305328369140625	0.000587158203125	4907.50402160974
0.30975341796875	0.000802001953125	4907.59252260952
0.314178466796875	0.00101287841796875	4907.6810236093
0.318603515625	0.00121490478515625	4907.76952460907
0.323028564453125	0.00141082763671875	4907.85802560885
0.32745361328125	0.0016009521484375	4907.94652660863
0.331878662109375	0.001785888671875	4908.0350276084
0.3363037109375	0.00196533203125	4908.12352860818
0.340728759765625	0.0021392822265625	4908.21202960796
0.34515380859375	0.002308349609375	4908.30053060773
0.349578857421875	0.00247222900390625	4908.38903160751
0.35400390625	0.00263031005859375	4908.47753260729
0.358428955078125	0.00278533935546875	4908.56603360706
0.36285400390625	0.002935791015625	4908.65453460684
0.367279052734375	0.00308135986328125	4908.74303560662
0.3717041015625	0.00322357177734375	4908.83153660639
0.376129150390625	0.0033612060546875	4908.92003760617
0.38055419921875	0.00349456787109375	4909.00853860594
0.384979248046875	0.0036236572265625	4909.09703960572
0.389404296875	0.00375	4909.1855406055
0.393829345703125	0.003873291015625	4909.27404160527
0.39825439453125	0.0039935302734375	4909.36254260505
0.402679443359375	0.004110107421875	4909.45104360483
0.4071044921875	0.00422271728515625	4909.5395446046
0.411529541015625	0.0043328857421875	4909.62804560438
0.41595458984375	0.00444061279296875	4909.71654660416
0.420379638671875	0.00454559326171875	4909.80504760393
0.4248046875	0.0046478271484375	4909.89354860371
0.429229736328125	0.0047479248046875	4909.98204960349
0.43365478515625	0.00484466552734375	4910.07055060326
0.438079833984375	0.00493865966796875	4910.15905160304
0.4425048828125	0.00503021240234375	4910.24755260282
0.446929931640625	0.0051202392578125	4910.33605360259
0.45135498046875	0.00520721435546875	4910.42455460237
0.455780029296875	0.005291748046875	4910.51305560215
0.460205078125	0.00537384033203125	4910.60155660192
0.464630126953125	0.00545379638671875	4910.6900576017
0.46905517578125	0.00553253173828125	4910.77855860148
0.473480224609375	0.00560821533203125	4910.86705960125
0.4779052734375	0.0056829833984375	4910.95556060103
0.482330322265625	0.00575714111328125	4911.04406160081
0.48675537109375	0.00582794189453125	4911.13256260058
0.491180419921875	0.00589599609375	4911.22106360036
0.49560546875	0.00596466064453125	4911.30956460014
0.500030517578125	0.0060308837890625	4911.39806559991
0.50445556640625	0.0060882568359375	4911.48656659969
0.508880615234375	0.0061492919921875	4911.57506759947
0.5133056640625	0.0062103271484375	4911.66356859924
0.517730712890625	0.006268310546875	4911.75206959902
0.52215576171875	0.0063262939453125	4911.84057059879
0.526580810546875	0.0063812255859375	4911.92907159857
0.531005859375	0.0064361572265625	4912.01757259835
0.535430908203125	0.006488037109375	4912.10607359812
0.53985595703125	0.0065399169921875	4912.1945745979
0.544281005859375	0.006591796875	4912.28307559768
0.5487060546875	0.006640625	4912.37157659745
0.553131103515625	0.006689453125	4912.46007759723
0.55755615234375	0.00673828125	4912.54857859701
0.561981201171875	0.0067840576171875	4912.63707959678
0.56640625	0.006829833984375	4912.72558059656
0.570831298828125	0.00687255859375	4912.81408159634
0.57525634765625	0.006915283203125	4912.90258259611
0.579681396484375	0.0069580078125	4912.99108359589
0.5841064453125	0.0069976806640625	4913.07958459567
0.588531494140625	0.0070343017578125	4913.16808559544
0.59295654296875	0.007073974609375	4913.25658659522
0.597381591796875	0.007110595703125	4913.345087595
0.601806640625	0.007147216796875	4913.43358859477
0.606231689453125	0.007183837890625	4913.52208959455
0.61065673828125	0.0072174072265625	4913.61059059433
0.615081787109375	0.0072509765625	4913.6990915941
0.6195068359375	0.0072845458984375	4913.78759259388
0.623931884765625	0.0073150634765625	4913.87609359366
0.62835693359375	0.0073486328125	4913.96459459343
0.632781982421875	0.007379150390625	4914.05309559321
0.63720703125	0.0074066162109375	4914.14159659299
0.641632080078125	0.0074371337890625	4914.23009759276
0.64605712890625	0.0074615478515625	4914.31859859254
0.650482177734375	0.007489013671875	4914.40709959231
0.6549072265625	0.0075164794921875	4914.49560059209
0.659332275390625	0.0075408935546875	4914.58410159187
0.66375732421875	0.0075653076171875	4914.67260259164
0.668182373046875	0.0075897216796875	4914.76110359142
0.672607421875	0.007611083984375	4914.8496045912
0.677032470703125	0.007635498046875	4914.93810559097
0.68145751953125	0.0076568603515625	4915.02660659075
0.685882568359375	0.00767822265625	4915.11510759053
0.6903076171875	0.0076995849609375	4915.2036085903
0.694732666015625	0.007720947265625	4915.29210959008
0.69915771484375	0.0077392578125	4915.38061058986
0.703582763671875	0.007757568359375	4915.46911158963
0.7080078125	0.00777587890625	4915.55761258941
0.712432861328125	0.007794189453125	4915.64611358919
0.71685791015625	0.0078125	4915.73461458896
0.721282958984375	0.007830810546875	4915.82311558874
0.7257080078125	0.0078460693359375	4915.91161658852
0.730133056640625	0.0078643798828125	4916.00011758829
0.73455810546875	0.007879638671875	4916.08861858807
0.738983154296875	0.0078948974609375	4916.17711958785
0.743408203125	0.0079132080078125	4916.26562058762
0.747833251953125	0.007928466796875	4916.3541215874
0.75225830078125	0.0079437255859375	4916.44262258718
0.756683349609375	0.0079620361328125	4916.53112358695
0.7611083984375	0.007977294921875	4916.61962458673
0.765533447265625	0.0079925537109375	4916.70812558651
0.76995849609375	0.0080108642578125	4916.79662658628
0.774383544921875	0.008026123046875	4916.88512758606
0.77880859375	0.0080413818359375	4916.97362858584
0.783233642578125	0.008056640625	4917.06212958561
0.78765869140625	0.008074951171875	4917.15063058539
0.792083740234375	0.0080902099609375	4917.23913158516
0.7965087890625	0.00810546875	4917.32763258494
0.800933837890625	0.008123779296875	4917.41613358472
0.80535888671875	0.0081390380859375	4917.50463458449
0.809783935546875	0.0081573486328125	4917.59313558427
0.814208984375	0.008172607421875	4917.68163658405
0.818634033203125	0.00819091796875	4917.77013758382
0.82305908203125	0.008209228515625	4917.8586385836
0.827484130859375	0.0082305908203125	4917.94713958338
0.8319091796875	0.0082489013671875	4918.03564058315
0.836334228515625	0.0082672119140625	4918.12414158293
0.84075927734375	0.00828857421875	4918.21264258271
0.845184326171875	0.008306884765625	4918.30114358248
0.849609375	0.0083282470703125	4918.38964458226
0.854034423828125	0.008349609375	4918.47814558204
0.85845947265625	0.0083740234375	4918.56664658181
0.862884521484375	0.0083953857421875	4918.65514758159
0.8673095703125	0.0084197998046875	4918.74364858137
0.871734619140625	0.0084442138671875	4918.83214958114
0.87615966796875	0.0084686279296875	4918.92065058092
0.880584716796875	0.0084930419921875	4919.0091515807
0.885009765625	0.0085235595703125	4919.09765258047
0.889434814453125	0.008551025390625	4919.18615358025
0.89385986328125	0.00858154296875	4919.27465458003
0.898284912109375	0.0086090087890625	4919.3631555798
0.9027099609375	0.0086395263671875	4919.45165657958
0.907135009765625	0.008673095703125	4919.54015757935
0.91156005859375	0.0087066650390625	4919.62865857913
0.915985107421875	0.0087432861328125	4919.71715957891
0.92041015625	0.00877685546875	4919.80566057869
0.924835205078125	0.0088165283203125	4919.89416157846
0.92926025390625	0.008856201171875	4919.98266257824
0.933685302734375	0.0088958740234375	4920.07116357801
0.9381103515625	0.008941650390625	4920.15966457779
0.942535400390625	0.0089874267578125	4920.24816557757
0.94696044921875	0.009033203125	4920.33666657734
0.951385498046875	0.0090789794921875	4920.42516757712
0.955810546875	0.0091278076171875	4920.5136685769
0.960235595703125	0.0091796875	4920.60216957667
0.96466064453125	0.0092315673828125	4920.69067057645
0.969085693359375	0.0092864990234375	4920.77917157623
0.9735107421875	0.0093414306640625	4920.867672576
0.977935791015625	0.0093963623046875	4920.95617357578
0.98236083984375	0.009454345703125	4921.04467457556
0.986785888671875	0.0095184326171875	4921.13317557533
0.9912109375	0.00958251953125	4921.22167657511
0.995635986328125	0.0096466064453125	4921.31017757489
1.00006103515625	0.0097137451171875	4921.39867857466
0.995635986328125	0.0091339111328125	4921.48717957444
0.9912109375	0.0085906982421875	4921.57568057422
0.986785888671875	0.0080810546875	4921.66418157399
0.98236083984375	0.007598876953125	4921.75268257377
0.977935791015625	0.0071319580078125	4921.84118357355
0.9735107421875	0.006689453125	4921.92968457332
0.969085693359375	0.0062591552734375	4922.0181855731
0.96466064453125	0.00584716796875	4922.10668657288
0.960235595703125	0.0054473876953125	4922.19518757265
0.955810546875	0.005059814453125	4922.28368857243
0.951385498046875	0.0046875	4922.3721895722
0.94696044921875	0.00432525634765625	4922.46069057198
0.942535400390625	0.00397369384765625	4922.54919157176
0.9381103515625	0.003631591796875	4922.63769257153
0.933685302734375	0.00329742431640625	4922.72619357131
0.92926025390625	0.00297698974609375	4922.81469457109
0.924835205078125	0.00266204833984375	4922.90319557086
0.92041015625	0.0023553466796875	4922.99169657064
0.915985107421875	0.002056884765625	4923.08019757042
0.91156005859375	0.0017657470703125	4923.16869857019
0.907135009765625	0.00148193359375	4923.25719956997
0.9027099609375	0.00120513916015625	4923.34570056975
0.898284912109375	0.00093505859375	4923.43420156952
0.89385986328125	0.00067138671875	4923.5227025693
0.889434814453125	0.000413909912109375	4923.61120356908
0.885009765625	0.00016290283203125	4923.69970456885
0.880584716796875	-8.2305908203125E-05	4923.78820556863
0.87615966796875	-0.000321533203125	4923.87670656841
0.871734619140625	-0.00055511474609375	4923.96520756818
0.8673095703125	-0.0007830810546875	4924.05370856796
0.862884521484375	-0.001005859375	4924.14220956774
0.85845947265625	-0.00122222900390625	4924.23071056751
0.854034423828125	-0.001434326171875	4924.31921156729
0.849609375	-0.001641845703125	4924.40771256707
0.845184326171875	-0.0018438720703125	4924.49621356684
0.84075927734375	-0.002041015625	4924.58471456662
0.836334228515625	-0.00223388671875	4924.6732155664
0.8319091796875	-0.002421875	4924.76171656617
0.827484130859375	-0.00260528564453125	4924.85021756595
0.82305908203125	-0.00278350830078125	4924.93871856573
0.818634033203125	-0.002957763671875	4925.0272195655
0.814208984375	-0.00312774658203125	4925.11572056528
0.809783935546875	-0.00329315185546875	4925.20422156505
0.80535888671875	-0.00345489501953125	4925.29272256483
0.800933837890625	-0.003612060546875	4925.38122356461
0.7965087890625	-0.0037652587890625	4925.46972456438
0.792083740234375	-0.003914794921875	4925.55822556416
0.78765869140625	-0.00406005859375	4925.64672656394
0.783233642578125	-0.00420135498046875	4925.73522756371
0.77880859375	-0.00433868408203125	4925.82372856349
0.774383544921875	-0.00447296142578125	4925.91222956327
0.76995849609375	-0.00460357666015625	4926.00073056304
0.765533447265625	-0.004730224609375	4926.08923156282
0.7611083984375	-0.00485321044921875	4926.1777325626
0.756683349609375	-0.00497344970703125	4926.26623356237
0.75225830078125	-0.00509002685546875	4926.35473456215
0.747833251953125	-0.0052032470703125	4926.44323556193
0.743408203125	-0.00531280517578125	4926.5317365617
0.738983154296875	-0.005418701171875	4926.62023756148
0.73455810546875	-0.00552215576171875	4926.70873856126
0.730133056640625	-0.0056231689453125	4926.79723956103
0.7257080078125	-0.00572052001953125	4926.88574056081
0.721282958984375	-0.00581512451171875	4926.97424156059
0.71685791015625	-0.005906982421875	4927.06274256036
0.712432861328125	-0.00599517822265625	4927.15124356014
0.7080078125	-0.00608154296875	4927.23974455992
0.703582763671875	-0.0061431884765625	4927.32824555969
0.69915771484375	-0.0062255859375	4927.41674655947
0.694732666015625	-0.0063018798828125	4927.50524755925
0.6903076171875	-0.006378173828125	4927.59374855902
0.685882568359375	-0.006451416015625	4927.6822495588
0.68145751953125	-0.0065216064453125	4927.77075055857
0.677032470703125	-0.0065887451171875	4927.85925155835
0.672607421875	-0.0066558837890625	4927.94775255813
0.668182373046875	-0.0067230224609375	4928.0362535579
0.66375732421875	-0.0067840576171875	4928.12475455768
0.659332275390625	-0.006842041015625	4928.21325555746
0.6549072265625	-0.0069000244140625	4928.30175655723
0.650482177734375	-0.0069549560546875	4928.39025755701
0.64605712890625	-0.0070098876953125	4928.47875855679
0.641632080078125	-0.0070587158203125	4928.56725955656
0.63720703125	-0.007110595703125	4928.65576055634
0.632781982421875	-0.0071563720703125	4928.74426155612
0.62835693359375	-0.0072052001953125	4928.83276255589
0.623931884765625	-0.0072540283203125	4928.92126355567
0.6195068359375	-0.0072967529296875	4929.00976455545
0.615081787109375	-0.00733642578125	4929.09826555522
0.61065673828125	-0.0073760986328125	4929.186766555
0.606231689453125	-0.007415771484375	4929.27526755478
0.601806640625	-0.007452392578125	4929.36376855455
0.597381591796875	-0.007489013671875	4929.45226955433
0.59295654296875	-0.0075225830078125	4929.54077055411
0.588531494140625	-0.00755615234375	4929.62927155388
0.5841064453125	-0.007586669921875	4929.71777255366
0.579681396484375	-0.0076202392578125	4929.80627355344
0.57525634765625	-0.007647705078125	4929.89477455321
0.570831298828125	-0.00767822265625	4929.98327555299
0.56640625	-0.0077056884765625	4930.07177655277
0.561981201171875	-0.007733154296875	4930.16027755254
0.55755615234375	-0.0077606201171875	4930.24877855232
0.553131103515625	-0.0077880859375	4930.3372795521
0.5487060546875	-0.0078094482421875	4930.42578055187
0.544281005859375	-0.0078338623046875	4930.51428155165
0.53985595703125	-0.007855224609375	4930.60278255142
0.535430908203125	-0.007879638671875	4930.6912835512
0.531005859375	-0.0079010009765625	4930.77978455098
0.526580810546875	-0.0079254150390625	4930.86828555075
0.52215576171875	-0.00794677734375	4930.95678655053
0.517730712890625	-0.0079681396484375	4931.04528755031
0.5133056640625	-0.007989501953125	4931.13378855008
0.508880615234375	-0.0080108642578125	4931.22228954986
0.50445556640625	-0.0080291748046875	4931.31079054964
0.500030517578125	-0.008050537109375	4931.39929154941
0.49560546875	-0.00806884765625	4931.48779254919
0.491180419921875	-0.0080902099609375	4931.57629354897
0.48675537109375	-0.0081085205078125	4931.66479454874
0.482330322265625	-0.0081298828125	4931.75329554852
0.4779052734375	-0.008148193359375	4931.8417965483
0.473480224609375	-0.00816650390625	4931.93029754807
0.46905517578125	-0.008184814453125	4932.01879854785
0.464630126953125	-0.008203125	4932.10729954763
0.460205078125	-0.008221435546875	4932.1958005474
0.455780029296875	-0.00823974609375	4932.28430154718
0.45135498046875	-0.008258056640625	4932.37280254696
0.446929931640625	-0.0082763671875	4932.46130354673
0.4425048828125	-0.008294677734375	4932.54980454651
0.438079833984375	-0.00831298828125	4932.63830554629
0.43365478515625	-0.0083343505859375	4932.72680654606
0.429229736328125	-0.008349609375	4932.81530754584
0.4248046875	-0.0083709716796875	4932.90380854561
0.420379638671875	-0.0083892822265625	4932.99230954539
0.41595458984375	-0.0084075927734375	4933.08081054517
0.411529541015625	-0.0084259033203125	4933.16931154495
0.4071044921875	-0.008447265625	4933.25781254472
0.402679443359375	-0.008465576171875	4933.3463135445
0.39825439453125	-0.00848388671875	4933.43481454427
0.393829345703125	-0.0085052490234375	4933.52331554405
0.389404296875	-0.0085235595703125	4933.61181654383
0.384979248046875	-0.0085418701171875	4933.7003175436
0.38055419921875	-0.0085601806640625	4933.78881854338
0.376129150390625	-0.00858154296875	4933.87731954316
0.3717041015625	-0.008599853515625	4933.96582054293
0.367279052734375	-0.0086181640625	4934.05432154271
0.36285400390625	-0.008636474609375	4934.14282254249
0.358428955078125	-0.0086578369140625	4934.23132354226
0.35400390625	-0.0086761474609375	4934.31982454204
0.349578857421875	-0.0086944580078125	4934.40832554182
0.34515380859375	-0.0087127685546875	4934.49682654159
0.340728759765625	-0.0087310791015625	4934.58532754137
0.3363037109375	-0.00875244140625	4934.67382854115
0.331878662109375	-0.008770751953125	4934.76232954092
0.32745361328125	-0.0087890625	4934.8508305407
0.323028564453125	-0.008807373046875	4934.93933154048
0.318603515625	-0.00882568359375	4935.02783254025
0.314178466796875	-0.008843994140625	4935.11633354003
0.30975341796875	-0.0088653564453125	4935.20483453981
0.305328369140625	-0.0088836669921875	4935.29333553958
0.3009033203125	-0.00889892578125	4935.38183653936
0.296478271484375	-0.0089141845703125	4935.47033753914
0.29205322265625	-0.0089324951171875	4935.55883853891
0.287628173828125	-0.00894775390625	4935.64733953869
0.283203125	-0.0089630126953125	4935.73584053846
0.278778076171875	-0.008978271484375	4935.82434153824
0.27435302734375	-0.0089935302734375	4935.91284253802
0.269927978515625	-0.0090118408203125	4936.0013435378
0.2655029296875	-0.009027099609375	4936.08984453757
0.261077880859375	-0.009039306640625	4936.17834553735
0.25665283203125	-0.0090545654296875	4936.26684653712
0.252227783203125	-0.0090667724609375	4936.3553475369
0.247802734375	-0.00908203125	4936.44384853668
0.243377685546875	-0.00909423828125	4936.53234953645
0.23895263671875	-0.0091064453125	4936.62085053623
0.234527587890625	-0.00911865234375	4936.70935153601
0.2301025390625	-0.009130859375	4936.79785253578
0.225677490234375	-0.00914306640625	4936.88635353556
0.22125244140625	-0.0091552734375	4936.97485453534
0.216827392578125	-0.00916748046875	4937.06335553511
0.21240234375	-0.0091796875	4937.15185653489
0.207977294921875	-0.0091888427734375	4937.24035753467
0.20355224609375	-0.0092041015625	4937.32885853444
0.199127197265625	-0.0092132568359375	4937.41735953422
0.1947021484375	-0.009222412109375	4937.505860534
0.190277099609375	-0.009234619140625	4937.59436153377
0.18585205078125	-0.009246826171875	4937.68286253355
0.181427001953125	-0.0092559814453125	4937.77136353333
0.177001953125	-0.0092681884765625	4937.8598645331
0.172576904296875	-0.00927734375	4937.94836553288
0.16815185546875	-0.00928955078125	4938.03686653266
0.163726806640625	-0.0092987060546875	4938.12536753243
0.1593017578125	-0.0093109130859375	4938.21386853221
0.154876708984375	-0.009320068359375	4938.30236953199
0.15045166015625	-0.009332275390625	4938.39087053176
0.146026611328125	-0.0093414306640625	4938.47937153154
0.1416015625	-0.0093536376953125	4938.56787253131
0.137176513671875	-0.00936279296875	4938.65637353109
0.13275146484375	-0.0093719482421875	4938.74487453087
0.128326416015625	-0.0093841552734375	4938.83337553064
0.1239013671875	-0.0093963623046875	4938.92187653042
0.119476318359375	-0.009405517578125	4939.0103775302
0.11505126953125	-0.0094146728515625	4939.09887852997
0.110626220703125	-0.0094268798828125	4939.18737952975
0.106201171875	-0.0094390869140625	4939.27588052953
0.101776123046875	-0.0094512939453125	4939.3643815293
0.09735107421875	-0.0094635009765625	4939.45288252908
0.092926025390625	-0.0094757080078125	4939.54138352886
0.0885009765625	-0.0094879150390625	4939.62988452863
0.084075927734375	-0.0095001220703125	4939.71838552841
0.07965087890625	-0.00950927734375	4939.80688652819
0.075225830078125	-0.009521484375	4939.89538752796
0.07080078125	-0.0095367431640625	4939.98388852774
0.066375732421875	-0.0095489501953125	4940.07238952752
0.06195068359375	-0.0095611572265625	4940.16089052729
0.057525634765625	-0.0095733642578125	4940.24939152707
0.0531005859375	-0.009588623046875	4940.33789252685
0.048675537109375	-0.009600830078125	4940.42639352662
0.04425048828125	-0.009613037109375	4940.5148945264
0.039825439453125	-0.0096282958984375	4940.60339552618
0.035400390625	-0.0096405029296875	4940.69189652595
0.030975341796875	-0.00965576171875	4940.78039752573
0.02655029296875	-0.0096710205078125	4940.8688985255
0.022125244140625	-0.009686279296875	4940.95739952528
0.0177001953125	-0.0097015380859375	4941.04590052506
0.013275146484375	-0.009716796875	4941.13440152484
0.00885009765625	-0.0097320556640625	4941.22290252461
0.004425048828125	-0.0097503662109375	4941.31140352439
0	-0.009765625	4941.39990452416
0.004425048828125	-0.009149169921875	4941.48840552394
0.00885009765625	-0.0085693359375	4941.57690652372
0.013275146484375	-0.0080169677734375	4941.66540752349
0.0177001953125	-0.0074981689453125	4941.75390852327
0.022125244140625	-0.0069976806640625	4941.84240952305
0.02655029296875	-0.0065185546875	4941.93091052282
0.030975341796875	-0.006060791015625	4942.0194115226
0.035400390625	-0.005621337890625	4942.10791252238
0.039825439453125	-0.0051971435546875	4942.19641352215
0.04425048828125	-0.00479034423828125	4942.28491452193
0.048675537109375	-0.00439697265625	4942.37341552171
0.0531005859375	-0.00401763916015625	4942.46191652148
0.057525634765625	-0.0036517333984375	4942.55041752126
0.06195068359375	-0.00329833984375	4942.63891852104
0.066375732421875	-0.00296844482421875	4942.72741952081
0.07080078125	-0.002637939453125	4942.81592052059
0.075225830078125	-0.002318115234375	4942.90442152037
0.07965087890625	-0.0020098876953125	4942.99292252014
0.084075927734375	-0.001710205078125	4943.08142351992
0.0885009765625	-0.00141998291015625	4943.1699245197
0.092926025390625	-0.0011395263671875	4943.25842551947
0.09735107421875	-0.000867919921875	4943.34692651925
0.101776123046875	-0.00060455322265625	4943.43542751903
0.106201171875	-0.000349212646484375	4943.5239285188
0.110626220703125	-0.000102142333984375	4943.61242951858
0.11505126953125	0.0001376953125	4943.70093051835
0.119476318359375	0.000368316650390625	4943.78943151813
0.1239013671875	0.00059417724609375	4943.87793251791
0.128326416015625	0.00081268310546875	4943.96643351768
0.13275146484375	0.0010247802734375	4944.05493451746
0.137176513671875	0.00123016357421875	4944.14343551724
0.1416015625	0.00142913818359375	4944.23193651701
0.146026611328125	0.00162261962890625	4944.32043751679
0.15045166015625	0.00180999755859375	4944.40893851657
0.154876708984375	0.00199249267578125	4944.49743951634
0.1593017578125	0.0021685791015625	4944.58594051612
0.163726806640625	0.0023394775390625	4944.6744415159
0.16815185546875	0.0025054931640625	4944.76294251567
0.172576904296875	0.00266693115234375	4944.85144351545
0.177001953125	0.002823486328125	4944.93994451523
0.181427001953125	0.00297515869140625	4945.028445515
0.18585205078125	0.00312286376953125	4945.11694651478
0.190277099609375	0.00326629638671875	4945.20544751456
0.1947021484375	0.00340484619140625	4945.29394851433
0.199127197265625	0.0035394287109375	4945.38244951411
0.20355224609375	0.00367034912109375	4945.47095051389
0.207977294921875	0.0037969970703125	4945.55945151366
0.21240234375	0.00391998291015625	4945.64795251344
0.216827392578125	0.004039306640625	4945.73645351322
0.22125244140625	0.0041552734375	4945.82495451299
0.225677490234375	0.00426849365234375	4945.91345551277
0.2301025390625	0.004378662109375	4946.00195651255
0.234527587890625	0.00448455810546875	4946.09045751232
0.23895263671875	0.00458831787109375	4946.1789585121
0.243377685546875	0.0046893310546875	4946.26745951188
0.247802734375	0.00478729248046875	4946.35596051165
0.252227783203125	0.0048828125	4946.44446151143
0.25665283203125	0.0049761962890625	4946.5329625112
0.261077880859375	0.0050665283203125	4946.62146351098
0.2655029296875	0.00515380859375	4946.70996451076
0.269927978515625	0.0052392578125	4946.79846551053
0.27435302734375	0.00532318115234375	4946.88696651031
0.278778076171875	0.0054046630859375	4946.97546751009
0.283203125	0.0054840087890625	4947.06396850986
0.287628173828125	0.0055615234375	4947.15246950964
0.29205322265625	0.00563720703125	4947.24097050942
0.296478271484375	0.00571075439453125	4947.32947150919
0.3009033203125	0.00578216552734375	4947.41797250897
0.305328369140625	0.005853271484375	4947.50647350875
0.30975341796875	0.005921630859375	4947.59497450852
0.314178466796875	0.00599090576171875	4947.6834755083
0.318603515625	0.006055908203125	4947.77197650808
0.323028564453125	0.006109619140625	4947.86047750785
0.32745361328125	0.0061737060546875	4947.94897850763
0.331878662109375	0.0062347412109375	4948.03747950741
0.3363037109375	0.006292724609375	4948.12598050718
0.340728759765625	0.0063507080078125	4948.21448150696
0.34515380859375	0.0064056396484375	4948.30298250674
0.349578857421875	0.0064605712890625	4948.39148350651
0.35400390625	0.0065155029296875	4948.47998450629
0.358428955078125	0.0065704345703125	4948.56848550607
0.36285400390625	0.006622314453125	4948.65698650584
0.367279052734375	0.0066741943359375	4948.74548750562
0.3717041015625	0.00672607421875	4948.8339885054
0.376129150390625	0.00677490234375	4948.92248950517
0.38055419921875	0.00682373046875	4949.01099050495
0.384979248046875	0.00687255859375	4949.09949150472
0.389404296875	0.00692138671875	4949.1879925045
0.393829345703125	0.00697021484375	4949.27649350428
0.39825439453125	0.0070159912109375	4949.36499450405
0.402679443359375	0.0070587158203125	4949.45349550383
0.4071044921875	0.0071014404296875	4949.54199650361
0.411529541015625	0.0071441650390625	4949.63049750338
0.41595458984375	0.00718994140625	4949.71899850316
0.420379638671875	0.007232666015625	4949.80749950294
0.4248046875	0.0072723388671875	4949.89600050271
0.429229736328125	0.0073150634765625	4949.98450150249
0.43365478515625	0.007354736328125	4950.07300250227
0.438079833984375	0.0073974609375	4950.16150350204
0.4425048828125	0.0074371337890625	4950.25000450182
0.446929931640625	0.007476806640625	4950.3385055016
0.45135498046875	0.007513427734375	4950.42700650137
0.455780029296875	0.0075531005859375	4950.51550750115
0.460205078125	0.0075897216796875	4950.60400850093
0.464630126953125	0.00762939453125	4950.6925095007
0.46905517578125	0.007666015625	4950.78101050048
0.473480224609375	0.00770263671875	4950.86951150026
0.4779052734375	0.0077362060546875	4950.95801250003
0.482330322265625	0.0077728271484375	4951.04651349981
0.48675537109375	0.0078033447265625	4951.13501449959
0.491180419921875	0.0078369140625	4951.22351549936
0.49560546875	0.007867431640625	4951.31201649914
0.500030517578125	0.007904052734375	4951.40051749892
0.50445556640625	0.0079345703125	4951.48901849869
0.508880615234375	0.007965087890625	4951.57751949847
0.5133056640625	0.0079986572265625	4951.66602049825
0.517730712890625	0.0080291748046875	4951.75452149802
0.52215576171875	0.0080596923828125	4951.8430224978
0.526580810546875	0.008087158203125	4951.93152349757
0.531005859375	0.00811767578125	4952.02002449735
0.535430908203125	0.0081451416015625	4952.10852549713
0.53985595703125	0.008172607421875	4952.1970264969
0.544281005859375	0.0082000732421875	4952.28552749668
0.5487060546875	0.0082244873046875	4952.37402849646
0.553131103515625	0.008251953125	4952.46252949623
0.55755615234375	0.0082763671875	4952.55103049601
0.561981201171875	0.00830078125	4952.63953149579
0.56640625	0.0083251953125	4952.72803249556
0.570831298828125	0.0083465576171875	4952.81653349534
0.57525634765625	0.0083709716796875	4952.90503449512
0.579681396484375	0.008392333984375	4952.99353549489
0.5841064453125	0.0084136962890625	4953.08203649467
0.588531494140625	0.0084320068359375	4953.17053749445
0.59295654296875	0.008453369140625	4953.25903849422
0.597381591796875	0.0084716796875	4953.347539494
0.601806640625	0.008489990234375	4953.43604049378
0.606231689453125	0.00850830078125	4953.52454149355
0.61065673828125	0.0085235595703125	4953.61304249333
0.615081787109375	0.0085418701171875	4953.70154349311
0.6195068359375	0.00855712890625	4953.79004449288
0.623931884765625	0.0085723876953125	4953.87854549266
0.62835693359375	0.0085906982421875	4953.96704649244
0.632781982421875	0.00860595703125	4954.05554749221
0.63720703125	0.0086181640625	4954.14404849199
0.641632080078125	0.00863037109375	4954.23254949176
0.64605712890625	0.008642578125	4954.32105049154
0.650482177734375	0.00865478515625	4954.40955149132
0.6549072265625	0.0086639404296875	4954.4980524911
0.659332275390625	0.0086761474609375	4954.58655349087
0.66375732421875	0.008685302734375	4954.67505449065
0.668182373046875	0.008697509765625	4954.76355549042
0.672607421875	0.00870361328125	4954.8520564902
0.677032470703125	0.0087127685546875	4954.94055748998
0.68145751953125	0.008721923828125	4955.02905848975
0.685882568359375	0.0087310791015625	4955.11755948953
0.6903076171875	0.0087371826171875	4955.20606048931
0.694732666015625	0.008746337890625	4955.29456148908
0.69915771484375	0.00875244140625	4955.38306248886
0.703582763671875	0.008758544921875	4955.47156348864
0.7080078125	0.0087646484375	4955.56006448841
0.712432861328125	0.0087677001953125	4955.64856548819
0.71685791015625	0.00877685546875	4955.73706648797
0.721282958984375	0.008782958984375	4955.82556748774
0.7257080078125	0.0087860107421875	4955.91406848752
0.730133056640625	0.0087921142578125	4956.0025694873
0.73455810546875	0.0087982177734375	4956.09107048707
0.738983154296875	0.0088043212890625	4956.17957148685
0.743408203125	0.008807373046875	4956.26807248663
0.747833251953125	0.0088134765625	4956.3565734864
0.75225830078125	0.008819580078125	4956.44507448618
0.756683349609375	0.00882568359375	4956.53357548596
0.7611083984375	0.0088287353515625	4956.62207648573
0.765533447265625	0.0088348388671875	4956.71057748551
0.76995849609375	0.0088409423828125	4956.79907848529
0.774383544921875	0.0088470458984375	4956.88757948506
0.77880859375	0.0088531494140625	4956.97608048484
0.783233642578125	0.0088592529296875	4957.06458148461
0.78765869140625	0.0088653564453125	4957.15308248439
0.792083740234375	0.00887451171875	4957.24158348417
0.7965087890625	0.008880615234375	4957.33008448395
0.800933837890625	0.00888671875	4957.41858548372
0.80535888671875	0.0088958740234375	4957.5070864835
0.809783935546875	0.008905029296875	4957.59558748327
0.814208984375	0.0089141845703125	4957.68408848305
0.818634033203125	0.00892333984375	4957.77258948283
0.82305908203125	0.0089324951171875	4957.8610904826
0.827484130859375	0.008941650390625	4957.94959148238
0.8319091796875	0.008953857421875	4958.03809248216
0.836334228515625	0.008966064453125	4958.12659348193
0.84075927734375	0.008978271484375	4958.21509448171
0.845184326171875	0.008990478515625	4958.30359548149
0.849609375	0.009002685546875	4958.39209648126
0.854034423828125	0.0090179443359375	4958.48059748104
0.85845947265625	0.009033203125	4958.56909848082
0.862884521484375	0.0090484619140625	4958.65759948059
0.8673095703125	0.0090667724609375	4958.74610048037
0.871734619140625	0.0090850830078125	4958.83460148015
0.87615966796875	0.0091033935546875	4958.92310247992
0.880584716796875	0.0091217041015625	4959.0116034797
0.885009765625	0.00914306640625	4959.10010447948
0.889434814453125	0.0091644287109375	4959.18860547925
0.89385986328125	0.0091888427734375	4959.27710647903
0.898284912109375	0.0092132568359375	4959.36560747881
0.9027099609375	0.0092376708984375	4959.45410847858
0.907135009765625	0.0092620849609375	4959.54260947836
0.91156005859375	0.0092926025390625	4959.63111047814
0.915985107421875	0.009320068359375	4959.71961147791
0.92041015625	0.0093505859375	4959.80811247769
0.924835205078125	0.0093841552734375	4959.89661347746
0.92926025390625	0.0094146728515625	4959.98511447724
0.933685302734375	0.0094512939453125	4960.07361547702
0.9381103515625	0.0094879150390625	4960.16211647679
0.942535400390625	0.009527587890625	4960.25061747657
0.94696044921875	0.0095672607421875	4960.33911847635
0.951385498046875	0.0096099853515625	4960.42761947612
0.955810546875	0.0096527099609375	4960.5161204759
0.960235595703125	0.009698486328125	4960.60462147568
0.96466064453125	0.0097442626953125	4960.69312247545
0.969085693359375	0.0097930908203125	4960.78162347523
0.9735107421875	0.009844970703125	4960.87012447501
0.977935791015625	0.009893798828125	4960.95862547478
0.98236083984375	0.00994873046875	4961.04712647456
0.986785888671875	0.010003662109375	4961.13562747434
0.9912109375	0.010064697265625	4961.22412847411
0.995635986328125	0.0101226806640625	4961.31262947389
1.00006103515625	0.0101837158203125	4961.40113047367
0.995635986328125	0.0095947265625	4961.48963147344
0.9912109375	0.0090484619140625	4961.57813247322
0.986785888671875	0.00853271484375	4961.666633473
0.98236083984375	0.0080413818359375	4961.75513447277
0.977935791015625	0.007574462890625	4961.84363547255
0.9735107421875	0.007122802734375	4961.93213647233
0.969085693359375	0.006689453125	4962.0206374721
0.96466064453125	0.006268310546875	4962.10913847188
0.960235595703125	0.005865478515625	4962.19763947165
0.955810546875	0.0054718017578125	4962.28614047143
0.951385498046875	0.0050933837890625	4962.37464147121
0.94696044921875	0.00472564697265625	4962.46314247099
0.942535400390625	0.00436859130859375	4962.55164347076
0.9381103515625	0.004022216796875	4962.64014447054
0.933685302734375	0.0036822509765625	4962.72864547031
0.92926025390625	0.00335418701171875	4962.81714647009
0.924835205078125	0.00303741455078125	4962.90564746987
0.92041015625	0.00272552490234375	4962.99414846964
0.915985107421875	0.002421875	4963.08264946942
0.91156005859375	0.00212554931640625	4963.1711504692
0.907135009765625	0.001837158203125	4963.25965146897
0.9027099609375	0.00155548095703125	4963.34815246875
0.898284912109375	0.00128082275390625	4963.43665346853
0.89385986328125	0.0010125732421875	4963.5251544683
0.889434814453125	0.00075103759765625	4963.61365546808
0.885009765625	0.00049468994140625	4963.70215646786
0.880584716796875	0.000245361328125	4963.79065746763
0.87615966796875	1.54724121093749E-06	4963.87915846741
0.871734619140625	-0.000236541748046875	4963.96765946719
0.8673095703125	-0.00046881103515625	4964.05616046696
0.862884521484375	-0.0006956787109375	4964.14466146674
0.85845947265625	-0.00091644287109375	4964.23316246652
0.854034423828125	-0.00113250732421875	4964.32166346629
0.849609375	-0.00134368896484375	4964.41016446607
0.845184326171875	-0.00154998779296875	4964.49866546585
0.84075927734375	-0.0017510986328125	4964.58716646562
0.836334228515625	-0.00194793701171875	4964.6756674654
0.8319091796875	-0.00213958740234375	4964.76416846518
0.827484130859375	-0.00232635498046875	4964.85266946495
0.82305908203125	-0.00250885009765625	4964.94117046473
0.818634033203125	-0.00268646240234375	4965.0296714645
0.814208984375	-0.002860107421875	4965.11817246428
0.809783935546875	-0.00302886962890625	4965.20667346406
0.80535888671875	-0.00319427490234375	4965.29517446383
0.800933837890625	-0.0033551025390625	4965.38367546361
0.7965087890625	-0.00351165771484375	4965.47217646339
0.792083740234375	-0.00366424560546875	4965.56067746316
0.78765869140625	-0.00381317138671875	4965.64917846294
0.783233642578125	-0.0039581298828125	4965.73767946272
0.77880859375	-0.00409820556640625	4965.82618046249
0.774383544921875	-0.0042352294921875	4965.91468146227
0.76995849609375	-0.00436859130859375	4966.00318246205
0.765533447265625	-0.0044989013671875	4966.09168346182
0.7611083984375	-0.0046246337890625	4966.1801844616
0.756683349609375	-0.00474761962890625	4966.26868546138
0.75225830078125	-0.004866943359375	4966.35718646115
0.747833251953125	-0.00498321533203125	4966.44568746093
0.743408203125	-0.0050958251953125	4966.53418846071
0.738983154296875	-0.00520355224609375	4966.62268946048
0.73455810546875	-0.00530914306640625	4966.71119046026
0.730133056640625	-0.00541290283203125	4966.79969146004
0.7257080078125	-0.00551300048828125	4966.88819245981
0.721282958984375	-0.00561004638671875	4966.97669345959
0.71685791015625	-0.00570404052734375	4967.06519445937
0.712432861328125	-0.00579559326171875	4967.15369545914
0.7080078125	-0.00588470458984375	4967.24219645892
0.703582763671875	-0.00597076416015625	4967.3306974587
0.69915771484375	-0.00605194091796875	4967.41919845847
0.694732666015625	-0.0061126708984375	4967.50769945825
0.6903076171875	-0.0061920166015625	4967.59620045803
0.685882568359375	-0.0062652587890625	4967.6847014578
0.68145751953125	-0.0063385009765625	4967.77320245758
0.677032470703125	-0.00640869140625	4967.86170345735
0.672607421875	-0.0064788818359375	4967.95020445713
0.668182373046875	-0.00654296875	4968.03870545691
0.66375732421875	-0.0066070556640625	4968.12720645668
0.659332275390625	-0.0066680908203125	4968.21570745646
0.6549072265625	-0.0067291259765625	4968.30420845624
0.650482177734375	-0.006787109375	4968.39270945601
0.64605712890625	-0.0068450927734375	4968.48121045579
0.641632080078125	-0.0069000244140625	4968.56971145557
0.63720703125	-0.0069488525390625	4968.65821245534
0.632781982421875	-0.007000732421875	4968.74671345512
0.62835693359375	-0.007049560546875	4968.8352144549
0.623931884765625	-0.0071014404296875	4968.92371545467
0.6195068359375	-0.007147216796875	4969.01221645445
0.615081787109375	-0.00718994140625	4969.10071745423
0.61065673828125	-0.0072296142578125	4969.189218454
0.606231689453125	-0.0072723388671875	4969.27771945378
0.601806640625	-0.00731201171875	4969.36622045356
0.597381591796875	-0.0073516845703125	4969.45472145333
0.59295654296875	-0.0073883056640625	4969.54322245311
0.588531494140625	-0.007421875	4969.63172345289
0.5841064453125	-0.0074554443359375	4969.72022445266
0.579681396484375	-0.007489013671875	4969.80872545244
0.57525634765625	-0.0075225830078125	4969.89722645222
0.570831298828125	-0.0075531005859375	4969.98572745199
0.56640625	-0.0075836181640625	4970.07422845177
0.561981201171875	-0.0076141357421875	4970.16272945155
0.55755615234375	-0.0076416015625	4970.25123045132
0.553131103515625	-0.0076690673828125	4970.3397314511
0.5487060546875	-0.007696533203125	4970.42823245087
0.544281005859375	-0.0077239990234375	4970.51673345065
0.53985595703125	-0.0077484130859375	4970.60523445043
0.535430908203125	-0.00777587890625	4970.6937354502
0.531005859375	-0.0077972412109375	4970.78223644998
0.526580810546875	-0.0078216552734375	4970.87073744976
0.52215576171875	-0.007843017578125	4970.95923844953
0.517730712890625	-0.007867431640625	4971.04773944931
0.5133056640625	-0.0078887939453125	4971.13624044909
0.508880615234375	-0.00791015625	4971.22474144886
0.50445556640625	-0.0079345703125	4971.31324244864
0.500030517578125	-0.0079559326171875	4971.40174344842
0.49560546875	-0.007977294921875	4971.49024444819
0.491180419921875	-0.0079986572265625	4971.57874544797
0.48675537109375	-0.00802001953125	4971.66724644775
0.482330322265625	-0.008038330078125	4971.75574744752
0.4779052734375	-0.0080596923828125	4971.8442484473
0.473480224609375	-0.0080780029296875	4971.93274944708
0.46905517578125	-0.008099365234375	4972.02125044685
0.464630126953125	-0.0081207275390625	4972.10975144663
0.460205078125	-0.0081390380859375	4972.19825244641
0.455780029296875	-0.008160400390625	4972.28675344618
0.45135498046875	-0.0081787109375	4972.37525444596
0.446929931640625	-0.0082000732421875	4972.46375544574
0.4425048828125	-0.008221435546875	4972.55225644551
0.438079833984375	-0.00823974609375	4972.64075744529
0.43365478515625	-0.008258056640625	4972.72925844507
0.429229736328125	-0.0082794189453125	4972.81775944484
0.4248046875	-0.0082977294921875	4972.90626044462
0.420379638671875	-0.008319091796875	4972.9947614444
0.41595458984375	-0.00833740234375	4973.08326244417
0.411529541015625	-0.0083587646484375	4973.17176344395
0.4071044921875	-0.008380126953125	4973.26026444372
0.402679443359375	-0.0083984375	4973.3487654435
0.39825439453125	-0.0084197998046875	4973.43726644328
0.393829345703125	-0.0084381103515625	4973.52576744305
0.389404296875	-0.00845947265625	4973.61426844283
0.384979248046875	-0.008477783203125	4973.70276944261
0.38055419921875	-0.0084991455078125	4973.79127044238
0.376129150390625	-0.0085174560546875	4973.87977144216
0.3717041015625	-0.008538818359375	4973.96827244194
0.367279052734375	-0.0085601806640625	4974.05677344171
0.36285400390625	-0.0085784912109375	4974.14527444149
0.358428955078125	-0.008599853515625	4974.23377544127
0.35400390625	-0.0086181640625	4974.32227644104
0.349578857421875	-0.008636474609375	4974.41077744082
0.34515380859375	-0.0086578369140625	4974.4992784406
0.340728759765625	-0.0086761474609375	4974.58777944037
0.3363037109375	-0.0086944580078125	4974.67628044015
0.331878662109375	-0.0087158203125	4974.76478143993
0.32745361328125	-0.008734130859375	4974.8532824397
0.323028564453125	-0.00875244140625	4974.94178343948
0.318603515625	-0.008770751953125	4975.03028443926
0.314178466796875	-0.0087890625	4975.11878543903
0.30975341796875	-0.0088104248046875	4975.20728643881
0.305328369140625	-0.0088287353515625	4975.29578743859
0.3009033203125	-0.008843994140625	4975.38428843836
0.296478271484375	-0.0088623046875	4975.47278943814
0.29205322265625	-0.008880615234375	4975.56129043791
0.287628173828125	-0.0088958740234375	4975.64979143769
0.283203125	-0.0089111328125	4975.73829243747
0.278778076171875	-0.008929443359375	4975.82679343725
0.27435302734375	-0.0089447021484375	4975.91529443702
0.269927978515625	-0.0089569091796875	4976.0037954368
0.2655029296875	-0.00897216796875	4976.09229643657
0.261077880859375	-0.0089874267578125	4976.18079743635
0.25665283203125	-0.009002685546875	4976.26929843613
0.252227783203125	-0.009014892578125	4976.3577994359
0.247802734375	-0.0090301513671875	4976.44630043568
0.243377685546875	-0.0090423583984375	4976.53480143546
0.23895263671875	-0.0090545654296875	4976.62330243523
0.234527587890625	-0.0090667724609375	4976.71180343501
0.2301025390625	-0.0090789794921875	4976.80030443479
0.225677490234375	-0.0090911865234375	4976.88880543456
0.22125244140625	-0.0091033935546875	4976.97730643434
0.216827392578125	-0.009112548828125	4977.06580743412
0.21240234375	-0.009124755859375	4977.15430843389
0.207977294921875	-0.009136962890625	4977.24280943367
0.20355224609375	-0.0091461181640625	4977.33131043345
0.199127197265625	-0.0091583251953125	4977.41981143322
0.1947021484375	-0.00916748046875	4977.508312433
0.190277099609375	-0.0091796875	4977.59681343278
0.18585205078125	-0.0091888427734375	4977.68531443255
0.181427001953125	-0.009197998046875	4977.77381543233
0.177001953125	-0.009210205078125	4977.86231643211
0.172576904296875	-0.0092193603515625	4977.95081743188
0.16815185546875	-0.009228515625	4978.03931843166
0.163726806640625	-0.00924072265625	4978.12781943144
0.1593017578125	-0.0092498779296875	4978.21632043121
0.154876708984375	-0.0092559814453125	4978.30482143099
0.15045166015625	-0.00926513671875	4978.39332243076
0.146026611328125	-0.0092742919921875	4978.48182343054
0.1416015625	-0.0092864990234375	4978.57032443032
0.137176513671875	-0.009295654296875	4978.6588254301
0.13275146484375	-0.0093048095703125	4978.74732642987
0.128326416015625	-0.00931396484375	4978.83582742965
0.1239013671875	-0.009326171875	4978.92432842942
0.119476318359375	-0.0093353271484375	4979.0128294292
0.11505126953125	-0.009344482421875	4979.10133042898
0.110626220703125	-0.0093536376953125	4979.18983142875
0.106201171875	-0.00936279296875	4979.27833242853
0.101776123046875	-0.0093719482421875	4979.36683342831
0.09735107421875	-0.009381103515625	4979.45533442808
0.092926025390625	-0.0093902587890625	4979.54383542786
0.0885009765625	-0.0093994140625	4979.63233642764
0.084075927734375	-0.0094085693359375	4979.72083742741
0.07965087890625	-0.0094207763671875	4979.80933842719
0.075225830078125	-0.009429931640625	4979.89783942697
0.07080078125	-0.0094390869140625	4979.98634042674
0.066375732421875	-0.0094512939453125	4980.07484142652
0.06195068359375	-0.0094635009765625	4980.1633424263
0.057525634765625	-0.00947265625	4980.25184342607
0.0531005859375	-0.00948486328125	4980.34034442585
0.048675537109375	-0.0094970703125	4980.42884542563
0.04425048828125	-0.00950927734375	4980.5173464254
0.039825439453125	-0.009521484375	4980.60584742518
0.035400390625	-0.00953369140625	4980.69434842496
0.030975341796875	-0.0095458984375	4980.78284942473
0.02655029296875	-0.00955810546875	4980.87135042451
0.022125244140625	-0.0095733642578125	4980.95985142429
0.0177001953125	-0.009588623046875	4981.04835242406
0.013275146484375	-0.009600830078125	4981.13685342384
0.00885009765625	-0.0096160888671875	4981.22535442361
0.004425048828125	-0.00963134765625	4981.31385542339
0	-0.009649658203125	4981.40235642317
0.004425048828125	-0.0090301513671875	4981.49085742294
0.00885009765625	-0.0084503173828125	4981.57935842272
0.013275146484375	-0.00789794921875	4981.6678594225
0.0177001953125	-0.007379150390625	4981.75636042227
0.022125244140625	-0.0068817138671875	4981.84486142205
0.02655029296875	-0.0063995361328125	4981.93336242183
0.030975341796875	-0.00594482421875	4982.0218634216
0.035400390625	-0.0055023193359375	4982.11036442138
0.039825439453125	-0.0050811767578125	4982.19886542116
0.04425048828125	-0.00467559814453125	4982.28736642093
0.048675537109375	-0.004283447265625	4982.37586742071
0.0531005859375	-0.00390533447265625	4982.46436842049
0.057525634765625	-0.0035406494140625	4982.55286942026
0.06195068359375	-0.00318878173828125	4982.64137042004
0.066375732421875	-0.00285919189453125	4982.72987141982
0.07080078125	-0.0025299072265625	4982.81837241959
0.075225830078125	-0.0022113037109375	4982.90687341937
0.07965087890625	-0.00190460205078125	4982.99537441915
0.084075927734375	-0.0016064453125	4983.08387541892
0.0885009765625	-0.00131866455078125	4983.1723764187
0.092926025390625	-0.0010394287109375	4983.26087741848
0.09735107421875	-0.0007696533203125	4983.34937841825
0.101776123046875	-0.00050750732421875	4983.43787941803
0.106201171875	-0.00025421142578125	4983.52638041781
0.110626220703125	-8.6456298828125E-06	4983.61488141758
0.11505126953125	0.000229400634765625	4983.70338241736
0.119476318359375	0.000458465576171875	4983.79188341714
0.1239013671875	0.00068267822265625	4983.88038441691
0.128326416015625	0.00089935302734375	4983.96888541669
0.13275146484375	0.00110931396484375	4984.05738641646
0.137176513671875	0.0013134765625	4984.14588741624
0.1416015625	0.0015106201171875	4984.23438841602
0.146026611328125	0.00170257568359375	4984.32288941579
0.15045166015625	0.001888427734375	4984.41139041557
0.154876708984375	0.00206878662109375	4984.49989141535
0.1593017578125	0.0022430419921875	4984.58839241512
0.163726806640625	0.00241302490234375	4984.6768934149
0.16815185546875	0.0025775146484375	4984.76539441468
0.172576904296875	0.0027374267578125	4984.85389541445
0.177001953125	0.002891845703125	4984.94239641423
0.181427001953125	0.00304229736328125	4985.03089741401
0.18585205078125	0.00318817138671875	4985.11939841378
0.190277099609375	0.003330078125	4985.20789941356
0.1947021484375	0.0034674072265625	4985.29640041334
0.199127197265625	0.00360076904296875	4985.38490141311
0.20355224609375	0.0037298583984375	4985.47340241289
0.207977294921875	0.00385528564453125	4985.56190341267
0.21240234375	0.00397705078125	4985.65040441244
0.216827392578125	0.004095458984375	4985.73890541222
0.22125244140625	0.00421051025390625	4985.827406412
0.225677490234375	0.0043218994140625	4985.91590741177
0.2301025390625	0.00443084716796875	4986.00440841155
0.234527587890625	0.004534912109375	4986.09290941133
0.23895263671875	0.00463775634765625	4986.1814104111
0.243377685546875	0.004737548828125	4986.26991141088
0.247802734375	0.0048345947265625	4986.35841241066
0.252227783203125	0.00492828369140625	4986.44691341043
0.25665283203125	0.00502044677734375	4986.53541441021
0.261077880859375	0.0051104736328125	4986.62391540998
0.2655029296875	0.00519683837890625	4986.71241640976
0.269927978515625	0.0052813720703125	4986.80091740954
0.27435302734375	0.00536346435546875	4986.88941840931
0.278778076171875	0.0054437255859375	4986.97791940909
0.283203125	0.0055218505859375	4987.06642040887
0.287628173828125	0.0055987548828125	4987.15492140864
0.29205322265625	0.0056732177734375	4987.24342240842
0.296478271484375	0.00574615478515625	4987.3319234082
0.3009033203125	0.00581695556640625	4987.42042440797
0.305328369140625	0.00588531494140625	4987.50892540775
0.30975341796875	0.005953369140625	4987.59742640753
0.314178466796875	0.006021728515625	4987.6859274073
0.318603515625	0.0060760498046875	4987.77442840708
0.323028564453125	0.00614013671875	4987.86292940686
0.32745361328125	0.006201171875	4987.95143040663
0.331878662109375	0.0062591552734375	4988.03993140641
0.3363037109375	0.006317138671875	4988.12843240619
0.340728759765625	0.0063751220703125	4988.21693340596
0.34515380859375	0.00643310546875	4988.30543440574
0.349578857421875	0.0064849853515625	4988.39393540552
0.35400390625	0.0065399169921875	4988.48243640529
0.358428955078125	0.006591796875	4988.57093740507
0.36285400390625	0.0066436767578125	4988.65943840485
0.367279052734375	0.006695556640625	4988.74793940462
0.3717041015625	0.0067474365234375	4988.8364404044
0.376129150390625	0.0067962646484375	4988.92494140418
0.38055419921875	0.0068450927734375	4989.01344240395
0.384979248046875	0.0068939208984375	4989.10194340373
0.389404296875	0.006939697265625	4989.19044440351
0.393829345703125	0.0069854736328125	4989.27894540328
0.39825439453125	0.0070281982421875	4989.36744640306
0.402679443359375	0.007073974609375	4989.45594740283
0.4071044921875	0.00711669921875	4989.54444840261
0.411529541015625	0.007159423828125	4989.63294940239
0.41595458984375	0.0072021484375	4989.72145040216
0.420379638671875	0.007244873046875	4989.80995140194
0.4248046875	0.00728759765625	4989.89845240172
0.429229736328125	0.0073272705078125	4989.98695340149
0.43365478515625	0.007366943359375	4990.07545440127
0.438079833984375	0.00740966796875	4990.16395540105
0.4425048828125	0.0074462890625	4990.25245640082
0.446929931640625	0.0074859619140625	4990.3409574006
0.45135498046875	0.007525634765625	4990.42945840038
0.455780029296875	0.007562255859375	4990.51795940015
0.460205078125	0.0076019287109375	4990.60646039993
0.464630126953125	0.0076385498046875	4990.69496139971
0.46905517578125	0.0076751708984375	4990.78346239948
0.473480224609375	0.007708740234375	4990.87196339926
0.4779052734375	0.007745361328125	4990.96046439904
0.482330322265625	0.0077789306640625	4991.04896539881
0.48675537109375	0.0078125	4991.13746639859
0.491180419921875	0.007843017578125	4991.22596739837
0.49560546875	0.0078765869140625	4991.31446839814
0.500030517578125	0.00791015625	4991.40296939792
0.50445556640625	0.007940673828125	4991.4914703977
0.508880615234375	0.0079742431640625	4991.57997139747
0.5133056640625	0.008001708984375	4991.66847239725
0.517730712890625	0.0080322265625	4991.75697339702
0.52215576171875	0.008062744140625	4991.8454743968
0.526580810546875	0.00809326171875	4991.93397539658
0.531005859375	0.0081207275390625	4992.02247639636
0.535430908203125	0.008148193359375	4992.11097739613
0.53985595703125	0.0081756591796875	4992.19947839591
0.544281005859375	0.008203125	4992.28797939568
0.5487060546875	0.0082244873046875	4992.37648039546
0.553131103515625	0.008251953125	4992.46498139524
0.55755615234375	0.0082794189453125	4992.55348239501
0.561981201171875	0.00830078125	4992.64198339479
0.56640625	0.0083251953125	4992.73048439457
0.570831298828125	0.008349609375	4992.81898539434
0.57525634765625	0.0083709716796875	4992.90748639412
0.579681396484375	0.008392333984375	4992.9959873939
0.5841064453125	0.0084136962890625	4993.08448839367
0.588531494140625	0.0084320068359375	4993.17298939345
0.59295654296875	0.0084503173828125	4993.26149039323
0.597381591796875	0.0084686279296875	4993.349991393
0.601806640625	0.008489990234375	4993.43849239278
0.606231689453125	0.0085052490234375	4993.52699339256
0.61065673828125	0.0085235595703125	4993.61549439233
0.615081787109375	0.008538818359375	4993.70399539211
0.6195068359375	0.0085540771484375	4993.79249639189
0.623931884765625	0.0085693359375	4993.88099739166
0.62835693359375	0.008587646484375	4993.96949839144
0.632781982421875	0.0086029052734375	4994.05799939122
0.63720703125	0.0086151123046875	4994.14650039099
0.641632080078125	0.0086273193359375	4994.23500139077
0.64605712890625	0.0086395263671875	4994.32350239055
0.650482177734375	0.0086517333984375	4994.41200339032
0.6549072265625	0.008660888671875	4994.5005043901
0.659332275390625	0.008673095703125	4994.58900538987
0.66375732421875	0.0086822509765625	4994.67750638965
0.668182373046875	0.00869140625	4994.76600738943
0.672607421875	0.0087005615234375	4994.8545083892
0.677032470703125	0.008709716796875	4994.94300938898
0.68145751953125	0.0087188720703125	4995.03151038876
0.685882568359375	0.0087249755859375	4995.12001138853
0.6903076171875	0.008734130859375	4995.20851238831
0.694732666015625	0.008740234375	4995.29701338809
0.69915771484375	0.008746337890625	4995.38551438786
0.703582763671875	0.00875244140625	4995.47401538764
0.7080078125	0.008758544921875	4995.56251638742
0.712432861328125	0.0087646484375	4995.65101738719
0.71685791015625	0.008770751953125	4995.73951838697
0.721282958984375	0.0087738037109375	4995.82801938675
0.7257080078125	0.0087799072265625	4995.91652038652
0.730133056640625	0.0087860107421875	4996.0050213863
0.73455810546875	0.0087890625	4996.09352238608
0.738983154296875	0.008795166015625	4996.18202338585
0.743408203125	0.0087982177734375	4996.27052438563
0.747833251953125	0.0088043212890625	4996.35902538541
0.75225830078125	0.0088104248046875	4996.44752638518
0.756683349609375	0.0088134765625	4996.53602738496
0.7611083984375	0.008819580078125	4996.62452838474
0.765533447265625	0.00882568359375	4996.71302938451
0.76995849609375	0.008831787109375	4996.80153038429
0.774383544921875	0.008837890625	4996.89003138407
0.77880859375	0.008843994140625	4996.97853238384
0.783233642578125	0.0088470458984375	4997.06703338362
0.78765869140625	0.008856201171875	4997.1555343834
0.792083740234375	0.0088623046875	4997.24403538317
0.7965087890625	0.008868408203125	4997.33253638295
0.800933837890625	0.0088775634765625	4997.42103738272
0.80535888671875	0.0088836669921875	4997.5095383825
0.809783935546875	0.008892822265625	4997.59803938228
0.814208984375	0.0089019775390625	4997.68654038205
0.818634033203125	0.0089080810546875	4997.77504138183
0.82305908203125	0.008917236328125	4997.86354238161
0.827484130859375	0.008929443359375	4997.95204338138
0.8319091796875	0.0089385986328125	4998.04054438116
0.836334228515625	0.0089508056640625	4998.12904538094
0.84075927734375	0.0089630126953125	4998.21754638071
0.845184326171875	0.0089752197265625	4998.30604738049
0.849609375	0.008990478515625	4998.39454838027
0.854034423828125	0.009002685546875	4998.48304938004
0.85845947265625	0.0090179443359375	4998.57155037982
0.862884521484375	0.009033203125	4998.6600513796
0.8673095703125	0.009051513671875	4998.74855237937
0.871734619140625	0.00906982421875	4998.83705337915
0.87615966796875	0.009088134765625	4998.92555437893
0.880584716796875	0.0091064453125	4999.0140553787
0.885009765625	0.0091278076171875	4999.10255637848
0.889434814453125	0.009149169921875	4999.19105737826
0.89385986328125	0.009173583984375	4999.27955837803
0.898284912109375	0.009197998046875	4999.36805937781
0.9027099609375	0.009222412109375	4999.45656037759
0.907135009765625	0.0092498779296875	4999.54506137736
0.91156005859375	0.00927734375	4999.63356237714
0.915985107421875	0.0093048095703125	4999.72206337692
0.92041015625	0.00933837890625	4999.81056437669
0.924835205078125	0.009368896484375	4999.89906537647
0.92926025390625	0.0094024658203125	4999.98756637625
0.933685302734375	0.00943603515625	5000.07606737602
0.9381103515625	0.0094757080078125	5000.1645683758
0.942535400390625	0.0095123291015625	5000.25306937557
0.94696044921875	0.009552001953125	5000.34157037535
0.951385498046875	0.0095947265625	5000.43007137513
0.955810546875	0.009637451171875	5000.5185723749
0.960235595703125	0.0096832275390625	5000.60707337468
0.96466064453125	0.0097320556640625	5000.69557437446
0.969085693359375	0.0097808837890625	5000.78407537423
0.9735107421875	0.0098297119140625	5000.87257637401
0.977935791015625	0.009881591796875	5000.96107737379
0.98236083984375	0.0099365234375	5001.04957837356
0.986785888671875	0.009991455078125	5001.13807937334
0.9912109375	0.0100494384765625	5001.22658037312
0.995635986328125	0.0101104736328125	5001.31508137289
1.00006103515625	0.0101715087890625	5001.40358237267
0.995635986328125	0.00958251953125	5001.49208337245
0.9912109375	0.009039306640625	5001.58058437222
0.986785888671875	0.0085235595703125	5001.669085372
0.98236083984375	0.0080291748046875	5001.75758637178
0.977935791015625	0.007562255859375	5001.84608737155
0.9735107421875	0.0071136474609375	5001.93458837133
0.969085693359375	0.0066802978515625	5002.02308937111
0.96466064453125	0.0062591552734375	5002.11159037088
0.960235595703125	0.0058563232421875	5002.20009137066
0.955810546875	0.0054656982421875	5002.28859237044
0.951385498046875	0.0050872802734375	5002.37709337021
0.94696044921875	0.00471923828125	5002.46559436999
0.942535400390625	0.00436248779296875	5002.55409536977
0.9381103515625	0.00401580810546875	5002.64259636954
0.933685302734375	0.0036761474609375	5002.73109736932
0.92926025390625	0.00334869384765625	5002.81959836909
0.924835205078125	0.00303314208984375	5002.90809936887
0.92041015625	0.0027215576171875	5002.99660036865
0.915985107421875	0.002418212890625	5003.08510136842
0.91156005859375	0.002122802734375	5003.1736023682
0.907135009765625	0.001834716796875	5003.26210336798
0.9027099609375	0.00155364990234375	5003.35060436775
0.898284912109375	0.001279296875	5003.43910536753
0.89385986328125	0.00101165771484375	5003.52760636731
0.889434814453125	0.00075042724609375	5003.61610736708
0.885009765625	0.00049468994140625	5003.70460836686
0.880584716796875	0.0002454833984375	5003.79310936664
0.87615966796875	1.97448730468749E-06	5003.88161036641
0.871734619140625	-0.0002357177734375	5003.97011136619
0.8673095703125	-0.00046771240234375	5004.05861236597
0.862884521484375	-0.000694549560546875	5004.14711336574
0.85845947265625	-0.00091461181640625	5004.23561436552
0.854034423828125	-0.00113037109375	5004.3241153653
0.849609375	-0.001341552734375	5004.41261636507
0.845184326171875	-0.0015472412109375	5004.50111736485
0.84075927734375	-0.001748046875	5004.58961836463
0.836334228515625	-0.00194427490234375	5004.6781193644
0.8319091796875	-0.00213592529296875	5004.76662036418
0.827484130859375	-0.00232269287109375	5004.85512136396
0.82305908203125	-0.00250457763671875	5004.94362236373
0.818634033203125	-0.002681884765625	5005.03212336351
0.814208984375	-0.002855224609375	5005.12062436329
0.809783935546875	-0.00302398681640625	5005.20912536306
0.80535888671875	-0.00318878173828125	5005.29762636284
0.800933837890625	-0.0033489990234375	5005.38612736262
0.7965087890625	-0.00350555419921875	5005.47462836239
0.792083740234375	-0.00365753173828125	5005.56312936217
0.78765869140625	-0.00380615234375	5005.65163036194
0.783233642578125	-0.0039501953125	5005.74013136172
0.77880859375	-0.00409027099609375	5005.8286323615
0.774383544921875	-0.00422698974609375	5005.91713336127
0.76995849609375	-0.00436004638671875	5006.00563436105
0.765533447265625	-0.00448944091796875	5006.09413536083
0.7611083984375	-0.00461578369140625	5006.1826363606
0.756683349609375	-0.00473785400390625	5006.27113736038
0.75225830078125	-0.00485748291015625	5006.35963836016
0.747833251953125	-0.00497314453125	5006.44813935993
0.743408203125	-0.00508514404296875	5006.53664035971
0.738983154296875	-0.00519287109375	5006.62514135949
0.73455810546875	-0.00529937744140625	5006.71364235926
0.730133056640625	-0.00540191650390625	5006.80214335904
0.7257080078125	-0.00550201416015625	5006.89064435882
0.721282958984375	-0.00559906005859375	5006.97914535859
0.71685791015625	-0.0056927490234375	5007.06764635837
0.712432861328125	-0.00578369140625	5007.15614735815
0.7080078125	-0.00587188720703125	5007.24464835792
0.703582763671875	-0.0059576416015625	5007.3331493577
0.69915771484375	-0.00603912353515625	5007.42165035748
0.694732666015625	-0.0061004638671875	5007.51015135725
0.6903076171875	-0.0061767578125	5007.59865235703
0.685882568359375	-0.0062530517578125	5007.68715335681
0.68145751953125	-0.0063232421875	5007.77565435658
0.677032470703125	-0.006396484375	5007.86415535636
0.672607421875	-0.006463623046875	5007.95265635613
0.668182373046875	-0.00653076171875	5008.04115735591
0.66375732421875	-0.0065948486328125	5008.12965835569
0.659332275390625	-0.0066558837890625	5008.21815935547
0.6549072265625	-0.0067138671875	5008.30666035524
0.650482177734375	-0.0067718505859375	5008.39516135502
0.64605712890625	-0.006829833984375	5008.48366235479
0.641632080078125	-0.006884765625	5008.57216335457
0.63720703125	-0.0069366455078125	5008.66066435435
0.632781982421875	-0.0069854736328125	5008.74916535412
0.62835693359375	-0.00703125	5008.8376663539
0.623931884765625	-0.0070831298828125	5008.92616735368
0.6195068359375	-0.00712890625	5009.01466835345
0.615081787109375	-0.007171630859375	5009.10316935323
0.61065673828125	-0.00721435546875	5009.19167035301
0.606231689453125	-0.007257080078125	5009.28017135278
0.601806640625	-0.007293701171875	5009.36867235256
0.597381591796875	-0.0073333740234375	5009.45717335234
0.59295654296875	-0.0073699951171875	5009.54567435211
0.588531494140625	-0.0074066162109375	5009.63417535189
0.5841064453125	-0.007440185546875	5009.72267635167
0.579681396484375	-0.0074737548828125	5009.81117735144
0.57525634765625	-0.00750732421875	5009.89967835122
0.570831298828125	-0.007537841796875	5009.988179351
0.56640625	-0.007568359375	5010.07668035077
0.561981201171875	-0.007598876953125	5010.16518135055
0.55755615234375	-0.0076263427734375	5010.25368235033
0.553131103515625	-0.0076568603515625	5010.3421833501
0.5487060546875	-0.007684326171875	5010.43068434988
0.544281005859375	-0.007708740234375	5010.51918534966
0.53985595703125	-0.0077362060546875	5010.60768634943
0.535430908203125	-0.0077606201171875	5010.69618734921
0.531005859375	-0.007781982421875	5010.78468834898
0.526580810546875	-0.007806396484375	5010.87318934876
0.52215576171875	-0.0078277587890625	5010.96169034854
0.517730712890625	-0.0078521728515625	5011.05019134831
0.5133056640625	-0.00787353515625	5011.13869234809
0.508880615234375	-0.00789794921875	5011.22719334787
0.50445556640625	-0.0079193115234375	5011.31569434764
0.500030517578125	-0.007940673828125	5011.40419534742
0.49560546875	-0.0079620361328125	5011.4926963472
0.491180419921875	-0.0079833984375	5011.58119734697
0.48675537109375	-0.0080047607421875	5011.66969834675
0.482330322265625	-0.0080230712890625	5011.75819934653
0.4779052734375	-0.00804443359375	5011.8467003463
0.473480224609375	-0.0080657958984375	5011.93520134608
0.46905517578125	-0.0080841064453125	5012.02370234586
0.464630126953125	-0.00810546875	5012.11220334563
0.460205078125	-0.008123779296875	5012.20070434541
0.455780029296875	-0.0081451416015625	5012.28920534519
0.45135498046875	-0.0081634521484375	5012.37770634496
0.446929931640625	-0.008184814453125	5012.46620734474
0.4425048828125	-0.008203125	5012.55470834452
0.438079833984375	-0.0082244873046875	5012.64320934429
0.43365478515625	-0.008245849609375	5012.73171034407
0.429229736328125	-0.00826416015625	5012.82021134385
0.4248046875	-0.008282470703125	5012.90871234362
0.420379638671875	-0.0083038330078125	5012.9972133434
0.41595458984375	-0.0083251953125	5013.08571434317
0.411529541015625	-0.008343505859375	5013.17421534295
0.4071044921875	-0.0083648681640625	5013.26271634273
0.402679443359375	-0.0083831787109375	5013.35121734251
0.39825439453125	-0.008404541015625	5013.43971834228
0.393829345703125	-0.0084228515625	5013.52821934206
0.389404296875	-0.0084442138671875	5013.61672034183
0.384979248046875	-0.0084625244140625	5013.70522134161
0.38055419921875	-0.00848388671875	5013.79372234139
0.376129150390625	-0.0085052490234375	5013.88222334116
0.3717041015625	-0.0085235595703125	5013.97072434094
0.367279052734375	-0.008544921875	5014.05922534072
0.36285400390625	-0.008563232421875	5014.14772634049
0.358428955078125	-0.0085845947265625	5014.23622734027
0.35400390625	-0.0086029052734375	5014.32472834005
0.349578857421875	-0.0086212158203125	5014.41322933982
0.34515380859375	-0.008642578125	5014.5017303396
0.340728759765625	-0.008660888671875	5014.59023133938
0.3363037109375	-0.0086822509765625	5014.67873233915
0.331878662109375	-0.0087005615234375	5014.76723333893
0.32745361328125	-0.0087188720703125	5014.85573433871
0.323028564453125	-0.0087371826171875	5014.94423533848
0.318603515625	-0.0087554931640625	5015.03273633826
0.314178466796875	-0.0087738037109375	5015.12123733804
0.30975341796875	-0.008795166015625	5015.20973833781
0.305328369140625	-0.0088134765625	5015.29823933759
0.3009033203125	-0.0088287353515625	5015.38674033737
0.296478271484375	-0.0088470458984375	5015.47524133714
0.29205322265625	-0.0088623046875	5015.56374233692
0.287628173828125	-0.0088775634765625	5015.6522433367
0.283203125	-0.0088958740234375	5015.74074433647
0.278778076171875	-0.0089111328125	5015.82924533625
0.27435302734375	-0.0089263916015625	5015.91774633602
0.269927978515625	-0.008941650390625	5016.0062473358
0.2655029296875	-0.0089569091796875	5016.09474833558
0.261077880859375	-0.0089691162109375	5016.18324933535
0.25665283203125	-0.008984375	5016.27175033513
0.252227783203125	-0.00899658203125	5016.36025133491
0.247802734375	-0.0090118408203125	5016.44875233468
0.243377685546875	-0.0090240478515625	5016.53725333446
0.23895263671875	-0.0090362548828125	5016.62575433424
0.234527587890625	-0.0090484619140625	5016.71425533401
0.2301025390625	-0.0090606689453125	5016.80275633379
0.225677490234375	-0.0090728759765625	5016.89125733357
0.22125244140625	-0.0090850830078125	5016.97975833334
0.216827392578125	-0.0090972900390625	5017.06825933312
0.21240234375	-0.0091064453125	5017.1567603329
0.207977294921875	-0.00911865234375	5017.24526133267
0.20355224609375	-0.0091278076171875	5017.33376233245
0.199127197265625	-0.0091400146484375	5017.42226333223
0.1947021484375	-0.009149169921875	5017.510764332
0.190277099609375	-0.009161376953125	5017.59926533178
0.18585205078125	-0.0091705322265625	5017.68776633156
0.181427001953125	-0.0091796875	5017.77626733133
0.177001953125	-0.0091888427734375	5017.86476833111
0.172576904296875	-0.009197998046875	5017.95326933089
0.16815185546875	-0.009210205078125	5018.04177033066
0.163726806640625	-0.0092193603515625	5018.13027133044
0.1593017578125	-0.009228515625	5018.21877233022
0.154876708984375	-0.0092376708984375	5018.30727332999
0.15045166015625	-0.009246826171875	5018.39577432977
0.146026611328125	-0.0092559814453125	5018.48427532955
0.1416015625	-0.00926513671875	5018.57277632932
0.137176513671875	-0.0092742919921875	5018.6612773291
0.13275146484375	-0.009283447265625	5018.74977832887
0.128326416015625	-0.0092926025390625	5018.83827932865
0.1239013671875	-0.0093048095703125	5018.92678032843
0.119476318359375	-0.0093109130859375	5019.0152813282
0.11505126953125	-0.009320068359375	5019.10378232798
0.110626220703125	-0.0093292236328125	5019.19228332776
0.106201171875	-0.00933837890625	5019.28078432753
0.101776123046875	-0.0093475341796875	5019.36928532731
0.09735107421875	-0.0093597412109375	5019.45778632709
0.092926025390625	-0.009368896484375	5019.54628732686
0.0885009765625	-0.0093780517578125	5019.63478832664
0.084075927734375	-0.00938720703125	5019.72328932642
0.07965087890625	-0.0093963623046875	5019.81179032619
0.075225830078125	-0.009405517578125	5019.90029132597
0.07080078125	-0.009417724609375	5019.98879232575
0.066375732421875	-0.0094268798828125	5020.07729332552
0.06195068359375	-0.0094390869140625	5020.1657943253
0.057525634765625	-0.0094482421875	5020.25429532508
0.0531005859375	-0.00946044921875	5020.34279632485
0.048675537109375	-0.00947265625	5020.43129732463
0.04425048828125	-0.00948486328125	5020.51979832441
0.039825439453125	-0.0094970703125	5020.60829932418
0.035400390625	-0.00950927734375	5020.69680032396
0.030975341796875	-0.009521484375	5020.78530132374
0.02655029296875	-0.00953369140625	5020.87380232351
0.022125244140625	-0.0095489501953125	5020.96230332329
0.0177001953125	-0.0095611572265625	5021.05080432307
0.013275146484375	-0.009576416015625	5021.13930532284
0.00885009765625	-0.0095916748046875	5021.22780632262
0.004425048828125	-0.00960693359375	5021.3163073224
0	-0.0096221923828125	5021.40480832217
0.004425048828125	-0.0090057373046875	5021.49330932195
0.00885009765625	-0.0084228515625	5021.58181032172
0.013275146484375	-0.00787353515625	5021.6703113215
0.0177001953125	-0.0073516845703125	5021.75881232128
0.022125244140625	-0.006854248046875	5021.84731332105
0.02655029296875	-0.0063751220703125	5021.93581432083
0.030975341796875	-0.0059173583984375	5022.02431532061
0.035400390625	-0.0054779052734375	5022.11281632038
0.039825439453125	-0.0050537109375	5022.20131732016
0.04425048828125	-0.00464996337890625	5022.28981831994
0.048675537109375	-0.0042578125	5022.37831931971
0.0531005859375	-0.0038800048828125	5022.46682031949
0.057525634765625	-0.00351593017578125	5022.55532131927
0.06195068359375	-0.0031634521484375	5022.64382231904
0.066375732421875	-0.00283416748046875	5022.73232331882
0.07080078125	-0.0025048828125	5022.8208243186
0.075225830078125	-0.00218719482421875	5022.90932531837
0.07965087890625	-0.00188018798828125	5022.99782631815
0.084075927734375	-0.0015826416015625	5023.08632731793
0.0885009765625	-0.00129486083984375	5023.1748283177
0.092926025390625	-0.0010162353515625	5023.26332931748
0.09735107421875	-0.00074615478515625	5023.35183031726
0.101776123046875	-0.00048486328125	5023.44033131703
0.106201171875	-0.0002318115234375	5023.52883231681
0.110626220703125	1.3623046875E-05	5023.61733331659
0.11505126953125	0.000251251220703125	5023.70583431636
0.119476318359375	0.000480316162109375	5023.79433531614
0.1239013671875	0.00070367431640625	5023.88283631592
0.128326416015625	0.00092071533203125	5023.97133731569
0.13275146484375	0.00113037109375	5024.05983831547
0.137176513671875	0.00133392333984375	5024.14833931524
0.1416015625	0.00153106689453125	5024.23684031502
0.146026611328125	0.00172210693359375	5024.3253413148
0.15045166015625	0.001907958984375	5024.41384231457
0.154876708984375	0.00208831787109375	5024.50234331435
0.1593017578125	0.002261962890625	5024.59084431413
0.163726806640625	0.00243133544921875	5024.6793453139
0.16815185546875	0.0025958251953125	5024.76784631368
0.172576904296875	0.002755126953125	5024.85634731346
0.177001953125	0.0029095458984375	5024.94484831323
0.181427001953125	0.0030596923828125	5025.03334931301
0.18585205078125	0.00320556640625	5025.12185031279
0.190277099609375	0.0033465576171875	5025.21035131256
0.1947021484375	0.00348358154296875	5025.29885231234
0.199127197265625	0.00361602783203125	5025.38735331212
0.20355224609375	0.00374603271484375	5025.47585431189
0.207977294921875	0.003870849609375	5025.56435531167
0.21240234375	0.00399200439453125	5025.65285631145
0.216827392578125	0.00411041259765625	5025.74135731122
0.22125244140625	0.004224853515625	5025.829858311
0.225677490234375	0.00433624267578125	5025.91835931078
0.2301025390625	0.004444580078125	5026.00686031055
0.234527587890625	0.00454803466796875	5026.09536131033
0.23895263671875	0.00465087890625	5026.18386231011
0.243377685546875	0.00475067138671875	5026.27236330988
0.247802734375	0.00484710693359375	5026.36086430966
0.252227783203125	0.00494110107421875	5026.44936530944
0.25665283203125	0.005032958984375	5026.53786630921
0.261077880859375	0.0051220703125	5026.62636730899
0.2655029296875	0.005208740234375	5026.71486830877
0.269927978515625	0.00529296875	5026.80336930854
0.27435302734375	0.0053753662109375	5026.89187030832
0.278778076171875	0.00545501708984375	5026.98037130809
0.283203125	0.00553253173828125	5027.06887230787
0.287628173828125	0.0056085205078125	5027.15737330765
0.29205322265625	0.0056829833984375	5027.24587430742
0.296478271484375	0.005755615234375	5027.3343753072
0.3009033203125	0.0058258056640625	5027.42287630698
0.305328369140625	0.005894775390625	5027.51137730675
0.30975341796875	0.0059619140625	5027.59987830653
0.314178466796875	0.0060296630859375	5027.68837930631
0.318603515625	0.006085205078125	5027.77688030608
0.323028564453125	0.0061492919921875	5027.86538130586
0.32745361328125	0.006207275390625	5027.95388230564
0.331878662109375	0.0062652587890625	5028.04238330541
0.3363037109375	0.0063262939453125	5028.13088430519
0.340728759765625	0.0063812255859375	5028.21938530497
0.34515380859375	0.006439208984375	5028.30788630474
0.349578857421875	0.006494140625	5028.39638730452
0.35400390625	0.00654296875	5028.4848883043
0.358428955078125	0.006597900390625	5028.57338930407
0.36285400390625	0.0066497802734375	5028.66189030385
0.367279052734375	0.00670166015625	5028.75039130363
0.3717041015625	0.0067535400390625	5028.8388923034
0.376129150390625	0.0068023681640625	5028.92739330318
0.38055419921875	0.00684814453125	5029.01589430296
0.384979248046875	0.00689697265625	5029.10439530273
0.389404296875	0.0069427490234375	5029.19289630251
0.393829345703125	0.006988525390625	5029.28139730228
0.39825439453125	0.00703125	5029.36989830206
0.402679443359375	0.007073974609375	5029.45839930184
0.4071044921875	0.0071197509765625	5029.54690030162
0.411529541015625	0.0071624755859375	5029.63540130139
0.41595458984375	0.0072052001953125	5029.72390230117
0.420379638671875	0.0072479248046875	5029.81240330094
0.4248046875	0.00728759765625	5029.90090430072
0.429229736328125	0.0073272705078125	5029.9894053005
0.43365478515625	0.0073699951171875	5030.07790630027
0.438079833984375	0.0074066162109375	5030.16640730005
0.4425048828125	0.0074493408203125	5030.25490829983
0.446929931640625	0.0074859619140625	5030.3434092996
0.45135498046875	0.007525634765625	5030.43191029938
0.455780029296875	0.007562255859375	5030.52041129916
0.460205078125	0.007598876953125	5030.60891229893
0.464630126953125	0.007635498046875	5030.69741329871
0.46905517578125	0.007672119140625	5030.78591429849
0.473480224609375	0.0077056884765625	5030.87441529826
0.4779052734375	0.0077423095703125	5030.96291629804
0.482330322265625	0.00777587890625	5031.05141729782
0.48675537109375	0.0078094482421875	5031.13991829759
0.491180419921875	0.0078399658203125	5031.22841929737
0.49560546875	0.00787353515625	5031.31692029715
0.500030517578125	0.007904052734375	5031.40542129692
0.50445556640625	0.0079376220703125	5031.4939222967
0.508880615234375	0.0079681396484375	5031.58242329648
0.5133056640625	0.0079986572265625	5031.67092429625
0.517730712890625	0.0080291748046875	5031.75942529603
0.52215576171875	0.008056640625	5031.84792629581
0.526580810546875	0.008087158203125	5031.93642729558
0.531005859375	0.0081146240234375	5032.02492829536
0.535430908203125	0.00814208984375	5032.11342929513
0.53985595703125	0.0081695556640625	5032.20193029491
0.544281005859375	0.008197021484375	5032.29043129469
0.5487060546875	0.008221435546875	5032.37893229446
0.553131103515625	0.008245849609375	5032.46743329424
0.55755615234375	0.008270263671875	5032.55593429402
0.561981201171875	0.008294677734375	5032.64443529379
0.56640625	0.008319091796875	5032.73293629357
0.570831298828125	0.0083404541015625	5032.82143729335
0.57525634765625	0.00836181640625	5032.90993829312
0.579681396484375	0.0083831787109375	5032.9984392929
0.5841064453125	0.008404541015625	5033.08694029268
0.588531494140625	0.0084228515625	5033.17544129245
0.59295654296875	0.0084442138671875	5033.26394229223
0.597381591796875	0.0084625244140625	5033.35244329201
0.601806640625	0.0084808349609375	5033.44094429178
0.606231689453125	0.00849609375	5033.52944529156
0.61065673828125	0.008514404296875	5033.61794629134
0.615081787109375	0.0085296630859375	5033.70644729111
0.6195068359375	0.008544921875	5033.79494829089
0.623931884765625	0.0085601806640625	5033.88344929067
0.62835693359375	0.0085784912109375	5033.97195029044
0.632781982421875	0.0085906982421875	5034.06045129022
0.63720703125	0.0086029052734375	5034.14895229
0.641632080078125	0.0086151123046875	5034.23745328977
0.64605712890625	0.0086273193359375	5034.32595428955
0.650482177734375	0.0086395263671875	5034.41445528932
0.6549072265625	0.008648681640625	5034.5029562891
0.659332275390625	0.008660888671875	5034.59145728888
0.66375732421875	0.0086700439453125	5034.67995828866
0.668182373046875	0.00867919921875	5034.76845928843
0.672607421875	0.0086883544921875	5034.85696028821
0.677032470703125	0.008697509765625	5034.94546128798
0.68145751953125	0.00870361328125	5035.03396228776
0.685882568359375	0.0087127685546875	5035.12246328754
0.6903076171875	0.0087188720703125	5035.21096428731
0.694732666015625	0.0087249755859375	5035.29946528709
0.69915771484375	0.0087310791015625	5035.38796628687
0.703582763671875	0.0087371826171875	5035.47646728664
0.7080078125	0.0087432861328125	5035.56496828642
0.712432861328125	0.0087493896484375	5035.6534692862
0.71685791015625	0.0087554931640625	5035.74197028597
0.721282958984375	0.008758544921875	5035.83047128575
0.7257080078125	0.0087646484375	5035.91897228553
0.730133056640625	0.008770751953125	5036.0074732853
0.73455810546875	0.0087738037109375	5036.09597428508
0.738983154296875	0.0087799072265625	5036.18447528486
0.743408203125	0.008782958984375	5036.27297628463
0.747833251953125	0.0087860107421875	5036.36147728441
0.75225830078125	0.0087921142578125	5036.44997828419
0.756683349609375	0.0087982177734375	5036.53847928396
0.7611083984375	0.00880126953125	5036.62698028374
0.765533447265625	0.008807373046875	5036.71548128352
0.76995849609375	0.0088134765625	5036.80398228329
0.774383544921875	0.008819580078125	5036.89248328307
0.77880859375	0.00882568359375	5036.98098428285
0.783233642578125	0.0088287353515625	5037.06948528262
0.78765869140625	0.008837890625	5037.1579862824
0.792083740234375	0.008843994140625	5037.24648728217
0.7965087890625	0.00885009765625	5037.33498828195
0.800933837890625	0.0088592529296875	5037.42348928173
0.80535888671875	0.0088653564453125	5037.5119902815
0.809783935546875	0.00887451171875	5037.60049128128
0.814208984375	0.008880615234375	5037.68899228106
0.818634033203125	0.0088897705078125	5037.77749328083
0.82305908203125	0.0089019775390625	5037.86599428061
0.827484130859375	0.0089111328125	5037.95449528039
0.8319091796875	0.00892333984375	5038.04299628016
0.836334228515625	0.0089324951171875	5038.13149727994
0.84075927734375	0.0089447021484375	5038.21999827972
0.845184326171875	0.0089569091796875	5038.30849927949
0.849609375	0.0089691162109375	5038.39700027927
0.854034423828125	0.008984375	5038.48550127905
0.85845947265625	0.0089996337890625	5038.57400227882
0.862884521484375	0.009014892578125	5038.6625032786
0.8673095703125	0.0090301513671875	5038.75100427838
0.871734619140625	0.0090484619140625	5038.83950527815
0.87615966796875	0.0090667724609375	5038.92800627793
0.880584716796875	0.009088134765625	5039.01650727771
0.885009765625	0.0091094970703125	5039.10500827748
0.889434814453125	0.009130859375	5039.19350927726
0.89385986328125	0.0091522216796875	5039.28201027704
0.898284912109375	0.0091766357421875	5039.37051127681
0.9027099609375	0.0092010498046875	5039.45901227659
0.907135009765625	0.009228515625	5039.54751327637
0.91156005859375	0.0092559814453125	5039.63601427614
0.915985107421875	0.0092864990234375	5039.72451527592
0.92041015625	0.0093170166015625	5039.8130162757
0.924835205078125	0.0093475341796875	5039.90151727547
0.92926025390625	0.009381103515625	5039.99001827525
0.933685302734375	0.0094146728515625	5040.07851927502
0.9381103515625	0.009454345703125	5040.1670202748
0.942535400390625	0.0094940185546875	5040.25552127458
0.94696044921875	0.00953369140625	5040.34402227435
0.951385498046875	0.0095733642578125	5040.43252327413
0.955810546875	0.009619140625	5040.52102427391
0.960235595703125	0.0096649169921875	5040.60952527368
0.96466064453125	0.009710693359375	5040.69802627346
0.969085693359375	0.009759521484375	5040.78652727324
0.9735107421875	0.0098114013671875	5040.87502827301
0.977935791015625	0.0098602294921875	5040.96352927279
0.98236083984375	0.0099151611328125	5041.05203027257
0.986785888671875	0.00997314453125	5041.14053127234
0.9912109375	0.0100311279296875	5041.22903227212
