Time (s)	WE(1).Potential (V)
1060.34548832289	0.7781982421875
1061.34548832036	0.770263671875
1062.34548831784	0.7635498046875
1063.34548831531	0.7574462890625
1064.34548831279	0.75164794921875
1065.34548831026	0.74615478515625
1066.34548830774	0.74066162109375
1067.34548830521	0.7354736328125
1068.34548830269	0.73028564453125
1069.34548830016	0.72540283203125
1070.34548829764	0.72052001953125
1071.34548829511	0.71563720703125
1072.34548829259	0.71075439453125
1073.34548829006	0.70587158203125
1074.34548828754	0.7012939453125
1075.34548828501	0.69671630859375
1076.34548828249	0.69183349609375
1077.34548827996	0.687255859375
1078.34548827744	0.68267822265625
1079.34548827491	0.6781005859375
1080.34548827239	0.67352294921875
1081.34548826987	0.6689453125
1082.34548826734	0.66436767578125
1083.34548826482	0.6597900390625
1084.34548826229	0.65521240234375
1085.34548825977	0.65093994140625
1086.34548825724	0.6463623046875
1087.34548825472	0.64178466796875
1088.34548825219	0.63751220703125
1089.34548824967	0.6329345703125
1090.34548824714	0.62835693359375
1091.34548824462	0.6243896484375
1092.34548824209	0.61981201171875
1093.34548823957	0.61553955078125
1094.34548823704	0.6109619140625
1095.34548823452	0.606689453125
1096.34548823199	0.60211181640625
1097.34548822947	0.59783935546875
1098.34548822694	0.59356689453125
1099.34548822442	0.5889892578125
1100.34548822189	0.584716796875
1101.34548821937	0.5804443359375
1102.34548821685	0.57586669921875
1103.34548821432	0.57159423828125
1104.3454882118	0.56732177734375
1105.34548820927	0.56304931640625
1106.34548820675	0.55877685546875
1107.34548820422	0.55450439453125
1108.3454882017	0.5499267578125
1109.34548819917	0.54595947265625
1110.34548819665	0.54168701171875
1111.34548819412	0.53741455078125
1112.3454881916	0.53314208984375
1113.34548818907	0.52886962890625
1114.34548818655	0.52459716796875
1115.34548818402	0.52032470703125
1116.3454881815	0.51605224609375
1117.34548817897	0.51177978515625
1118.34548817645	0.50750732421875
1119.34548817392	0.5035400390625
1120.3454881714	0.499298095703125
1121.34548816887	0.495086669921875
1122.34548816635	0.490936279296875
1123.34548816383	0.48675537109375
1124.3454881613	0.482635498046875
1125.34548815878	0.478485107421875
1126.34548815625	0.474334716796875
1127.34548815373	0.47021484375
1128.3454881512	0.466094970703125
1129.34548814868	0.46197509765625
1130.34548814615	0.4578857421875
1131.34548814363	0.45379638671875
1132.3454881411	0.449737548828125
1133.34548813858	0.445648193359375
1134.34548813605	0.44158935546875
1135.34548813353	0.437530517578125
1136.345488131	0.4334716796875
1137.34548812848	0.429443359375
1138.34548812595	0.4254150390625
1139.34548812343	0.42144775390625
1140.3454881209	0.41741943359375
1141.34548811838	0.413421630859375
1142.34548811586	0.409454345703125
1143.34548811333	0.405487060546875
1144.34548811081	0.401519775390625
1145.34548810828	0.397552490234375
1146.34548810576	0.39361572265625
1147.34548810323	0.38970947265625
1148.34548810071	0.38580322265625
1149.34548809818	0.38189697265625
1150.34548809566	0.37799072265625
1151.34548809313	0.374114990234375
1152.34548809061	0.3702392578125
1153.34548808808	0.366363525390625
1154.34548808556	0.362518310546875
1155.34548808303	0.35870361328125
1156.34548808051	0.354888916015625
1157.34548807798	0.35107421875
1158.34548807546	0.347259521484375
1159.34548807293	0.343505859375
1160.34548807041	0.3397216796875
1161.34548806788	0.335968017578125
1162.34548806536	0.33221435546875
1163.34548806284	0.328460693359375
1164.34548806031	0.32476806640625
1165.34548805779	0.321044921875
1166.34548805526	0.317352294921875
1167.34548805274	0.31365966796875
1168.34548805021	0.30999755859375
1169.34548804769	0.30633544921875
1170.34548804516	0.30267333984375
1171.34548804264	0.29901123046875
1172.34548804011	0.295440673828125
1173.34548803759	0.29180908203125
1174.34548803506	0.2882080078125
1175.34548803254	0.284576416015625
1176.34548803001	0.281036376953125
1177.34548802749	0.277435302734375
1178.34548802496	0.27386474609375
1179.34548802244	0.270294189453125
1180.34548801991	0.266754150390625
1181.34548801739	0.263214111328125
1182.34548801486	0.259674072265625
1183.34548801234	0.25616455078125
1184.34548800982	0.25262451171875
1185.34548800729	0.2491455078125
1186.34548800477	0.245635986328125
1187.34548800224	0.242156982421875
1188.34548799972	0.2386474609375
1189.34548799719	0.235137939453125
1190.34548799467	0.231689453125
1191.34548799214	0.22821044921875
1192.34548798962	0.2247314453125
1193.34548798709	0.221282958984375
1194.34548798457	0.21783447265625
1195.34548798204	0.21435546875
1196.34548797952	0.210906982421875
1197.34548797699	0.20745849609375
1198.34548797447	0.2039794921875
1199.34548797194	0.2005615234375
1200.34548796942	0.197113037109375
1201.34548796689	0.19366455078125
1202.34548796437	0.190185546875
1203.34548796184	0.186767578125
1204.34548795932	0.183319091796875
1205.3454879568	0.17987060546875
1206.34548795427	0.176422119140625
1207.34548795175	0.1729736328125
1208.34548794922	0.169586181640625
1209.3454879467	0.1661376953125
1210.34548794417	0.1627197265625
1211.34548794165	0.1593017578125
1212.34548793912	0.155914306640625
1213.3454879366	0.152496337890625
1214.34548793407	0.149078369140625
1215.34548793155	0.14569091796875
1216.34548792902	0.142303466796875
1217.3454879265	0.138946533203125
1218.34548792397	0.13555908203125
1219.34548792145	0.1322021484375
1220.34548791892	0.128814697265625
1221.3454879164	0.12548828125
1222.34548791387	0.122161865234375
1223.34548791135	0.118804931640625
1224.34548790882	0.115509033203125
1225.3454879063	0.1121826171875
1226.34548790378	0.108917236328125
1227.34548790125	0.105621337890625
1228.34548789873	0.102325439453125
1229.3454878962	0.09906005859375
1230.34548789368	0.09576416015625
1231.34548789115	0.092529296875
1232.34548788863	0.089263916015625
1233.3454878861	0.086029052734375
1234.34548788358	0.082794189453125
1235.34548788105	0.079559326171875
1236.34548787853	0.07635498046875
1237.345487876	0.073150634765625
1238.34548787348	0.0699462890625
1239.34548787095	0.066741943359375
1240.34548786843	0.06353759765625
1241.3454878659	0.06036376953125
1242.34548786338	0.057159423828125
1243.34548786085	0.05401611328125
1244.34548785833	0.05084228515625
1245.34548785581	0.047686767578125
1246.34548785328	0.04454345703125
1247.34548785076	0.041412353515625
1248.34548784823	0.03829345703125
1249.34548784571	0.0351837158203125
1250.34548784318	0.0320831298828125
1251.34548784066	0.0290008544921875
1252.34548783813	0.025927734375
1253.34548783561	0.022869873046875
1254.34548783308	0.01982421875
1255.34548783056	0.0167877197265625
1256.34548782803	0.013775634765625
1257.34548782551	0.010772705078125
1258.34548782298	0.00779113769531251
1259.34548782046	0.0048187255859375
1260.34548781793	0.00187072753906251
1261.34548781541	-0.00106201171875001
1262.34548781288	-0.0039794921875
1263.34548781036	-0.006878662109375
1264.34548780783	-0.0097625732421875
