Potential applied (V)	WE(1).Current (A)	Time (s)
0.004425048828125	-0.0628448486328125	4550.27844451165
0.00885009765625	-0.05572509765625	4550.49969651109
0.013275146484375	-0.049932861328125	4550.72094851053
0.0177001953125	-0.0449462890625	4550.94220050998
0.022125244140625	-0.0405975341796875	4551.16345250942
0.02655029296875	-0.0367706298828125	4551.38470450886
0.030975341796875	-0.033392333984375	4551.6059565083
0.035400390625	-0.0303955078125	4551.82720850774
0.039825439453125	-0.0277191162109375	4552.04846050718
0.04425048828125	-0.0253143310546875	4552.26971250662
0.048675537109375	-0.0231475830078125	4552.49096450607
0.0531005859375	-0.0211761474609375	4552.71221650551
0.057525634765625	-0.0193878173828125	4552.93346850495
0.06195068359375	-0.017755126953125	4553.15472050439
0.066375732421875	-0.0162628173828125	4553.37597250383
0.07080078125	-0.014898681640625	4553.59722450327
0.075225830078125	-0.0136444091796875	4553.81847650271
0.07965087890625	-0.0124969482421875	4554.03972850216
0.084075927734375	-0.0114349365234375	4554.2609805016
0.0885009765625	-0.0104644775390625	4554.48223250104
0.092926025390625	-0.0095611572265625	4554.70348450048
0.09735107421875	-0.0087310791015625	4554.92473649992
0.101776123046875	-0.007958984375	4555.14598849936
0.106201171875	-0.0072509765625	4555.3672404988
0.110626220703125	-0.006591796875	4555.58849249824
0.11505126953125	-0.0059814453125	4555.80974449769
0.119476318359375	-0.0054168701171875	4556.03099649713
0.1239013671875	-0.00489105224609375	4556.25224849657
0.128326416015625	-0.00440216064453125	4556.47350049601
0.13275146484375	-0.0039471435546875	4556.69475249545
0.137176513671875	-0.00352386474609375	4556.91600449489
0.1416015625	-0.0031292724609375	4557.13725649433
0.146026611328125	-0.00277252197265625	4557.35850849378
0.15045166015625	-0.00242889404296875	4557.57976049322
0.154876708984375	-0.002108154296875	4557.80101249266
0.1593017578125	-0.0018084716796875	4558.0222644921
0.163726806640625	-0.0015277099609375	4558.24351649154
0.16815185546875	-0.00126495361328125	4558.46476849098
0.172576904296875	-0.00101898193359375	4558.68602049042
0.177001953125	-0.00078887939453125	4558.90727248987
0.181427001953125	-0.0005731201171875	4559.12852448931
0.18585205078125	-0.000370880126953125	4559.34977648875
0.190277099609375	-0.000180572509765625	4559.57102848819
0.1947021484375	-2.14233398437499E-06	4559.79228048763
0.199127197265625	0.00016558837890625	4560.01353248707
0.20355224609375	0.000323211669921875	4560.23478448651
0.207977294921875	0.00047161865234375	4560.45603648596
0.21240234375	0.00061102294921875	4560.6772884854
0.216827392578125	0.00074310302734375	4560.89854048484
0.22125244140625	0.00086669921875	4561.11979248428
0.225677490234375	0.00098358154296875	4561.34104448372
0.2301025390625	0.00109405517578125	4561.56229648316
0.234527587890625	0.001197509765625	4561.7835484826
0.23895263671875	0.00129608154296875	4562.00480048205
0.243377685546875	0.0013897705078125	4562.22605248149
0.247802734375	0.0014776611328125	4562.44730448093
0.252227783203125	0.00156097412109375	4562.66855648037
0.25665283203125	0.00164031982421875	4562.88980847981
0.261077880859375	0.00171478271484375	4563.11106047925
0.2655029296875	0.0017852783203125	4563.33231247869
0.269927978515625	0.00185302734375	4563.55356447813
0.27435302734375	0.001917724609375	4563.77481647758
0.278778076171875	0.0019793701171875	4563.99606847702
0.283203125	0.00203765869140625	4564.21732047646
0.287628173828125	0.0020941162109375	4564.4385724759
0.29205322265625	0.002147216796875	4564.65982447534
0.296478271484375	0.00219879150390625	4564.88107647478
0.3009033203125	0.00224884033203125	4565.10232847422
0.305328369140625	0.00229644775390625	4565.32358047367
0.30975341796875	0.00234130859375	4565.54483247311
0.314178466796875	0.00238677978515625	4565.76608447255
0.318603515625	0.002427978515625	4565.98733647199
0.323028564453125	0.0024676513671875	4566.20858847143
0.32745361328125	0.0025054931640625	4566.42984047087
0.331878662109375	0.00254241943359375	4566.65109247031
0.3363037109375	0.00257781982421875	4566.87234446976
0.340728759765625	0.0026123046875	4567.0935964692
0.34515380859375	0.00264556884765625	4567.31484846864
0.349578857421875	0.00267730712890625	4567.53610046808
0.35400390625	0.002706298828125	4567.75735246752
0.358428955078125	0.00273681640625	4567.97860446696
0.36285400390625	0.00276702880859375	4568.1998564664
0.367279052734375	0.00279541015625	4568.42110846585
0.3717041015625	0.00282318115234375	4568.64236046529
0.376129150390625	0.002850341796875	4568.86361246473
0.38055419921875	0.00287689208984375	4569.08486446417
0.384979248046875	0.00290252685546875	4569.30611646361
0.389404296875	0.00292724609375	4569.52736846305
0.393829345703125	0.00295074462890625	4569.74862046249
0.39825439453125	0.0029736328125	4569.96987246194
0.402679443359375	0.0029962158203125	4570.19112446138
0.4071044921875	0.0030181884765625	4570.41237646082
0.411529541015625	0.00303955078125	4570.63362846026
0.41595458984375	0.00305999755859375	4570.8548804597
0.420379638671875	0.00308013916015625	4571.07613245914
0.4248046875	0.00309967041015625	4571.29738445858
0.429229736328125	0.00311859130859375	4571.51863645802
0.43365478515625	0.003135986328125	4571.73988845747
0.438079833984375	0.00315399169921875	4571.96114045691
0.4425048828125	0.0031707763671875	4572.18239245635
0.446929931640625	0.003187255859375	4572.40364445579
0.45135498046875	0.003203125	4572.62489645523
0.455780029296875	0.00321807861328125	4572.84614845467
0.460205078125	0.00323272705078125	4573.06740045411
0.464630126953125	0.00324676513671875	4573.28865245356
0.46905517578125	0.0032598876953125	4573.509904453
0.473480224609375	0.0032733154296875	4573.73115645244
0.4779052734375	0.0032855224609375	4573.95240845188
0.482330322265625	0.0032977294921875	4574.17366045132
0.48675537109375	0.003309326171875	4574.39491245076
0.491180419921875	0.00332061767578125	4574.6161644502
0.49560546875	0.00333160400390625	4574.83741644965
0.500030517578125	0.00334259033203125	4575.05866844909
0.50445556640625	0.00335205078125	4575.27992044853
0.508880615234375	0.003360595703125	4575.50117244797
0.5133056640625	0.00336944580078125	4575.72242444741
0.517730712890625	0.00337799072265625	4575.94367644685
0.52215576171875	0.00338592529296875	4576.16492844629
0.526580810546875	0.00339385986328125	4576.38618044574
0.531005859375	0.00340118408203125	4576.60743244518
0.535430908203125	0.00340850830078125	4576.82868444462
0.53985595703125	0.00341522216796875	4577.04993644406
0.544281005859375	0.00342193603515625	4577.2711884435
0.5487060546875	0.003426513671875	4577.49244044294
0.553131103515625	0.0034320068359375	4577.71369244238
0.55755615234375	0.0034375	4577.93494444183
0.561981201171875	0.00344268798828125	4578.15619644127
0.56640625	0.003447265625	4578.37744844071
0.570831298828125	0.0034515380859375	4578.59870044015
0.57525634765625	0.00345611572265625	4578.81995243959
0.579681396484375	0.0034600830078125	4579.04120443903
0.5841064453125	0.0034637451171875	4579.26245643847
0.588531494140625	0.0034661865234375	4579.48370843792
0.59295654296875	0.00347015380859375	4579.70496043736
0.597381591796875	0.00347320556640625	4579.9262124368
0.601806640625	0.00347625732421875	4580.14746443624
0.606231689453125	0.0034796142578125	4580.36871643568
0.61065673828125	0.003482666015625	4580.58996843512
0.615081787109375	0.00348541259765625	4580.81122043456
0.6195068359375	0.0034881591796875	4581.032472434
0.623931884765625	0.00349151611328125	4581.25372443345
0.62835693359375	0.003497314453125	4581.47497643289
0.632781982421875	0.0035003662109375	4581.69622843233
0.63720703125	0.00350250244140625	4581.91748043177
0.641632080078125	0.0035052490234375	4582.13873243121
0.64605712890625	0.00350830078125	4582.35998443065
0.650482177734375	0.00351104736328125	4582.58123643009
0.6549072265625	0.00351409912109375	4582.80248842954
0.659332275390625	0.003516845703125	4583.02374042898
0.66375732421875	0.0035205078125	4583.24499242842
0.668182373046875	0.00352325439453125	4583.46624442786
0.672607421875	0.00352691650390625	4583.6874964273
0.677032470703125	0.0035308837890625	4583.90874842674
0.68145751953125	0.00353424072265625	4584.13000042618
0.685882568359375	0.003538818359375	4584.35125242563
0.6903076171875	0.0035430908203125	4584.57250442507
0.694732666015625	0.00354766845703125	4584.79375642451
0.69915771484375	0.00355224609375	4585.01500842395
0.703582763671875	0.0035565185546875	4585.23626042339
0.7080078125	0.00356231689453125	4585.45751242283
0.712432861328125	0.00356781005859375	4585.67876442227
0.71685791015625	0.00357391357421875	4585.90001642172
0.721282958984375	0.003580322265625	4586.12126842116
0.7257080078125	0.00358673095703125	4586.3425204206
0.730133056640625	0.00359405517578125	4586.56377242004
0.73455810546875	0.00360137939453125	4586.78502441948
0.738983154296875	0.00360870361328125	4587.00627641892
0.743408203125	0.00361602783203125	4587.22752841836
0.747833251953125	0.003624267578125	4587.44878041781
0.75225830078125	0.00363372802734375	4587.67003241725
0.756683349609375	0.003643798828125	4587.89128441669
0.7611083984375	0.0036541748046875	4588.11253641613
0.765533447265625	0.00366455078125	4588.33378841557
0.76995849609375	0.0036761474609375	4588.55504041501
0.774383544921875	0.003687744140625	4588.77629241445
0.77880859375	0.00370086669921875	4588.99754441389
0.783233642578125	0.00371368408203125	4589.21879641334
0.78765869140625	0.00372772216796875	4589.44004841278
0.792083740234375	0.00374237060546875	4589.66130041222
0.7965087890625	0.00375762939453125	4589.88255241166
0.800933837890625	0.00377349853515625	4590.1038044111
0.80535888671875	0.0037908935546875	4590.32505641054
0.809783935546875	0.00380889892578125	4590.54630840998
0.814208984375	0.00382720947265625	4590.76756040943
0.818634033203125	0.00384735107421875	4590.98881240887
0.82305908203125	0.0038677978515625	4591.21006440831
0.827484130859375	0.00389007568359375	4591.43131640775
0.8319091796875	0.00391265869140625	4591.65256840719
0.836334228515625	0.00393646240234375	4591.87382040663
0.84075927734375	0.00396148681640625	4592.09507240607
0.845184326171875	0.003988037109375	4592.31632440552
0.849609375	0.0040155029296875	4592.53757640496
0.854034423828125	0.0040447998046875	4592.7588284044
0.85845947265625	0.0040753173828125	4592.98008040384
0.862884521484375	0.0041064453125	4593.20133240328
0.8673095703125	0.004139404296875	4593.42258440272
0.871734619140625	0.00417388916015625	4593.64383640216
0.87615966796875	0.00420989990234375	4593.86508840161
0.880584716796875	0.004248046875	4594.08634040105
0.885009765625	0.004287109375	4594.30759240049
0.889434814453125	0.0043280029296875	4594.52884439993
0.89385986328125	0.0043701171875	4594.75009639937
0.898284912109375	0.0044134521484375	4594.97134839881
0.9027099609375	0.0044580078125	4595.19260039825
0.907135009765625	0.00450469970703125	4595.4138523977
0.91156005859375	0.004552001953125	4595.63510439714
0.915985107421875	0.00460113525390625	4595.85635639658
0.92041015625	0.00465301513671875	4596.07760839602
0.924835205078125	0.00470550537109375	4596.29886039546
0.92926025390625	0.0047601318359375	4596.5201123949
0.933685302734375	0.004815673828125	4596.74136439434
0.9381103515625	0.0048748779296875	4596.96261639378
0.942535400390625	0.004932861328125	4597.18386839323
0.94696044921875	0.0049932861328125	4597.40512039267
0.951385498046875	0.0050543212890625	4597.62637239211
0.955810546875	0.00511566162109375	4597.84762439155
0.960235595703125	0.005179443359375	4598.06887639099
0.96466064453125	0.00524444580078125	4598.29012839043
0.969085693359375	0.00531005859375	4598.51138038987
0.9735107421875	0.005377197265625	4598.73263238932
0.977935791015625	0.00544403076171875	4598.95388438876
0.98236083984375	0.0055126953125	4599.1751363882
0.986785888671875	0.00558258056640625	4599.39638838764
0.9912109375	0.0056524658203125	4599.61764038708
0.995635986328125	0.0057232666015625	4599.83889238652
1.00006103515625	0.00579498291015625	4600.06014438597
0.995635986328125	0.00526519775390625	4600.28139638541
0.9912109375	0.0047882080078125	4600.50264838485
0.986785888671875	0.0043487548828125	4600.72390038429
0.98236083984375	0.00394012451171875	4600.94515238373
0.977935791015625	0.00355682373046875	4601.16640438317
0.9735107421875	0.00319732666015625	4601.38765638261
0.969085693359375	0.0028558349609375	4601.60890838205
0.96466064453125	0.00253204345703125	4601.8301603815
0.960235595703125	0.00222412109375	4602.05141238094
0.955810546875	0.00193145751953125	4602.27266438038
0.951385498046875	0.00165191650390625	4602.49391637982
0.94696044921875	0.001385498046875	4602.71516837926
0.942535400390625	0.00113037109375	4602.9364203787
0.9381103515625	0.00088714599609375	4603.15767237814
0.933685302734375	0.00065185546875	4603.37892437759
0.92926025390625	0.000428741455078125	4603.60017637703
0.924835205078125	0.00021539306640625	4603.82142837647
0.92041015625	1.01043701171875E-05	4604.04268037591
0.915985107421875	-0.000186126708984375	4604.26393237535
0.91156005859375	-0.00037445068359375	4604.48518437479
0.907135009765625	-0.000554901123046875	4604.70643637423
0.9027099609375	-0.00072808837890625	4604.92768837367
0.898284912109375	-0.00089385986328125	4605.14894037312
0.89385986328125	-0.0010528564453125	4605.37019237256
0.889434814453125	-0.0012054443359375	4605.591444372
0.885009765625	-0.0013519287109375	4605.81269637144
0.880584716796875	-0.00149200439453125	4606.03394837088
0.87615966796875	-0.00162689208984375	4606.25520037032
0.871734619140625	-0.0017559814453125	4606.47645236976
0.8673095703125	-0.0018792724609375	4606.69770436921
0.862884521484375	-0.0019976806640625	4606.91895636865
0.85845947265625	-0.0021099853515625	4607.14020836809
0.854034423828125	-0.00221832275390625	4607.36146036753
0.849609375	-0.00232208251953125	4607.58271236697
0.845184326171875	-0.00242034912109375	4607.80396436641
0.84075927734375	-0.00251495361328125	4608.02521636586
0.836334228515625	-0.00260528564453125	4608.2464683653
0.8319091796875	-0.002691650390625	4608.46772036474
0.827484130859375	-0.0027734375	4608.68897236418
0.82305908203125	-0.00285125732421875	4608.91022436362
0.818634033203125	-0.0029254150390625	4609.13147636306
0.814208984375	-0.00299560546875	4609.3527283625
0.809783935546875	-0.003062744140625	4609.57398036194
0.80535888671875	-0.00312591552734375	4609.79523236139
0.800933837890625	-0.00318634033203125	4610.01648436083
0.7965087890625	-0.0032427978515625	4610.23773636027
0.792083740234375	-0.00329620361328125	4610.45898835971
0.78765869140625	-0.00334686279296875	4610.68024035915
0.783233642578125	-0.0033941650390625	4610.90149235859
0.77880859375	-0.00343841552734375	4611.12274435803
0.774383544921875	-0.003480224609375	4611.34399635748
0.76995849609375	-0.003519287109375	4611.56524835692
0.765533447265625	-0.003555908203125	4611.78650035636
0.7611083984375	-0.003590087890625	4612.0077523558
0.756683349609375	-0.00362152099609375	4612.22900435524
0.75225830078125	-0.0036505126953125	4612.45025635468
0.747833251953125	-0.00367767333984375	4612.67150835412
0.743408203125	-0.0037030029296875	4612.89276035356
0.738983154296875	-0.0037237548828125	4613.11401235301
0.73455810546875	-0.0037445068359375	4613.33526435245
0.730133056640625	-0.00376373291015625	4613.55651635189
0.7257080078125	-0.00378082275390625	4613.77776835133
0.721282958984375	-0.00379638671875	4613.99902035077
0.71685791015625	-0.0038104248046875	4614.22027235021
0.712432861328125	-0.0038214111328125	4614.44152434966
0.7080078125	-0.0038311767578125	4614.6627763491
0.703582763671875	-0.00384063720703125	4614.88402834854
0.69915771484375	-0.0038470458984375	4615.10528034798
0.694732666015625	-0.003853759765625	4615.32653234742
0.6903076171875	-0.003858642578125	4615.54778434686
0.685882568359375	-0.00386260986328125	4615.7690363463
0.68145751953125	-0.0038653564453125	4615.99028834575
0.677032470703125	-0.0038671875	4616.21154034519
0.672607421875	-0.0038690185546875	4616.43279234463
0.668182373046875	-0.00386993408203125	4616.65404434407
0.66375732421875	-0.00386932373046875	4616.87529634351
0.659332275390625	-0.00386871337890625	4617.09654834295
0.6549072265625	-0.00386688232421875	4617.31780034239
0.650482177734375	-0.0038653564453125	4617.53905234183
0.64605712890625	-0.00386260986328125	4617.76030434128
0.641632080078125	-0.00385955810546875	4617.98155634072
0.63720703125	-0.00385711669921875	4618.20280834016
0.632781982421875	-0.003853759765625	4618.4240603396
0.62835693359375	-0.00385040283203125	4618.64531233904
0.623931884765625	-0.00385009765625	4618.86656433848
0.6195068359375	-0.00384613037109375	4619.08781633792
0.615081787109375	-0.00384185791015625	4619.30906833737
0.61065673828125	-0.00383819580078125	4619.53032033681
0.606231689453125	-0.003834228515625	4619.75157233625
0.601806640625	-0.00383056640625	4619.97282433569
0.597381591796875	-0.00382720947265625	4620.19407633513
0.59295654296875	-0.0038238525390625	4620.41532833457
0.588531494140625	-0.00382049560546875	4620.63658033401
0.5841064453125	-0.00381622314453125	4620.85783233346
0.579681396484375	-0.0038134765625	4621.0790843329
0.57525634765625	-0.00381134033203125	4621.30033633234
0.570831298828125	-0.00380889892578125	4621.52158833178
0.56640625	-0.003807373046875	4621.74284033122
0.561981201171875	-0.0038055419921875	4621.96409233066
0.55755615234375	-0.0038043212890625	4622.1853443301
0.553131103515625	-0.00380279541015625	4622.40659632955
0.5487060546875	-0.00380218505859375	4622.62784832899
0.544281005859375	-0.00380096435546875	4622.84910032843
0.53985595703125	-0.00380096435546875	4623.07035232787
0.535430908203125	-0.00380126953125	4623.29160432731
0.531005859375	-0.00380218505859375	4623.51285632675
0.526580810546875	-0.00380279541015625	4623.73410832619
0.52215576171875	-0.0038043212890625	4623.95536032564
0.517730712890625	-0.00380615234375	4624.17661232508
0.5133056640625	-0.00380767822265625	4624.39786432452
0.508880615234375	-0.0038104248046875	4624.61911632396
0.50445556640625	-0.00381317138671875	4624.8403683234
0.500030517578125	-0.00381591796875	4625.06162032284
0.49560546875	-0.0038189697265625	4625.28287232228
0.491180419921875	-0.00382293701171875	4625.50412432172
0.48675537109375	-0.00382720947265625	4625.72537632117
0.482330322265625	-0.003831787109375	4625.94662832061
0.4779052734375	-0.0038360595703125	4626.16788032005
0.473480224609375	-0.00384033203125	4626.38913231949
0.46905517578125	-0.00384613037109375	4626.61038431893
0.464630126953125	-0.0038507080078125	4626.83163631837
0.460205078125	-0.003856201171875	4627.05288831781
0.455780029296875	-0.0038623046875	4627.27414031726
0.45135498046875	-0.00386871337890625	4627.4953923167
0.446929931640625	-0.00387481689453125	4627.71664431614
0.4425048828125	-0.0038812255859375	4627.93789631558
0.438079833984375	-0.00388763427734375	4628.15914831502
0.43365478515625	-0.00389434814453125	4628.38040031446
0.429229736328125	-0.00390045166015625	4628.6016523139
0.4248046875	-0.0039068603515625	4628.82290431335
0.420379638671875	-0.00391326904296875	4629.04415631279
0.41595458984375	-0.003919677734375	4629.26540831223
0.411529541015625	-0.00392578125	4629.48666031167
0.4071044921875	-0.00393280029296875	4629.70791231111
0.402679443359375	-0.00393890380859375	4629.92916431055
0.39825439453125	-0.0039447021484375	4630.15041630999
0.393829345703125	-0.003951416015625	4630.37166830944
0.389404296875	-0.003956298828125	4630.59292030888
0.384979248046875	-0.003961181640625	4630.81417230832
0.38055419921875	-0.00396728515625	4631.03542430776
0.376129150390625	-0.00397247314453125	4631.2566763072
0.3717041015625	-0.00397674560546875	4631.47792830664
0.367279052734375	-0.00398162841796875	4631.69918030608
0.36285400390625	-0.00398590087890625	4631.92043230553
0.358428955078125	-0.00399017333984375	4632.14168430497
0.35400390625	-0.003994140625	4632.36293630441
0.349578857421875	-0.00399658203125	4632.58418830385
0.34515380859375	-0.0040008544921875	4632.80544030329
0.340728759765625	-0.00400421142578125	4633.02669230273
0.3363037109375	-0.00400787353515625	4633.24794430217
0.331878662109375	-0.00401092529296875	4633.46919630161
0.32745361328125	-0.00401458740234375	4633.69044830106
0.323028564453125	-0.00401763916015625	4633.9117003005
0.318603515625	-0.00402008056640625	4634.13295229994
0.314178466796875	-0.00402313232421875	4634.35420429938
0.30975341796875	-0.004027099609375	4634.57545629882
0.305328369140625	-0.004029541015625	4634.79670829826
0.3009033203125	-0.00403106689453125	4635.0179602977
0.296478271484375	-0.00403289794921875	4635.23921229715
0.29205322265625	-0.004034423828125	4635.46046429659
0.287628173828125	-0.004036865234375	4635.68171629603
0.283203125	-0.004039306640625	4635.90296829547
0.278778076171875	-0.00404083251953125	4636.12422029491
0.27435302734375	-0.00404296875	4636.34547229435
0.269927978515625	-0.0040447998046875	4636.56672429379
0.2655029296875	-0.004046630859375	4636.78797629324
0.261077880859375	-0.00404876708984375	4637.00922829268
0.25665283203125	-0.00405181884765625	4637.23048029212
0.252227783203125	-0.00405364990234375	4637.45173229156
0.247802734375	-0.00405609130859375	4637.672984291
0.243377685546875	-0.0040582275390625	4637.89423629044
0.23895263671875	-0.00406097412109375	4638.11548828988
0.234527587890625	-0.00406341552734375	4638.33674028933
0.2301025390625	-0.00406524658203125	4638.55799228877
0.225677490234375	-0.00406768798828125	4638.77924428821
0.22125244140625	-0.0040704345703125	4639.00049628765
0.216827392578125	-0.004073486328125	4639.22174828709
0.21240234375	-0.0040765380859375	4639.44300028653
0.207977294921875	-0.00407958984375	4639.66425228597
0.20355224609375	-0.0040826416015625	4639.88550428542
0.199127197265625	-0.004085693359375	4640.10675628486
0.1947021484375	-0.00408905029296875	4640.3280082843
0.190277099609375	-0.0040924072265625	4640.54926028374
0.18585205078125	-0.0040960693359375	4640.77051228318
0.181427001953125	-0.0040997314453125	4640.99176428262
0.177001953125	-0.0041033935546875	4641.21301628206
0.172576904296875	-0.0041070556640625	4641.4342682815
0.16815185546875	-0.0041107177734375	4641.65552028095
0.163726806640625	-0.0041156005859375	4641.87677228039
0.1593017578125	-0.00412017822265625	4642.09802427983
0.154876708984375	-0.00412353515625	4642.31927627927
0.15045166015625	-0.00412811279296875	4642.54052827871
0.146026611328125	-0.0041326904296875	4642.76178027815
0.1416015625	-0.00413818359375	4642.98303227759
0.137176513671875	-0.00414337158203125	4643.20428427704
0.13275146484375	-0.00414825439453125	4643.42553627648
0.128326416015625	-0.00415435791015625	4643.64678827592
0.1239013671875	-0.00416015625	4643.86804027536
0.119476318359375	-0.004166259765625	4644.0892922748
0.11505126953125	-0.00417144775390625	4644.31054427424
0.110626220703125	-0.0041778564453125	4644.53179627368
0.106201171875	-0.0041851806640625	4644.75304827313
0.101776123046875	-0.00419281005859375	4644.97430027257
0.09735107421875	-0.00420074462890625	4645.19555227201
0.092926025390625	-0.00420867919921875	4645.41680427145
0.0885009765625	-0.00421783447265625	4645.63805627089
0.084075927734375	-0.00422637939453125	4645.85930827033
0.07965087890625	-0.00423553466796875	4646.08056026977
0.075225830078125	-0.00424468994140625	4646.30181226922
0.07080078125	-0.00425537109375	4646.52306426866
0.066375732421875	-0.00426605224609375	4646.7443162681
0.06195068359375	-0.00427764892578125	4646.96556826754
0.057525634765625	-0.00428924560546875	4647.18682026698
0.0531005859375	-0.00430145263671875	4647.40807226642
0.048675537109375	-0.00431365966796875	4647.62932426586
0.04425048828125	-0.004327392578125	4647.85057626531
0.039825439453125	-0.0043402099609375	4648.07182826475
0.035400390625	-0.004354248046875	4648.29308026419
0.030975341796875	-0.004368896484375	4648.51433226363
0.02655029296875	-0.0043829345703125	4648.73558426307
0.022125244140625	-0.004398193359375	4648.95683626251
0.0177001953125	-0.00441314697265625	4649.17808826195
0.013275146484375	-0.00442840576171875	4649.3993402614
0.00885009765625	-0.00444427490234375	4649.62059226084
0.004425048828125	-0.00446044921875	4649.84184426028
0	-0.0044775390625	4650.06309625972
0.004425048828125	-0.0039141845703125	4650.28434825916
0.00885009765625	-0.003414306640625	4650.5056002586
0.013275146484375	-0.00296356201171875	4650.72685225804
0.0177001953125	-0.002552490234375	4650.94810425748
0.022125244140625	-0.0021759033203125	4651.16935625693
0.02655029296875	-0.0018292236328125	4651.39060825637
0.030975341796875	-0.0015087890625	4651.61186025581
0.035400390625	-0.0012127685546875	4651.83311225525
0.039825439453125	-0.0009375	4652.05436425469
0.04425048828125	-0.00068145751953125	4652.27561625413
0.048675537109375	-0.000443267822265625	4652.49686825357
0.0531005859375	-0.000221282958984375	4652.71812025302
0.057525634765625	-1.41021728515625E-05	4652.93937225246
0.06195068359375	0.00017919921875	4653.1606242519
0.066375732421875	0.000359893798828125	4653.38187625134
0.07080078125	0.0005286865234375	4653.60312825078
0.075225830078125	0.000687164306640625	4653.82438025022
0.07965087890625	0.0008349609375	4654.04563224966
0.084075927734375	0.00097381591796875	4654.26688424911
0.0885009765625	0.0011041259765625	4654.48813624855
0.092926025390625	0.0012261962890625	4654.70938824799
0.09735107421875	0.0013409423828125	4654.93064024743
0.101776123046875	0.00144805908203125	4655.15189224687
0.106201171875	0.001549072265625	4655.37314424631
0.110626220703125	0.00164337158203125	4655.59439624575
0.11505126953125	0.00173187255859375	4655.8156482452
0.119476318359375	0.00181396484375	4656.03690024464
0.1239013671875	0.00189208984375	4656.25815224408
0.128326416015625	0.00196533203125	4656.47940424352
0.13275146484375	0.0020343017578125	4656.70065624296
0.137176513671875	0.00209991455078125	4656.9219082424
0.1416015625	0.002161865234375	4657.14316024184
0.146026611328125	0.00222076416015625	4657.36441224129
0.15045166015625	0.00227630615234375	4657.58566424073
0.154876708984375	0.00232879638671875	4657.80691624017
0.1593017578125	0.0023773193359375	4658.02816823961
0.163726806640625	0.00242462158203125	4658.24942023905
0.16815185546875	0.00246917724609375	4658.47067223849
0.172576904296875	0.002510986328125	4658.69192423793
0.177001953125	0.00255096435546875	4658.91317623737
0.181427001953125	0.002589111328125	4659.13442823682
0.18585205078125	0.0026251220703125	4659.35568023626
0.190277099609375	0.0026593017578125	4659.5769322357
0.1947021484375	0.00269195556640625	4659.79818423514
0.199127197265625	0.00272308349609375	4660.01943623458
0.20355224609375	0.00275299072265625	4660.24068823402
0.207977294921875	0.002781982421875	4660.46194023346
0.21240234375	0.00280975341796875	4660.68319223291
0.216827392578125	0.0028363037109375	4660.90444423235
0.22125244140625	0.00286224365234375	4661.12569623179
0.225677490234375	0.00288665771484375	4661.34694823123
0.2301025390625	0.0029107666015625	4661.56820023067
0.234527587890625	0.0029327392578125	4661.78945223011
0.23895263671875	0.00295562744140625	4662.01070422955
0.243377685546875	0.002977294921875	4662.231956229
0.247802734375	0.00299835205078125	4662.45320822844
0.252227783203125	0.0030194091796875	4662.67446022788
0.25665283203125	0.00303985595703125	4662.89571222732
0.261077880859375	0.00305877685546875	4663.11696422676
0.2655029296875	0.00307830810546875	4663.3382162262
0.269927978515625	0.003096923828125	4663.55946822564
0.27435302734375	0.00311553955078125	4663.78072022509
0.278778076171875	0.0031341552734375	4664.00197222453
0.283203125	0.00315216064453125	4664.22322422397
0.287628173828125	0.0031695556640625	4664.44447622341
0.29205322265625	0.00318695068359375	4664.66572822285
0.296478271484375	0.0032037353515625	4664.88698022229
0.3009033203125	0.00322021484375	4665.10823222173
0.305328369140625	0.00323699951171875	4665.32948422118
0.30975341796875	0.003253173828125	4665.55073622062
0.314178466796875	0.003271484375	4665.77198822006
0.318603515625	0.00328765869140625	4665.9932402195
0.323028564453125	0.0033038330078125	4666.21449221894
0.32745361328125	0.003319091796875	4666.43574421838
0.331878662109375	0.00333465576171875	4666.65699621782
0.3363037109375	0.0033502197265625	4666.87824821726
0.340728759765625	0.003365478515625	4667.09950021671
0.34515380859375	0.0033807373046875	4667.32075221615
0.349578857421875	0.00339599609375	4667.54200421559
0.35400390625	0.00340972900390625	4667.76325621503
0.358428955078125	0.00342529296875	4667.98450821447
0.36285400390625	0.0034405517578125	4668.20576021391
0.367279052734375	0.003455810546875	4668.42701221335
0.3717041015625	0.0034710693359375	4668.6482642128
0.376129150390625	0.00348602294921875	4668.86951621224
0.38055419921875	0.00350128173828125	4669.09076821168
0.384979248046875	0.0035162353515625	4669.31202021112
0.389404296875	0.0035308837890625	4669.53327221056
0.393829345703125	0.0035443115234375	4669.75452421
0.39825439453125	0.00355926513671875	4669.97577620945
0.402679443359375	0.00357330322265625	4670.19702820889
0.4071044921875	0.00358734130859375	4670.41828020833
0.411529541015625	0.00360107421875	4670.63953220777
0.41595458984375	0.0036138916015625	4670.86078420721
0.420379638671875	0.0036273193359375	4671.08203620665
0.4248046875	0.0036395263671875	4671.30328820609
0.429229736328125	0.00365203857421875	4671.52454020553
0.43365478515625	0.0036639404296875	4671.74579220498
0.438079833984375	0.00367523193359375	4671.96704420442
0.4425048828125	0.0036865234375	4672.18829620386
0.446929931640625	0.0036968994140625	4672.4095482033
0.45135498046875	0.00370697021484375	4672.63080020274
0.455780029296875	0.00371673583984375	4672.85205220218
0.460205078125	0.0037261962890625	4673.07330420162
0.464630126953125	0.00373504638671875	4673.29455620107
0.46905517578125	0.00374298095703125	4673.51580820051
0.473480224609375	0.003751220703125	4673.73706019995
0.4779052734375	0.00375885009765625	4673.95831219939
0.482330322265625	0.003765869140625	4674.17956419883
0.48675537109375	0.00377288818359375	4674.40081619827
0.491180419921875	0.00377960205078125	4674.62206819771
0.49560546875	0.00378631591796875	4674.84332019715
0.500030517578125	0.003792724609375	4675.0645721966
0.50445556640625	0.00379913330078125	4675.28582419604
0.508880615234375	0.0038037109375	4675.50707619548
0.5133056640625	0.00380859375	4675.72832819492
0.517730712890625	0.00381317138671875	4675.94958019436
0.52215576171875	0.0038177490234375	4676.1708321938
0.526580810546875	0.00382110595703125	4676.39208419324
0.531005859375	0.00382476806640625	4676.61333619269
0.535430908203125	0.0038287353515625	4676.83458819213
0.53985595703125	0.00383209228515625	4677.05584019157
0.544281005859375	0.003834228515625	4677.27709219101
0.5487060546875	0.0038360595703125	4677.49834419045
0.553131103515625	0.003837890625	4677.71959618989
0.55755615234375	0.00384002685546875	4677.94084818934
0.561981201171875	0.00384063720703125	4678.16210018878
0.56640625	0.0038421630859375	4678.38335218822
0.570831298828125	0.00384307861328125	4678.60460418766
0.57525634765625	0.00384307861328125	4678.8258561871
0.579681396484375	0.00384368896484375	4679.04710818654
0.5841064453125	0.0038433837890625	4679.26836018598
0.588531494140625	0.00384185791015625	4679.48961218542
0.59295654296875	0.00384124755859375	4679.71086418487
0.597381591796875	0.0038409423828125	4679.93211618431
0.601806640625	0.0038409423828125	4680.15336818375
0.606231689453125	0.00384002685546875	4680.37462018319
0.61065673828125	0.00383941650390625	4680.59587218263
0.615081787109375	0.0038385009765625	4680.81712418207
0.6195068359375	0.0038372802734375	4681.03837618151
0.623931884765625	0.00383636474609375	4681.25962818096
0.62835693359375	0.00383880615234375	4681.4808801804
0.632781982421875	0.00383697509765625	4681.70213217984
0.63720703125	0.0038360595703125	4681.92338417928
0.641632080078125	0.00383575439453125	4682.14463617872
0.64605712890625	0.00383514404296875	4682.36588817816
0.650482177734375	0.00383392333984375	4682.5871401776
0.6549072265625	0.00383331298828125	4682.80839217704
0.659332275390625	0.00383270263671875	4683.02964417649
0.66375732421875	0.00383270263671875	4683.25089617593
0.668182373046875	0.0038330078125	4683.47214817537
0.672607421875	0.00383331298828125	4683.69340017481
0.677032470703125	0.0038336181640625	4683.91465217425
0.68145751953125	0.00383453369140625	4684.13590417369
0.685882568359375	0.0038360595703125	4684.35715617314
0.6903076171875	0.003837890625	4684.57840817258
0.694732666015625	0.0038397216796875	4684.79966017202
0.69915771484375	0.00384124755859375	4685.02091217146
0.703582763671875	0.00384307861328125	4685.2421641709
0.7080078125	0.00384674072265625	4685.46341617034
0.712432861328125	0.00384979248046875	4685.68466816978
0.71685791015625	0.0038531494140625	4685.90592016923
0.721282958984375	0.003857421875	4686.12717216867
0.7257080078125	0.0038623046875	4686.34842416811
0.730133056640625	0.0038671875	4686.56967616755
0.73455810546875	0.0038726806640625	4686.79092816699
0.738983154296875	0.0038787841796875	4687.01218016643
0.743408203125	0.00388336181640625	4687.23343216587
0.747833251953125	0.00389068603515625	4687.45468416531
0.75225830078125	0.003897705078125	4687.67593616476
0.756683349609375	0.0039056396484375	4687.8971881642
0.7611083984375	0.00391448974609375	4688.11844016364
0.765533447265625	0.00392425537109375	4688.33969216308
0.76995849609375	0.00393310546875	4688.56094416252
0.774383544921875	0.00394317626953125	4688.78219616196
0.77880859375	0.00395416259765625	4689.0034481614
0.783233642578125	0.003966064453125	4689.22470016085
0.78765869140625	0.00397796630859375	4689.44595216029
0.792083740234375	0.00399169921875	4689.66720415973
0.7965087890625	0.004005126953125	4689.88845615917
0.800933837890625	0.004019775390625	4690.10970815861
0.80535888671875	0.00403533935546875	4690.33096015805
0.809783935546875	0.00405181884765625	4690.55221215749
0.814208984375	0.00406890869140625	4690.77346415694
0.818634033203125	0.00408721923828125	4690.99471615638
0.82305908203125	0.004105224609375	4691.21596815582
0.827484130859375	0.00412628173828125	4691.43722015526
0.8319091796875	0.00414703369140625	4691.6584721547
0.836334228515625	0.004169921875	4691.87972415414
0.84075927734375	0.004193115234375	4692.10097615358
0.845184326171875	0.00421722412109375	4692.32222815303
0.849609375	0.00424285888671875	4692.54348015247
0.854034423828125	0.00426971435546875	4692.76473215191
0.85845947265625	0.00429779052734375	4692.98598415135
0.862884521484375	0.00432708740234375	4693.20723615079
0.8673095703125	0.00435821533203125	4693.42848815023
0.871734619140625	0.004390869140625	4693.64974014967
0.87615966796875	0.00442413330078125	4693.87099214912
0.880584716796875	0.004459228515625	4694.09224414856
0.885009765625	0.004495849609375	4694.313496148
0.889434814453125	0.00453369140625	4694.53474814744
0.89385986328125	0.00457305908203125	4694.75600014688
0.898284912109375	0.0046142578125	4694.97725214632
0.9027099609375	0.00465667724609375	4695.19850414576
0.907135009765625	0.0047003173828125	4695.4197561452
0.91156005859375	0.00474609375	4695.64100814465
0.915985107421875	0.00479339599609375	4695.86226014409
0.92041015625	0.00484130859375	4696.08351214353
0.924835205078125	0.004891357421875	4696.30476414297
0.92926025390625	0.004942626953125	4696.52601614241
0.933685302734375	0.00499603271484375	4696.74726814185
0.9381103515625	0.0050518798828125	4696.96852014129
0.942535400390625	0.00510711669921875	4697.18977214074
0.94696044921875	0.00516357421875	4697.41102414018
0.951385498046875	0.00522125244140625	4697.63227613962
0.955810546875	0.00528106689453125	4697.85352813906
0.960235595703125	0.00534149169921875	4698.0747801385
0.96466064453125	0.00540313720703125	4698.29603213794
0.969085693359375	0.00546600341796875	4698.51728413738
0.9735107421875	0.005528564453125	4698.73853613683
0.977935791015625	0.0055926513671875	4698.95978813627
0.98236083984375	0.00565826416015625	4699.18104013571
0.986785888671875	0.00572540283203125	4699.40229213515
0.9912109375	0.0057916259765625	4699.62354413459
0.995635986328125	0.0058599853515625	4699.84479613403
1.00006103515625	0.00592864990234375	4700.06604813347
0.995635986328125	0.00539459228515625	4700.28730013292
0.9912109375	0.00491485595703125	4700.50855213236
0.986785888671875	0.0044732666015625	4700.7298041318
0.98236083984375	0.0040618896484375	4700.95105613124
0.977935791015625	0.00367584228515625	4701.17230813068
0.9735107421875	0.00331390380859375	4701.39356013012
0.969085693359375	0.00296966552734375	4701.61481212956
0.96466064453125	0.00264373779296875	4701.83606412901
0.960235595703125	0.00233367919921875	4702.05731612845
0.955810546875	0.0020379638671875	4702.27856812789
0.951385498046875	0.001756591796875	4702.49982012733
0.94696044921875	0.0014874267578125	4702.72107212677
0.942535400390625	0.00123077392578125	4702.94232412621
0.9381103515625	0.00098541259765625	4703.16357612565
0.933685302734375	0.00074859619140625	4703.38482812509
0.92926025390625	0.00052337646484375	4703.60608012454
0.924835205078125	0.00030792236328125	4703.82733212398
0.92041015625	0.000101409912109375	4704.04858412342
0.915985107421875	-9.619140625E-05	4704.26983612286
0.91156005859375	-0.0002860107421875	4704.4910881223
0.907135009765625	-0.000467987060546875	4704.71234012174
0.9027099609375	-0.000642578125	4704.93359212118
0.898284912109375	-0.00080963134765625	4705.15484412063
0.89385986328125	-0.000970458984375	4705.37609612007
0.889434814453125	-0.001124267578125	4705.59734811951
0.885009765625	-0.00127166748046875	4705.81860011895
0.880584716796875	-0.00141326904296875	4706.03985211839
0.87615966796875	-0.001549072265625	4706.26110411783
0.871734619140625	-0.0016790771484375	4706.48235611727
0.8673095703125	-0.00180328369140625	4706.70360811672
0.862884521484375	-0.00192230224609375	4706.92486011616
0.85845947265625	-0.00203521728515625	4707.1461121156
0.854034423828125	-0.00214447021484375	4707.36736411504
0.849609375	-0.0022491455078125	4707.58861611448
0.845184326171875	-0.00234832763671875	4707.80986811392
0.84075927734375	-0.0024432373046875	4708.03112011336
0.836334228515625	-0.0025341796875	4708.25237211281
0.8319091796875	-0.002620849609375	4708.47362411225
0.827484130859375	-0.0027032470703125	4708.69487611169
0.82305908203125	-0.0027813720703125	4708.91612811113
0.818634033203125	-0.00285614013671875	4709.13738011057
0.814208984375	-0.0029266357421875	4709.35863211001
0.809783935546875	-0.002994384765625	4709.57988410945
0.80535888671875	-0.003057861328125	4709.8011361089
0.800933837890625	-0.00311920166015625	4710.02238810834
0.7965087890625	-0.0031756591796875	4710.24364010778
0.792083740234375	-0.00322998046875	4710.46489210722
0.78765869140625	-0.0032806396484375	4710.68614410666
0.783233642578125	-0.0033282470703125	4710.9073961061
0.77880859375	-0.00337310791015625	4711.12864810554
0.774383544921875	-0.00341522216796875	4711.34990010498
0.76995849609375	-0.00345458984375	4711.57115210443
0.765533447265625	-0.00349151611328125	4711.79240410387
0.7611083984375	-0.0035260009765625	4712.01365610331
0.756683349609375	-0.00355865478515625	4712.23490810275
0.75225830078125	-0.00358856201171875	4712.45616010219
0.747833251953125	-0.00361572265625	4712.67741210163
0.743408203125	-0.00364105224609375	4712.89866410107
0.738983154296875	-0.0036627197265625	4713.11991610052
0.73455810546875	-0.0036846923828125	4713.34116809996
0.730133056640625	-0.0037042236328125	4713.5624200994
0.7257080078125	-0.00372161865234375	4713.78367209884
0.721282958984375	-0.00373809814453125	4714.00492409828
0.71685791015625	-0.00375274658203125	4714.22617609772
0.712432861328125	-0.0037652587890625	4714.44742809716
0.7080078125	-0.00377655029296875	4714.66868009661
0.703582763671875	-0.00378631591796875	4714.88993209605
0.69915771484375	-0.00379425048828125	4715.11118409549
0.694732666015625	-0.00380126953125	4715.33243609493
0.6903076171875	-0.00380706787109375	4715.55368809437
0.685882568359375	-0.00381195068359375	4715.77494009381
0.68145751953125	-0.00381622314453125	4715.99619209325
0.677032470703125	-0.00381927490234375	4716.2174440927
0.672607421875	-0.0038214111328125	4716.43869609214
0.668182373046875	-0.00382232666015625	4716.65994809158
0.66375732421875	-0.0038232421875	4716.88120009102
0.659332275390625	-0.00382354736328125	4717.10245209046
0.6549072265625	-0.0038232421875	4717.3237040899
0.650482177734375	-0.003822021484375	4717.54495608934
0.64605712890625	-0.00382110595703125	4717.76620808879
0.641632080078125	-0.0038189697265625	4717.98746008823
0.63720703125	-0.00381683349609375	4718.20871208767
0.632781982421875	-0.00381500244140625	4718.42996408711
0.62835693359375	-0.00381256103515625	4718.65121608655
0.623931884765625	-0.00381256103515625	4718.87246808599
0.6195068359375	-0.003809814453125	4719.09372008543
0.615081787109375	-0.00380645751953125	4719.31497208488
0.61065673828125	-0.0038037109375	4719.53622408432
0.606231689453125	-0.00380035400390625	4719.75747608376
0.601806640625	-0.003797607421875	4719.9787280832
0.597381591796875	-0.00379547119140625	4720.19998008264
0.59295654296875	-0.003792724609375	4720.42123208208
0.588531494140625	-0.00378997802734375	4720.64248408152
0.5841064453125	-0.00378692626953125	4720.86373608096
0.579681396484375	-0.00378448486328125	4721.08498808041
0.57525634765625	-0.003782958984375	4721.30624007985
0.570831298828125	-0.00378173828125	4721.52749207929
0.56640625	-0.00378021240234375	4721.74874407873
0.561981201171875	-0.0037786865234375	4721.96999607817
0.55755615234375	-0.00377777099609375	4722.19124807761
0.553131103515625	-0.00377777099609375	4722.41250007705
0.5487060546875	-0.00377777099609375	4722.6337520765
0.544281005859375	-0.00377716064453125	4722.85500407594
0.53985595703125	-0.003778076171875	4723.07625607538
0.535430908203125	-0.0037786865234375	4723.29750807482
0.531005859375	-0.0037799072265625	4723.51876007426
0.526580810546875	-0.00378143310546875	4723.7400120737
0.52215576171875	-0.00378387451171875	4723.96126407314
0.517730712890625	-0.003785400390625	4724.18251607259
0.5133056640625	-0.003787841796875	4724.40376807203
0.508880615234375	-0.00379119873046875	4724.62502007147
0.50445556640625	-0.0037939453125	4724.84627207091
0.500030517578125	-0.00379730224609375	4725.06752407035
0.49560546875	-0.00380096435546875	4725.28877606979
0.491180419921875	-0.00380523681640625	4725.51002806923
0.48675537109375	-0.00380950927734375	4725.73128006868
0.482330322265625	-0.00381439208984375	4725.95253206812
0.4779052734375	-0.0038201904296875	4726.17378406756
0.473480224609375	-0.0038250732421875	4726.395036067
0.46905517578125	-0.00383056640625	4726.61628806644
0.464630126953125	-0.00383575439453125	4726.83754006588
0.460205078125	-0.00384185791015625	4727.05879206532
0.455780029296875	-0.00384796142578125	4727.28004406477
0.45135498046875	-0.00385467529296875	4727.50129606421
0.446929931640625	-0.00386077880859375	4727.72254806365
0.4425048828125	-0.00386749267578125	4727.94380006309
0.438079833984375	-0.00387451171875	4728.16505206253
0.43365478515625	-0.003880615234375	4728.38630406197
0.429229736328125	-0.0038873291015625	4728.60755606141
0.4248046875	-0.00389434814453125	4728.82880806085
0.420379638671875	-0.00390167236328125	4729.0500600603
0.41595458984375	-0.00390777587890625	4729.27131205974
0.411529541015625	-0.0039141845703125	4729.49256405918
0.4071044921875	-0.00392059326171875	4729.71381605862
0.402679443359375	-0.003927001953125	4729.93506805806
0.39825439453125	-0.00393310546875	4730.1563200575
0.393829345703125	-0.003939208984375	4730.37757205694
0.389404296875	-0.0039447021484375	4730.59882405639
0.384979248046875	-0.00395050048828125	4730.82007605583
0.38055419921875	-0.003956298828125	4731.04132805527
0.376129150390625	-0.00396148681640625	4731.26258005471
0.3717041015625	-0.003966064453125	4731.48383205415
0.367279052734375	-0.003970947265625	4731.70508405359
0.36285400390625	-0.003975830078125	4731.92633605303
0.358428955078125	-0.0039801025390625	4732.14758805248
0.35400390625	-0.00398468017578125	4732.36884005192
0.349578857421875	-0.00398681640625	4732.59009205136
0.34515380859375	-0.00399078369140625	4732.8113440508
0.340728759765625	-0.003994140625	4733.03259605024
0.3363037109375	-0.003997802734375	4733.25384804968
0.331878662109375	-0.00400054931640625	4733.47510004912
0.32745361328125	-0.00400360107421875	4733.69635204857
0.323028564453125	-0.00400634765625	4733.91760404801
0.318603515625	-0.00400848388671875	4734.13885604745
0.314178466796875	-0.00401123046875	4734.36010804689
0.30975341796875	-0.00401580810546875	4734.58136004633
0.305328369140625	-0.004017333984375	4734.80261204577
0.3009033203125	-0.00401947021484375	4735.02386404521
0.296478271484375	-0.00402099609375	4735.24511604466
0.29205322265625	-0.0040228271484375	4735.4663680441
0.287628173828125	-0.00402496337890625	4735.68762004354
0.283203125	-0.004027099609375	4735.90887204298
0.278778076171875	-0.0040283203125	4736.13012404242
0.27435302734375	-0.0040301513671875	4736.35137604186
0.269927978515625	-0.0040325927734375	4736.5726280413
0.2655029296875	-0.00403411865234375	4736.79388004074
0.261077880859375	-0.00403594970703125	4737.01513204019
0.25665283203125	-0.00403778076171875	4737.23638403963
0.252227783203125	-0.00403961181640625	4737.45763603907
0.247802734375	-0.004041748046875	4737.67888803851
0.243377685546875	-0.0040435791015625	4737.90014003795
0.23895263671875	-0.0040460205078125	4738.12139203739
0.234527587890625	-0.0040484619140625	4738.34264403683
0.2301025390625	-0.00405029296875	4738.56389603628
0.225677490234375	-0.004052734375	4738.78514803572
0.22125244140625	-0.00405517578125	4739.00640003516
0.216827392578125	-0.0040576171875	4739.2276520346
0.21240234375	-0.00406005859375	4739.44890403404
0.207977294921875	-0.0040625	4739.67015603348
0.20355224609375	-0.00406524658203125	4739.89140803293
0.199127197265625	-0.0040679931640625	4740.11266003237
0.1947021484375	-0.00407073974609375	4740.33391203181
0.190277099609375	-0.004073486328125	4740.55516403125
0.18585205078125	-0.0040765380859375	4740.77641603069
0.181427001953125	-0.00407958984375	4740.99766803013
0.177001953125	-0.00408294677734375	4741.21892002957
0.172576904296875	-0.00408599853515625	4741.44017202901
0.16815185546875	-0.00408966064453125	4741.66142402846
0.163726806640625	-0.004093017578125	4741.8826760279
0.1593017578125	-0.0040966796875	4742.10392802734
0.154876708984375	-0.00410003662109375	4742.32518002678
0.15045166015625	-0.00410369873046875	4742.54643202622
0.146026611328125	-0.004107666015625	4742.76768402566
0.1416015625	-0.004111328125	4742.9889360251
0.137176513671875	-0.0041156005859375	4743.21018802455
0.13275146484375	-0.0041204833984375	4743.43144002399
0.128326416015625	-0.00412506103515625	4743.65269202343
0.1239013671875	-0.004129638671875	4743.87394402287
0.119476318359375	-0.00413482666015625	4744.09519602231
0.11505126953125	-0.00413909912109375	4744.31644802175
0.110626220703125	-0.00414459228515625	4744.53770002119
0.106201171875	-0.004150390625	4744.75895202063
0.101776123046875	-0.00415679931640625	4744.98020402008
0.09735107421875	-0.00416351318359375	4745.20145601952
0.092926025390625	-0.0041705322265625	4745.42270801896
0.0885009765625	-0.00417816162109375	4745.6439600184
0.084075927734375	-0.004185791015625	4745.86521201784
0.07965087890625	-0.00419403076171875	4746.08646401728
0.075225830078125	-0.00420166015625	4746.30771601672
0.07080078125	-0.00421051025390625	4746.52896801617
0.066375732421875	-0.00421966552734375	4746.75022001561
0.06195068359375	-0.004229736328125	4746.97147201505
0.057525634765625	-0.00423980712890625	4747.19272401449
0.0531005859375	-0.00425048828125	4747.41397601393
0.048675537109375	-0.00426177978515625	4747.63522801337
0.04425048828125	-0.0042730712890625	4747.85648001282
0.039825439453125	-0.00428497314453125	4748.07773201226
0.035400390625	-0.0042974853515625	4748.2989840117
0.030975341796875	-0.004310302734375	4748.52023601114
0.02655029296875	-0.00432342529296875	4748.74148801058
0.022125244140625	-0.00433746337890625	4748.96274001002
0.0177001953125	-0.00435150146484375	4749.18399200946
0.013275146484375	-0.004366455078125	4749.4052440089
0.00885009765625	-0.00438079833984375	4749.62649600835
0.004425048828125	-0.004395751953125	4749.84774800779
0	-0.00441131591796875	4750.06900000723
0.004425048828125	-0.00384857177734375	4750.29025200667
0.00885009765625	-0.00334869384765625	4750.51150400611
0.013275146484375	-0.00289794921875	4750.73275600555
0.0177001953125	-0.00248809814453125	4750.95400800499
0.022125244140625	-0.0021124267578125	4751.17526000444
0.02655029296875	-0.00176666259765625	4751.39651200388
0.030975341796875	-0.00144805908203125	4751.61776400332
0.035400390625	-0.00115325927734375	4751.83901600276
0.039825439453125	-0.0008795166015625	4752.0602680022
0.04425048828125	-0.00062530517578125	4752.28152000164
0.048675537109375	-0.000388641357421875	4752.50277200108
0.0531005859375	-0.00016845703125	4752.72402400052
0.057525634765625	3.7152099609375E-05	4752.94527599997
0.06195068359375	0.000228729248046875	4753.16652799941
0.066375732421875	0.000407928466796875	4753.38777999885
0.07080078125	0.000575225830078125	4753.60903199829
0.075225830078125	0.000731964111328125	4753.83028399773
0.07965087890625	0.00087799072265625	4754.05153599717
0.084075927734375	0.001015625	4754.27278799662
0.0885009765625	0.00114410400390625	4754.49403999606
0.092926025390625	0.00126434326171875	4754.7152919955
0.09735107421875	0.00137786865234375	4754.93654399494
0.101776123046875	0.00148345947265625	4755.15779599438
0.106201171875	0.00158294677734375	4755.37904799382
0.110626220703125	0.00167633056640625	4755.60029999326
0.11505126953125	0.0017633056640625	4755.82155199271
0.119476318359375	0.0018438720703125	4756.04280399215
0.1239013671875	0.0019207763671875	4756.26405599159
0.128326416015625	0.001993408203125	4756.48530799103
0.13275146484375	0.00206207275390625	4756.70655999047
0.137176513671875	0.00212677001953125	4756.92781198991
0.1416015625	0.00218780517578125	4757.14906398935
0.146026611328125	0.0022454833984375	4757.37031598879
0.15045166015625	0.0022998046875	4757.59156798824
0.154876708984375	0.00235137939453125	4757.81281998768
0.1593017578125	0.00239990234375	4758.03407198712
0.163726806640625	0.0024456787109375	4758.25532398656
0.16815185546875	0.0024896240234375	4758.476575986
0.172576904296875	0.002530517578125	4758.69782798544
0.177001953125	0.002569580078125	4758.91907998488
0.181427001953125	0.0026068115234375	4759.14033198433
0.18585205078125	0.0026422119140625	4759.36158398377
0.190277099609375	0.00267578125	4759.58283598321
0.1947021484375	0.00270782470703125	4759.80408798265
0.199127197265625	0.0027386474609375	4760.02533998209
0.20355224609375	0.00276824951171875	4760.24659198153
0.207977294921875	0.002796630859375	4760.46784398097
0.21240234375	0.002823486328125	4760.68909598042
0.216827392578125	0.0028497314453125	4760.91034797986
0.22125244140625	0.00287445068359375	4761.1315999793
0.225677490234375	0.002899169921875	4761.35285197874
0.2301025390625	0.00292205810546875	4761.57410397818
0.234527587890625	0.00294403076171875	4761.79535597762
0.23895263671875	0.00296600341796875	4762.01660797706
0.243377685546875	0.00298675537109375	4762.23785997651
0.247802734375	0.00300750732421875	4762.45911197595
0.252227783203125	0.0030279541015625	4762.68036397539
0.25665283203125	0.0030474853515625	4762.90161597483
0.261077880859375	0.00306732177734375	4763.12286797427
0.2655029296875	0.0030859375	4763.34411997371
0.269927978515625	0.00310455322265625	4763.56537197315
0.27435302734375	0.00312225341796875	4763.7866239726
0.278778076171875	0.0031402587890625	4764.00787597204
0.283203125	0.00315826416015625	4764.22912797148
0.287628173828125	0.00317474365234375	4764.45037997092
0.29205322265625	0.003192138671875	4764.67163197036
0.296478271484375	0.00320831298828125	4764.8928839698
0.3009033203125	0.00322479248046875	4765.11413596924
0.305328369140625	0.003240966796875	4765.33538796868
0.30975341796875	0.0032568359375	4765.55663996813
0.314178466796875	0.003275146484375	4765.77789196757
0.318603515625	0.003291015625	4765.99914396701
0.323028564453125	0.00330657958984375	4766.22039596645
0.32745361328125	0.00332183837890625	4766.44164796589
0.331878662109375	0.00333740234375	4766.66289996533
0.3363037109375	0.00335205078125	4766.88415196477
0.340728759765625	0.00336700439453125	4767.10540396422
0.34515380859375	0.00338226318359375	4767.32665596366
0.349578857421875	0.003397216796875	4767.5479079631
0.35400390625	0.00341033935546875	4767.76915996254
0.358428955078125	0.00342529296875	4767.99041196198
0.36285400390625	0.00343994140625	4768.21166396142
0.367279052734375	0.0034552001953125	4768.43291596086
0.3717041015625	0.00347015380859375	4768.65416796031
0.376129150390625	0.00348541259765625	4768.87541995975
0.38055419921875	0.003499755859375	4769.09667195919
0.384979248046875	0.00351409912109375	4769.31792395863
0.389404296875	0.0035284423828125	4769.53917595807
0.393829345703125	0.0035418701171875	4769.76042795751
0.39825439453125	0.0035565185546875	4769.98167995695
0.402679443359375	0.00357025146484375	4770.2029319564
0.4071044921875	0.003583984375	4770.42418395584
0.411529541015625	0.003597412109375	4770.64543595528
0.41595458984375	0.00360992431640625	4770.86668795472
0.420379638671875	0.00362274169921875	4771.08793995416
0.4248046875	0.00363555908203125	4771.3091919536
0.429229736328125	0.0036474609375	4771.53044395304
0.43365478515625	0.00365936279296875	4771.75169595249
0.438079833984375	0.00367034912109375	4771.97294795193
0.4425048828125	0.0036810302734375	4772.19419995137
0.446929931640625	0.00369171142578125	4772.41545195081
0.45135498046875	0.0037017822265625	4772.63670395025
0.455780029296875	0.00371185302734375	4772.85795594969
0.460205078125	0.0037200927734375	4773.07920794913
0.464630126953125	0.00372955322265625	4773.30045994857
0.46905517578125	0.00373748779296875	4773.52171194802
0.473480224609375	0.00374542236328125	4773.74296394746
0.4779052734375	0.00375335693359375	4773.9642159469
0.482330322265625	0.00376068115234375	4774.18546794634
0.48675537109375	0.00376800537109375	4774.40671994578
0.491180419921875	0.0037750244140625	4774.62797194522
0.49560546875	0.0037811279296875	4774.84922394466
0.500030517578125	0.0037872314453125	4775.07047594411
0.50445556640625	0.00379302978515625	4775.29172794355
0.508880615234375	0.00379852294921875	4775.51297994299
0.5133056640625	0.00380340576171875	4775.73423194243
0.517730712890625	0.0038079833984375	4775.95548394187
0.52215576171875	0.0038116455078125	4776.17673594131
0.526580810546875	0.00381561279296875	4776.39798794075
0.531005859375	0.00381927490234375	4776.6192399402
0.535430908203125	0.00382293701171875	4776.84049193964
0.53985595703125	0.00382568359375	4777.06174393908
0.544281005859375	0.003828125	4777.28299593852
0.5487060546875	0.003829345703125	4777.50424793796
0.553131103515625	0.00383148193359375	4777.7254999374
0.55755615234375	0.00383270263671875	4777.94675193684
0.561981201171875	0.0038348388671875	4778.16800393629
0.56640625	0.00383544921875	4778.38925593573
0.570831298828125	0.00383636474609375	4778.61050793517
0.57525634765625	0.00383697509765625	4778.83175993461
0.579681396484375	0.0038372802734375	4779.05301193405
0.5841064453125	0.00383697509765625	4779.27426393349
0.588531494140625	0.00383514404296875	4779.49551593293
0.59295654296875	0.00383514404296875	4779.71676793238
0.597381591796875	0.0038348388671875	4779.93801993182
0.601806640625	0.00383453369140625	4780.15927193126
0.606231689453125	0.0038336181640625	4780.3805239307
0.61065673828125	0.0038330078125	4780.60177593014
0.615081787109375	0.00383209228515625	4780.82302792958
0.6195068359375	0.0038311767578125	4781.04427992902
0.623931884765625	0.00383056640625	4781.26553192846
0.62835693359375	0.00383270263671875	4781.48678392791
0.632781982421875	0.00383087158203125	4781.70803592735
0.63720703125	0.00382965087890625	4781.92928792679
0.641632080078125	0.0038287353515625	4782.15053992623
0.64605712890625	0.003828125	4782.37179192567
0.650482177734375	0.00382720947265625	4782.59304392511
0.6549072265625	0.00382720947265625	4782.81429592455
0.659332275390625	0.003826904296875	4783.035547924
0.66375732421875	0.00382659912109375	4783.25679992344
0.668182373046875	0.00382659912109375	4783.47805192288
0.672607421875	0.003826904296875	4783.69930392232
0.677032470703125	0.003826904296875	4783.92055592176
0.68145751953125	0.00382843017578125	4784.1418079212
0.685882568359375	0.00382965087890625	4784.36305992064
0.6903076171875	0.0038311767578125	4784.58431192009
0.694732666015625	0.0038330078125	4784.80556391953
0.69915771484375	0.0038348388671875	4785.02681591897
0.703582763671875	0.0038360595703125	4785.24806791841
0.7080078125	0.00383880615234375	4785.46931991785
0.712432861328125	0.0038421630859375	4785.69057191729
0.71685791015625	0.00384613037109375	4785.91182391673
0.721282958984375	0.00385040283203125	4786.13307591618
0.7257080078125	0.00385467529296875	4786.35432791562
0.730133056640625	0.00385955810546875	4786.57557991506
0.73455810546875	0.00386444091796875	4786.7968319145
0.738983154296875	0.00386962890625	4787.01808391394
0.743408203125	0.00387481689453125	4787.23933591338
0.747833251953125	0.00388153076171875	4787.46058791282
0.75225830078125	0.00388885498046875	4787.68183991227
0.756683349609375	0.003896484375	4787.90309191171
0.7611083984375	0.00390472412109375	4788.12434391115
0.765533447265625	0.0039141845703125	4788.34559591059
0.76995849609375	0.00392364501953125	4788.56684791003
0.774383544921875	0.0039337158203125	4788.78809990947
0.77880859375	0.0039447021484375	4789.00935190891
0.783233642578125	0.00395538330078125	4789.23060390836
0.78765869140625	0.00396759033203125	4789.4518559078
0.792083740234375	0.00398040771484375	4789.67310790724
0.7965087890625	0.00399383544921875	4789.89435990668
0.800933837890625	0.0040081787109375	4790.11561190612
0.80535888671875	0.0040234375	4790.33686390556
0.809783935546875	0.004039306640625	4790.558115905
0.814208984375	0.004056396484375	4790.77936790444
0.818634033203125	0.00407379150390625	4791.00061990389
0.82305908203125	0.0040924072265625	4791.22187190333
0.827484130859375	0.00411224365234375	4791.44312390277
0.8319091796875	0.00413299560546875	4791.66437590221
0.836334228515625	0.0041546630859375	4791.88562790165
0.84075927734375	0.00417755126953125	4792.10687990109
0.845184326171875	0.00420135498046875	4792.32813190053
0.849609375	0.00422637939453125	4792.54938389998
0.854034423828125	0.0042529296875	4792.77063589942
0.85845947265625	0.00428131103515625	4792.99188789886
0.862884521484375	0.00430877685546875	4793.2131398983
0.8673095703125	0.00433868408203125	4793.43439189774
0.871734619140625	0.00437103271484375	4793.65564389718
0.87615966796875	0.004404296875	4793.87689589662
0.880584716796875	0.0044390869140625	4794.09814789607
0.885009765625	0.00447540283203125	4794.31939989551
0.889434814453125	0.0045123291015625	4794.54065189495
0.89385986328125	0.00455108642578125	4794.76190389439
0.898284912109375	0.0045916748046875	4794.98315589383
0.9027099609375	0.00463287353515625	4795.20440789327
0.907135009765625	0.00467681884765625	4795.42565989271
0.91156005859375	0.0047210693359375	4795.64691189216
0.915985107421875	0.00476776123046875	4795.8681638916
0.92041015625	0.004815673828125	4796.08941589104
0.924835205078125	0.00486419677734375	4796.31066789048
0.92926025390625	0.0049151611328125	4796.53191988992
0.933685302734375	0.00496673583984375	4796.75317188936
0.9381103515625	0.00502197265625	4796.9744238888
0.942535400390625	0.00507659912109375	4797.19567588825
0.94696044921875	0.0051324462890625	4797.41692788769
0.951385498046875	0.0051898193359375	4797.63817988713
0.955810546875	0.005247802734375	4797.85943188657
0.960235595703125	0.00530792236328125	4798.08068388601
0.96466064453125	0.00536834716796875	4798.30193588545
0.969085693359375	0.0054302978515625	4798.52318788489
0.9735107421875	0.0054925537109375	4798.74443988433
0.977935791015625	0.00555450439453125	4798.96569188378
0.98236083984375	0.0056201171875	4799.18694388322
0.986785888671875	0.00568511962890625	4799.40819588266
0.9912109375	0.00575164794921875	4799.6294478821
0.995635986328125	0.0058184814453125	4799.85069988154
1.00006103515625	0.0058856201171875	4800.07195188098
0.995635986328125	0.00535247802734375	4800.29320388042
0.9912109375	0.00487274169921875	4800.51445587987
0.986785888671875	0.00443115234375	4800.73570787931
0.98236083984375	0.00402008056640625	4800.95695987875
0.977935791015625	0.00363555908203125	4801.17821187819
0.9735107421875	0.00327484130859375	4801.39946387763
0.969085693359375	0.00293121337890625	4801.62071587707
0.96466064453125	0.002606201171875	4801.84196787651
0.960235595703125	0.0022967529296875	4802.06321987596
0.955810546875	0.00200286865234375	4802.2844718754
0.951385498046875	0.00172210693359375	4802.50572387484
0.94696044921875	0.00145538330078125	4802.72697587428
0.942535400390625	0.00120025634765625	4802.94822787372
0.9381103515625	0.00095611572265625	4803.16947987316
0.933685302734375	0.00072052001953125	4803.3907318726
0.92926025390625	0.000496826171875	4803.61198387205
0.924835205078125	0.000283538818359375	4803.83323587149
0.92041015625	7.843017578125E-05	4804.05448787093
0.915985107421875	-0.000117828369140625	4804.27573987037
0.91156005859375	-0.00030615234375	4804.49699186981
0.907135009765625	-0.000486358642578125	4804.71824386925
0.9027099609375	-0.0006593017578125	4804.93949586869
0.898284912109375	-0.0008245849609375	4805.16074786814
0.89385986328125	-0.00098358154296875	4805.38199986758
0.889434814453125	-0.0011358642578125	4805.60325186702
0.885009765625	-0.00128173828125	4805.82450386646
0.880584716796875	-0.0014215087890625	4806.0457558659
0.87615966796875	-0.00155548095703125	4806.26700786534
0.871734619140625	-0.00168365478515625	4806.48825986478
0.8673095703125	-0.001806640625	4806.70951186422
0.862884521484375	-0.0019244384765625	4806.93076386367
0.85845947265625	-0.00203582763671875	4807.15201586311
0.854034423828125	-0.0021435546875	4807.37326786255
0.849609375	-0.0022467041015625	4807.59451986199
0.845184326171875	-0.002344970703125	4807.81577186143
0.84075927734375	-0.00243804931640625	4808.03702386087
0.836334228515625	-0.00252777099609375	4808.25827586031
0.8319091796875	-0.00261322021484375	4808.47952785976
0.827484130859375	-0.002694091796875	4808.7007798592
0.82305908203125	-0.00277191162109375	4808.92203185864
0.818634033203125	-0.00284454345703125	4809.14328385808
0.814208984375	-0.0029144287109375	4809.36453585752
0.809783935546875	-0.0029803466796875	4809.58578785696
0.80535888671875	-0.003043212890625	4809.80703985641
0.800933837890625	-0.00310272216796875	4810.02829185585
0.7965087890625	-0.00315887451171875	4810.24954385529
0.792083740234375	-0.003211669921875	4810.47079585473
0.78765869140625	-0.00326141357421875	4810.69204785417
0.783233642578125	-0.00330810546875	4810.91329985361
0.77880859375	-0.00335174560546875	4811.13455185305
0.774383544921875	-0.00339263916015625	4811.35580385249
0.76995849609375	-0.0034320068359375	4811.57705585194
0.765533447265625	-0.003468017578125	4811.79830785138
0.7611083984375	-0.00350189208984375	4812.01955985082
0.756683349609375	-0.00353302001953125	4812.24081185026
0.75225830078125	-0.00356231689453125	4812.4620638497
0.747833251953125	-0.0035888671875	4812.68331584914
0.743408203125	-0.00361328125	4812.90456784858
0.738983154296875	-0.00363494873046875	4813.12581984803
0.73455810546875	-0.003656005859375	4813.34707184747
0.730133056640625	-0.00367523193359375	4813.56832384691
0.7257080078125	-0.003692626953125	4813.78957584635
0.721282958984375	-0.00370819091796875	4814.01082784579
0.71685791015625	-0.00372283935546875	4814.23207984523
0.712432861328125	-0.00373565673828125	4814.45333184467
0.7080078125	-0.00374664306640625	4814.67458384411
0.703582763671875	-0.0037567138671875	4814.89583584356
0.69915771484375	-0.0037640380859375	4815.117087843
0.694732666015625	-0.00377105712890625	4815.33833984244
0.6903076171875	-0.00377685546875	4815.55959184188
0.685882568359375	-0.00378173828125	4815.78084384132
0.68145751953125	-0.00378631591796875	4816.00209584076
0.677032470703125	-0.0037890625	4816.2233478402
0.672607421875	-0.00379150390625	4816.44459983965
0.668182373046875	-0.00379302978515625	4816.66585183909
0.66375732421875	-0.00379425048828125	4816.88710383853
0.659332275390625	-0.00379486083984375	4817.10835583797
0.6549072265625	-0.00379486083984375	4817.32960783741
0.650482177734375	-0.00379364013671875	4817.55085983685
0.64605712890625	-0.003792724609375	4817.7721118363
0.641632080078125	-0.00379241943359375	4817.99336383574
0.63720703125	-0.003790283203125	4818.21461583518
0.632781982421875	-0.0037884521484375	4818.43586783462
0.62835693359375	-0.00378631591796875	4818.65711983406
0.623931884765625	-0.00378662109375	4818.8783718335
0.6195068359375	-0.0037841796875	4819.09962383294
0.615081787109375	-0.00378143310546875	4819.32087583238
0.61065673828125	-0.0037786865234375	4819.54212783183
0.606231689453125	-0.0037762451171875	4819.76337983127
0.601806640625	-0.00377410888671875	4819.98463183071
0.597381591796875	-0.00377166748046875	4820.20588383015
0.59295654296875	-0.00376922607421875	4820.42713582959
0.588531494140625	-0.00376739501953125	4820.64838782903
0.5841064453125	-0.00376373291015625	4820.86963982847
0.579681396484375	-0.00376251220703125	4821.09089182792
0.57525634765625	-0.003760986328125	4821.31214382736
0.570831298828125	-0.00376007080078125	4821.5333958268
0.56640625	-0.00375946044921875	4821.75464782624
0.561981201171875	-0.00375885009765625	4821.97589982568
0.55755615234375	-0.0037579345703125	4822.19715182512
0.553131103515625	-0.0037579345703125	4822.41840382456
0.5487060546875	-0.00375823974609375	4822.639655824
0.544281005859375	-0.003758544921875	4822.86090782345
0.53985595703125	-0.00375885009765625	4823.08215982289
0.535430908203125	-0.00376007080078125	4823.30341182233
0.531005859375	-0.00376190185546875	4823.52466382177
0.526580810546875	-0.003763427734375	4823.74591582121
0.52215576171875	-0.00376556396484375	4823.96716782065
0.517730712890625	-0.00376800537109375	4824.1884198201
0.5133056640625	-0.00377105712890625	4824.40967181954
0.508880615234375	-0.0037744140625	4824.63092381898
0.50445556640625	-0.003778076171875	4824.85217581842
0.500030517578125	-0.00378173828125	4825.07342781786
0.49560546875	-0.0037860107421875	4825.2946798173
0.491180419921875	-0.003790283203125	4825.51593181674
0.48675537109375	-0.003795166015625	4825.73718381619
0.482330322265625	-0.00380035400390625	4825.95843581563
0.4779052734375	-0.0038055419921875	4826.17968781507
0.473480224609375	-0.00381134033203125	4826.40093981451
0.46905517578125	-0.0038165283203125	4826.62219181395
0.464630126953125	-0.0038226318359375	4826.84344381339
0.460205078125	-0.003829345703125	4827.06469581283
0.455780029296875	-0.00383544921875	4827.28594781227
0.45135498046875	-0.0038421630859375	4827.50719981172
0.446929931640625	-0.00384857177734375	4827.72845181116
0.4425048828125	-0.003856201171875	4827.9497038106
0.438079833984375	-0.003863525390625	4828.17095581004
0.43365478515625	-0.0038702392578125	4828.39220780948
0.429229736328125	-0.0038775634765625	4828.61345980892
0.4248046875	-0.00388427734375	4828.83471180836
0.420379638671875	-0.00389190673828125	4829.05596380781
0.41595458984375	-0.00389862060546875	4829.27721580725
0.411529541015625	-0.0039056396484375	4829.49846780669
0.4071044921875	-0.00391204833984375	4829.71971980613
0.402679443359375	-0.00391876220703125	4829.94097180557
0.39825439453125	-0.00392486572265625	4830.16222380501
0.393829345703125	-0.00393157958984375	4830.38347580445
0.389404296875	-0.0039361572265625	4830.6047278039
0.384979248046875	-0.00394256591796875	4830.82597980334
0.38055419921875	-0.00394805908203125	4831.04723180278
0.376129150390625	-0.003953857421875	4831.26848380222
0.3717041015625	-0.00395904541015625	4831.48973580166
0.367279052734375	-0.0039642333984375	4831.7109878011
0.36285400390625	-0.00396881103515625	4831.93223980054
0.358428955078125	-0.003973388671875	4832.15349179999
0.35400390625	-0.00397796630859375	4832.37474379943
0.349578857421875	-0.0039801025390625	4832.59599579887
0.34515380859375	-0.003984375	4832.81724779831
0.340728759765625	-0.00398773193359375	4833.03849979775
0.3363037109375	-0.00399078369140625	4833.25975179719
0.331878662109375	-0.00399444580078125	4833.48100379663
0.32745361328125	-0.00399688720703125	4833.70225579608
0.323028564453125	-0.00399932861328125	4833.92350779552
0.318603515625	-0.00400146484375	4834.14475979496
0.314178466796875	-0.00400390625	4834.3660117944
0.30975341796875	-0.00400848388671875	4834.58726379384
0.305328369140625	-0.0040106201171875	4834.80851579328
0.3009033203125	-0.004012451171875	4835.02976779272
0.296478271484375	-0.00401397705078125	4835.25101979216
0.29205322265625	-0.0040155029296875	4835.47227179161
0.287628173828125	-0.004017333984375	4835.69352379105
0.283203125	-0.00401885986328125	4835.91477579049
0.278778076171875	-0.0040203857421875	4836.13602778993
0.27435302734375	-0.004022216796875	4836.35727978937
0.269927978515625	-0.0040234375	4836.57853178881
0.2655029296875	-0.00402557373046875	4836.79978378825
0.261077880859375	-0.00402740478515625	4837.0210357877
0.25665283203125	-0.0040289306640625	4837.24228778714
0.252227783203125	-0.00403076171875	4837.46353978658
0.247802734375	-0.00403289794921875	4837.68479178602
0.243377685546875	-0.00403472900390625	4837.90604378546
0.23895263671875	-0.00403656005859375	4838.1272957849
0.234527587890625	-0.004039306640625	4838.34854778434
0.2301025390625	-0.0040399169921875	4838.56979978379
0.225677490234375	-0.00404266357421875	4838.79105178323
0.22125244140625	-0.0040447998046875	4839.01230378267
0.216827392578125	-0.004046630859375	4839.23355578211
0.21240234375	-0.0040496826171875	4839.45480778155
0.207977294921875	-0.00405181884765625	4839.67605978099
0.20355224609375	-0.0040545654296875	4839.89731178043
0.199127197265625	-0.004056396484375	4840.11856377988
0.1947021484375	-0.0040594482421875	4840.33981577932
0.190277099609375	-0.0040618896484375	4840.56106777876
0.18585205078125	-0.00406494140625	4840.7823197782
0.181427001953125	-0.0040679931640625	4841.00357177764
0.177001953125	-0.0040704345703125	4841.22482377708
0.172576904296875	-0.00407379150390625	4841.44607577652
0.16815185546875	-0.00407684326171875	4841.66732777597
0.163726806640625	-0.0040802001953125	4841.88857977541
0.1593017578125	-0.0040838623046875	4842.10983177485
0.154876708984375	-0.0040863037109375	4842.33108377429
0.15045166015625	-0.0040899658203125	4842.55233577373
0.146026611328125	-0.00409393310546875	4842.77358777317
0.1416015625	-0.004097900390625	4842.99483977261
0.137176513671875	-0.0041015625	4843.21609177205
0.13275146484375	-0.0041058349609375	4843.4373437715
0.128326416015625	-0.0041107177734375	4843.65859577094
0.1239013671875	-0.00411468505859375	4843.87984777038
0.119476318359375	-0.00411956787109375	4844.10109976982
0.11505126953125	-0.00412353515625	4844.32235176926
0.110626220703125	-0.00412933349609375	4844.5436037687
0.106201171875	-0.00413482666015625	4844.76485576814
0.101776123046875	-0.0041412353515625	4844.98610776759
0.09735107421875	-0.00414764404296875	4845.20735976703
0.092926025390625	-0.004154052734375	4845.42861176647
0.0885009765625	-0.00416168212890625	4845.64986376591
0.084075927734375	-0.004168701171875	4845.87111576535
0.07965087890625	-0.00417694091796875	4846.09236776479
0.075225830078125	-0.00418426513671875	4846.31361976423
0.07080078125	-0.004193115234375	4846.53487176368
0.066375732421875	-0.00420166015625	4846.75612376312
0.06195068359375	-0.00421112060546875	4846.97737576256
0.057525634765625	-0.0042205810546875	4847.198627762
0.0531005859375	-0.00423126220703125	4847.41987976144
0.048675537109375	-0.004241943359375	4847.64113176088
0.04425048828125	-0.00425323486328125	4847.86238376032
0.039825439453125	-0.0042645263671875	4848.08363575977
0.035400390625	-0.0042767333984375	4848.30488775921
0.030975341796875	-0.00428924560546875	4848.52613975865
0.02655029296875	-0.0043023681640625	4848.74739175809
0.022125244140625	-0.00431610107421875	4848.96864375753
0.0177001953125	-0.00433013916015625	4849.18989575697
0.013275146484375	-0.00434478759765625	4849.41114775641
0.00885009765625	-0.00436004638671875	4849.63239975586
0.004425048828125	-0.0043743896484375	4849.8536517553
0	-0.0043902587890625	4850.07490375474
0.004425048828125	-0.0038275146484375	4850.29615575418
0.00885009765625	-0.00332763671875	4850.51740775362
0.013275146484375	-0.002877197265625	4850.73865975306
0.0177001953125	-0.0024676513671875	4850.9599117525
0.022125244140625	-0.0020916748046875	4851.18116375194
0.02655029296875	-0.00174652099609375	4851.40241575139
0.030975341796875	-0.00142791748046875	4851.62366775083
0.035400390625	-0.00113311767578125	4851.84491975027
0.039825439453125	-0.0008599853515625	4852.06617174971
0.04425048828125	-0.0006060791015625	4852.28742374915
0.048675537109375	-0.0003699951171875	4852.50867574859
0.0531005859375	-0.00015008544921875	4852.72992774803
0.057525634765625	5.5084228515625E-05	4852.95117974748
0.06195068359375	0.000246337890625	4853.17243174692
0.066375732421875	0.000425384521484375	4853.39368374636
0.07080078125	0.000591888427734375	4853.6149357458
0.075225830078125	0.00074835205078125	4853.83618774524
0.07965087890625	0.00089385986328125	4854.05743974468
0.084075927734375	0.0010308837890625	4854.27869174412
0.0885009765625	0.00115875244140625	4854.49994374357
0.092926025390625	0.001279296875	4854.72119574301
0.09735107421875	0.0013922119140625	4854.94244774245
0.101776123046875	0.00149749755859375	4855.16369974189
0.106201171875	0.00159637451171875	4855.38495174133
0.110626220703125	0.001689453125	4855.60620374077
0.11505126953125	0.0017767333984375	4855.82745574021
0.119476318359375	0.001856689453125	4856.04870773966
0.1239013671875	0.00193328857421875	4856.2699597391
0.128326416015625	0.002005615234375	4856.49121173854
0.13275146484375	0.00207366943359375	4856.71246373798
0.137176513671875	0.00213836669921875	4856.93371573742
0.1416015625	0.0021990966796875	4857.15496773686
0.146026611328125	0.0022564697265625	4857.3762197363
0.15045166015625	0.00231048583984375	4857.59747173575
0.154876708984375	0.0023614501953125	4857.81872373519
0.1593017578125	0.0024090576171875	4858.03997573463
0.163726806640625	0.00245513916015625	4858.26122773407
0.16815185546875	0.0024981689453125	4858.48247973351
0.172576904296875	0.0025390625	4858.70373173295
0.177001953125	0.002578125	4858.92498373239
0.181427001953125	0.00261505126953125	4859.14623573184
0.18585205078125	0.00264984130859375	4859.36748773128
0.190277099609375	0.00268341064453125	4859.58873973072
0.1947021484375	0.00271575927734375	4859.80999173016
0.199127197265625	0.00274627685546875	4860.0312437296
0.20355224609375	0.0027752685546875	4860.25249572904
0.207977294921875	0.00280303955078125	4860.47374772848
0.21240234375	0.00282989501953125	4860.69499972792
0.216827392578125	0.0028558349609375	4860.91625172737
0.22125244140625	0.00288055419921875	4861.13750372681
0.225677490234375	0.00290435791015625	4861.35875572625
0.2301025390625	0.00292755126953125	4861.58000772569
0.234527587890625	0.00294891357421875	4861.80125972513
0.23895263671875	0.00297027587890625	4862.02251172457
0.243377685546875	0.002991943359375	4862.24376372401
0.247802734375	0.00301177978515625	4862.46501572346
0.252227783203125	0.00303192138671875	4862.6862677229
0.25665283203125	0.0030517578125	4862.90751972234
0.261077880859375	0.00307037353515625	4863.12877172178
0.2655029296875	0.0030889892578125	4863.35002372122
0.269927978515625	0.00310699462890625	4863.57127572066
0.27435302734375	0.00312469482421875	4863.7925277201
0.278778076171875	0.00314178466796875	4864.01377971955
0.283203125	0.0031591796875	4864.23503171899
0.287628173828125	0.00317657470703125	4864.45628371843
0.29205322265625	0.003193359375	4864.67753571787
0.296478271484375	0.00320953369140625	4864.89878771731
0.3009033203125	0.00322540283203125	4865.12003971675
0.305328369140625	0.0032415771484375	4865.34129171619
0.30975341796875	0.0032568359375	4865.56254371564
0.314178466796875	0.0032745361328125	4865.78379571508
0.318603515625	0.00329010009765625	4866.00504771452
0.323028564453125	0.00330535888671875	4866.22629971396
0.32745361328125	0.00332061767578125	4866.4475517134
0.331878662109375	0.00333526611328125	4866.66880371284
0.3363037109375	0.00334991455078125	4866.89005571228
0.340728759765625	0.0033642578125	4867.11130771173
0.34515380859375	0.00337890625	4867.33255971117
0.349578857421875	0.00339385986328125	4867.55381171061
0.35400390625	0.00340667724609375	4867.77506371005
0.358428955078125	0.00342132568359375	4867.99631570949
0.36285400390625	0.00343536376953125	4868.21756770893
0.367279052734375	0.0034503173828125	4868.43881970837
0.3717041015625	0.00346466064453125	4868.66007170781
0.376129150390625	0.0034796142578125	4868.88132370726
0.38055419921875	0.00349395751953125	4869.1025757067
0.384979248046875	0.0035076904296875	4869.32382770614
0.389404296875	0.003521728515625	4869.54507970558
0.393829345703125	0.00353515625	4869.76633170502
0.39825439453125	0.0035491943359375	4869.98758370446
0.402679443359375	0.0035626220703125	4870.2088357039
0.4071044921875	0.0035760498046875	4870.43008770335
0.411529541015625	0.0035888671875	4870.65133970279
0.41595458984375	0.00360137939453125	4870.87259170223
0.420379638671875	0.0036138916015625	4871.09384370167
0.4248046875	0.00362640380859375	4871.31509570111
0.429229736328125	0.0036383056640625	4871.53634770055
0.43365478515625	0.00365020751953125	4871.75759969999
0.438079833984375	0.00366119384765625	4871.97885169944
0.4425048828125	0.003671875	4872.20010369888
0.446929931640625	0.00368255615234375	4872.42135569832
0.45135498046875	0.00369232177734375	4872.64260769776
0.455780029296875	0.003701171875	4872.8638596972
0.460205078125	0.00371002197265625	4873.08511169664
0.464630126953125	0.00371917724609375	4873.30636369608
0.46905517578125	0.003726806640625	4873.52761569553
0.473480224609375	0.00373504638671875	4873.74886769497
0.4779052734375	0.00374237060546875	4873.97011969441
0.482330322265625	0.00374908447265625	4874.19137169385
0.48675537109375	0.003756103515625	4874.41262369329
0.491180419921875	0.003763427734375	4874.63387569273
0.49560546875	0.00376922607421875	4874.85512769217
0.500030517578125	0.0037750244140625	4875.07637969162
0.50445556640625	0.00378082275390625	4875.29763169106
0.508880615234375	0.00378631591796875	4875.5188836905
0.5133056640625	0.00379150390625	4875.74013568994
0.517730712890625	0.0037957763671875	4875.96138768938
0.52215576171875	0.00380035400390625	4876.18263968882
0.526580810546875	0.00380401611328125	4876.40389168826
0.531005859375	0.0038079833984375	4876.6251436877
0.535430908203125	0.0038104248046875	4876.84639568715
0.53985595703125	0.00381378173828125	4877.06764768659
0.544281005859375	0.00381591796875	4877.28889968603
0.5487060546875	0.00381744384765625	4877.51015168547
0.553131103515625	0.003819580078125	4877.73140368491
0.55755615234375	0.00382110595703125	4877.95265568435
0.561981201171875	0.00382232666015625	4878.17390768379
0.56640625	0.0038232421875	4878.39515968324
0.570831298828125	0.00382415771484375	4878.61641168268
0.57525634765625	0.003824462890625	4878.83766368212
0.579681396484375	0.00382476806640625	4879.05891568156
0.5841064453125	0.0038250732421875	4879.280167681
0.588531494140625	0.00382293701171875	4879.50141968044
0.59295654296875	0.0038232421875	4879.72267167989
0.597381591796875	0.00382293701171875	4879.94392367933
0.601806640625	0.00382232666015625	4880.16517567877
0.606231689453125	0.00382171630859375	4880.38642767821
0.61065673828125	0.00382049560546875	4880.60767967765
0.615081787109375	0.0038201904296875	4880.82893167709
0.6195068359375	0.00381927490234375	4881.05018367653
0.623931884765625	0.003818359375	4881.27143567597
0.62835693359375	0.0038201904296875	4881.49268767542
0.632781982421875	0.00381927490234375	4881.71393967486
0.63720703125	0.0038177490234375	4881.9351916743
0.641632080078125	0.003817138671875	4882.15644367374
0.64605712890625	0.00381622314453125	4882.37769567318
0.650482177734375	0.00381500244140625	4882.59894767262
0.6549072265625	0.00381439208984375	4882.82019967206
0.659332275390625	0.0038140869140625	4883.04145167151
0.66375732421875	0.0038140869140625	4883.26270367095
0.668182373046875	0.0038140869140625	4883.48395567039
0.672607421875	0.003814697265625	4883.70520766983
0.677032470703125	0.0038153076171875	4883.92645966927
0.68145751953125	0.00381591796875	4884.14771166871
0.685882568359375	0.003817138671875	4884.36896366815
0.6903076171875	0.00381805419921875	4884.59021566759
0.694732666015625	0.003819580078125	4884.81146766704
0.69915771484375	0.00382171630859375	4885.03271966648
0.703582763671875	0.00382293701171875	4885.25397166592
0.7080078125	0.00382568359375	4885.47522366536
0.712432861328125	0.0038287353515625	4885.6964756648
0.71685791015625	0.00383209228515625	4885.91772766424
0.721282958984375	0.0038360595703125	4886.13897966368
0.7257080078125	0.00384002685546875	4886.36023166313
0.730133056640625	0.0038446044921875	4886.58148366257
0.73455810546875	0.0038494873046875	4886.80273566201
0.738983154296875	0.00385528564453125	4887.02398766145
0.743408203125	0.00385986328125	4887.24523966089
0.747833251953125	0.00386627197265625	4887.46649166033
0.75225830078125	0.003873291015625	4887.68774365978
0.756683349609375	0.0038812255859375	4887.90899565922
0.7611083984375	0.00388946533203125	4888.13024765866
0.765533447265625	0.00389739990234375	4888.3514996581
0.76995849609375	0.0039068603515625	4888.57275165754
0.774383544921875	0.00391632080078125	4888.79400365698
0.77880859375	0.003927001953125	4889.01525565642
0.783233642578125	0.00393798828125	4889.23650765586
0.78765869140625	0.0039501953125	4889.45775965531
0.792083740234375	0.00396209716796875	4889.67901165475
0.7965087890625	0.00397552490234375	4889.90026365419
0.800933837890625	0.0039892578125	4890.12151565363
0.80535888671875	0.00400421142578125	4890.34276765307
0.809783935546875	0.0040203857421875	4890.56401965251
0.814208984375	0.00403656005859375	4890.78527165195
0.818634033203125	0.00405426025390625	4891.0065236514
0.82305908203125	0.0040716552734375	4891.22777565084
0.827484130859375	0.0040911865234375	4891.44902765028
0.8319091796875	0.00411041259765625	4891.67027964972
0.836334228515625	0.00413299560546875	4891.89153164916
0.84075927734375	0.0041552734375	4892.1127836486
0.845184326171875	0.00417877197265625	4892.33403564804
0.849609375	0.00420318603515625	4892.55528764748
0.854034423828125	0.0042291259765625	4892.77653964693
0.85845947265625	0.00425628662109375	4892.99779164637
0.862884521484375	0.00428436279296875	4893.21904364581
0.8673095703125	0.0043133544921875	4893.44029564525
0.871734619140625	0.0043450927734375	4893.66154764469
0.87615966796875	0.0043780517578125	4893.88279964413
0.880584716796875	0.0044122314453125	4894.10405164358
0.885009765625	0.0044476318359375	4894.32530364302
0.889434814453125	0.00448394775390625	4894.54655564246
0.89385986328125	0.00452239990234375	4894.7678076419
0.898284912109375	0.00456207275390625	4894.98905964134
0.9027099609375	0.00460296630859375	4895.21031164078
0.907135009765625	0.0046453857421875	4895.43156364022
0.91156005859375	0.00468963623046875	4895.65281563967
0.915985107421875	0.0047357177734375	4895.87406763911
0.92041015625	0.004781494140625	4896.09531963855
0.924835205078125	0.004830322265625	4896.31657163799
0.92926025390625	0.00488006591796875	4896.53782363743
0.933685302734375	0.00493072509765625	4896.75907563687
0.9381103515625	0.00498565673828125	4896.98032763631
0.942535400390625	0.00503936767578125	4897.20157963575
0.94696044921875	0.0050946044921875	4897.4228316352
0.951385498046875	0.0051507568359375	4897.64408363464
0.955810546875	0.00520782470703125	4897.86533563408
0.960235595703125	0.00526641845703125	4898.08658763352
0.96466064453125	0.00532562255859375	4898.30783963296
0.969085693359375	0.00538726806640625	4898.5290916324
0.9735107421875	0.00544952392578125	4898.75034363184
0.977935791015625	0.00551055908203125	4898.97159563129
0.98236083984375	0.00557403564453125	4899.19284763073
0.986785888671875	0.00563873291015625	4899.41409963017
0.9912109375	0.00570465087890625	4899.63535162961
