Potential applied (V)	WE(1).Current (A)	Time (s)
0.004425048828125	-0.067962646484375	5042.99961426765
0.00885009765625	-0.0649383544921875	5043.04386426754
0.013275146484375	-0.06239013671875	5043.08811426743
0.0177001953125	-0.0601287841796875	5043.13236426732
0.022125244140625	-0.0580657958984375	5043.1766142672
0.02655029296875	-0.0561431884765625	5043.22086426709
0.030975341796875	-0.0543304443359375	5043.26511426698
0.035400390625	-0.0526092529296875	5043.30936426687
0.039825439453125	-0.05096435546875	5043.35361426676
0.04425048828125	-0.0493927001953125	5043.39786426664
0.048675537109375	-0.0478851318359375	5043.44211426653
0.0531005859375	-0.046435546875	5043.48636426642
0.057525634765625	-0.045037841796875	5043.53061426631
0.06195068359375	-0.04368896484375	5043.5748642662
0.066375732421875	-0.0423797607421875	5043.61911426609
0.07080078125	-0.0411163330078125	5043.66336426597
0.075225830078125	-0.039898681640625	5043.70761426586
0.07965087890625	-0.0387176513671875	5043.75186426575
0.084075927734375	-0.037567138671875	5043.79611426564
0.0885009765625	-0.0364532470703125	5043.84036426553
0.092926025390625	-0.0353729248046875	5043.88461426542
0.09735107421875	-0.0343231201171875	5043.9288642653
0.101776123046875	-0.03330078125	5043.97311426519
0.106201171875	-0.0323150634765625	5044.01736426508
0.110626220703125	-0.03134765625	5044.06161426497
0.11505126953125	-0.0304107666015625	5044.10586426486
0.119476318359375	-0.0295013427734375	5044.15011426474
0.1239013671875	-0.0286102294921875	5044.19436426463
0.128326416015625	-0.0277435302734375	5044.23861426452
0.13275146484375	-0.026898193359375	5044.28286426441
0.137176513671875	-0.0260772705078125	5044.3271142643
0.1416015625	-0.025274658203125	5044.37136426419
0.146026611328125	-0.0244964599609375	5044.41561426407
0.15045166015625	-0.0237335205078125	5044.45986426396
0.154876708984375	-0.0229888916015625	5044.50411426385
0.1593017578125	-0.0222625732421875	5044.54836426374
0.163726806640625	-0.021551513671875	5044.59261426363
0.16815185546875	-0.0208587646484375	5044.63686426352
0.172576904296875	-0.020184326171875	5044.6811142634
0.177001953125	-0.0195220947265625	5044.72536426329
0.181427001953125	-0.0188720703125	5044.76961426318
0.18585205078125	-0.0182373046875	5044.81386426307
0.190277099609375	-0.0176177978515625	5044.85811426296
0.1947021484375	-0.0170135498046875	5044.90236426285
0.199127197265625	-0.0164215087890625	5044.94661426273
0.20355224609375	-0.015838623046875	5044.99086426262
0.207977294921875	-0.01527099609375	5045.03511426251
0.21240234375	-0.014715576171875	5045.0793642624
0.216827392578125	-0.014166259765625	5045.12361426229
0.22125244140625	-0.01363525390625	5045.16786426218
0.225677490234375	-0.0131134033203125	5045.21211426206
0.2301025390625	-0.01259765625	5045.25636426195
0.234527587890625	-0.0121002197265625	5045.30061426184
0.23895263671875	-0.0116058349609375	5045.34486426173
0.243377685546875	-0.01112060546875	5045.38911426162
0.247802734375	-0.0106536865234375	5045.43336426151
0.252227783203125	-0.010186767578125	5045.47761426139
0.25665283203125	-0.0097320556640625	5045.52186426128
0.261077880859375	-0.00928955078125	5045.56611426117
0.2655029296875	-0.00885009765625	5045.61036426106
0.269927978515625	-0.0084197998046875	5045.65461426095
0.27435302734375	-0.0079986572265625	5045.69886426083
0.278778076171875	-0.0075897216796875	5045.74311426072
0.283203125	-0.0071807861328125	5045.78736426061
0.287628173828125	-0.0067840576171875	5045.8316142605
0.29205322265625	-0.0063934326171875	5045.87586426039
0.296478271484375	-0.006011962890625	5045.92011426028
0.3009033203125	-0.005633544921875	5045.96436426016
0.305328369140625	-0.0052642822265625	5046.00861426005
0.30975341796875	-0.00490447998046875	5046.05286425994
0.314178466796875	-0.0045465087890625	5046.09711425983
0.318603515625	-0.00419830322265625	5046.14136425972
0.323028564453125	-0.0038555908203125	5046.18561425961
0.32745361328125	-0.003519287109375	5046.22986425949
0.331878662109375	-0.00320068359375	5046.27411425938
0.3363037109375	-0.0028753662109375	5046.31836425927
0.340728759765625	-0.00255584716796875	5046.36261425916
0.34515380859375	-0.00224212646484375	5046.40686425905
0.349578857421875	-0.0019342041015625	5046.45111425894
0.35400390625	-0.00163299560546875	5046.49536425882
0.358428955078125	-0.00133544921875	5046.53961425871
0.36285400390625	-0.00104400634765625	5046.5838642586
0.367279052734375	-0.0007568359375	5046.62811425849
0.3717041015625	-0.00047528076171875	5046.67236425838
0.376129150390625	-0.000198455810546875	5046.71661425827
0.38055419921875	7.36083984375E-05	5046.76086425815
0.384979248046875	0.000341064453125	5046.80511425804
0.389404296875	0.00060394287109375	5046.84936425793
0.393829345703125	0.0008612060546875	5046.89361425782
0.39825439453125	0.00111541748046875	5046.93786425771
0.402679443359375	0.00136505126953125	5046.98211425759
0.4071044921875	0.001610107421875	5047.02636425748
0.411529541015625	0.00185089111328125	5047.07061425737
0.41595458984375	0.00208740234375	5047.11486425726
0.420379638671875	0.0023199462890625	5047.15911425715
0.4248046875	0.00254913330078125	5047.20336425704
0.429229736328125	0.002774658203125	5047.24761425692
0.43365478515625	0.00299530029296875	5047.29186425681
0.438079833984375	0.00321258544921875	5047.3361142567
0.4425048828125	0.0034259033203125	5047.38036425659
0.446929931640625	0.00363616943359375	5047.42461425648
0.45135498046875	0.00384307861328125	5047.46886425637
0.455780029296875	0.0040460205078125	5047.51311425625
0.460205078125	0.0042462158203125	5047.55736425614
0.464630126953125	0.0044427490234375	5047.60161425603
0.46905517578125	0.00463531494140625	5047.64586425592
0.473480224609375	0.004825439453125	5047.69011425581
0.4779052734375	0.00501220703125	5047.7343642557
0.482330322265625	0.00519561767578125	5047.77861425558
0.48675537109375	0.00537689208984375	5047.82286425547
0.491180419921875	0.00555511474609375	5047.86711425536
0.49560546875	0.0057305908203125	5047.91136425525
0.500030517578125	0.005902099609375	5047.95561425514
0.50445556640625	0.006070556640625	5047.99986425503
0.508880615234375	0.0062255859375	5048.04411425491
0.5133056640625	0.0063873291015625	5048.0883642548
0.517730712890625	0.0065460205078125	5048.13261425469
0.52215576171875	0.0067047119140625	5048.17686425458
0.526580810546875	0.0068603515625	5048.22111425447
0.531005859375	0.007012939453125	5048.26536425436
0.535430908203125	0.0071624755859375	5048.30961425424
0.53985595703125	0.00731201171875	5048.35386425413
0.544281005859375	0.0074554443359375	5048.39811425402
0.5487060546875	0.007598876953125	5048.44236425391
0.553131103515625	0.0077392578125	5048.4866142538
0.55755615234375	0.0078704833984375	5048.53086425368
0.561981201171875	0.0080078125	5048.57511425357
0.56640625	0.00814208984375	5048.61936425346
0.570831298828125	0.0082733154296875	5048.66361425335
0.57525634765625	0.008404541015625	5048.70786425324
0.579681396484375	0.0085296630859375	5048.75211425313
0.5841064453125	0.00865478515625	5048.79636425301
0.588531494140625	0.00877685546875	5048.8406142529
0.59295654296875	0.00889892578125	5048.88486425279
0.597381591796875	0.0090179443359375	5048.92911425268
0.601806640625	0.009136962890625	5048.97336425257
0.606231689453125	0.0092498779296875	5049.01761425246
0.61065673828125	0.00936279296875	5049.06186425234
0.615081787109375	0.00947265625	5049.10611425223
0.6195068359375	0.00958251953125	5049.15036425212
0.623931884765625	0.0096923828125	5049.19461425201
0.62835693359375	0.00980224609375	5049.2388642519
0.632781982421875	0.009906005859375	5049.28311425179
0.63720703125	0.010009765625	5049.32736425167
0.641632080078125	0.0101104736328125	5049.37161425156
0.64605712890625	0.0102081298828125	5049.41586425145
0.650482177734375	0.010302734375	5049.46011425134
0.6549072265625	0.010400390625	5049.50436425123
0.659332275390625	0.0104949951171875	5049.54861425112
0.66375732421875	0.0105865478515625	5049.592864251
0.668182373046875	0.010675048828125	5049.63711425089
0.672607421875	0.0107666015625	5049.68136425078
0.677032470703125	0.0108551025390625	5049.72561425067
0.68145751953125	0.0109375	5049.76986425056
0.685882568359375	0.0110198974609375	5049.81411425044
0.6903076171875	0.0111053466796875	5049.85836425033
0.694732666015625	0.0111846923828125	5049.90261425022
0.69915771484375	0.01126708984375	5049.94686425011
0.703582763671875	0.011346435546875	5049.99111425
0.7080078125	0.0114227294921875	5050.03536424989
0.712432861328125	0.0114990234375	5050.07961424977
0.71685791015625	0.0115753173828125	5050.12386424966
0.721282958984375	0.0116485595703125	5050.16811424955
0.7257080078125	0.01171875	5050.21236424944
0.730133056640625	0.0117919921875	5050.25661424933
0.73455810546875	0.011859130859375	5050.30086424922
0.738983154296875	0.0119293212890625	5050.3451142491
0.743408203125	0.0119964599609375	5050.38936424899
0.747833251953125	0.0120635986328125	5050.43361424888
0.75225830078125	0.012127685546875	5050.47786424877
0.756683349609375	0.0121917724609375	5050.52211424866
0.7611083984375	0.012255859375	5050.56636424855
0.765533447265625	0.01231689453125	5050.61061424843
0.76995849609375	0.0123779296875	5050.65486424832
0.774383544921875	0.01243896484375	5050.69911424821
0.77880859375	0.0124969482421875	5050.7433642481
0.783233642578125	0.0125518798828125	5050.78761424799
0.78765869140625	0.01260986328125	5050.83186424788
0.792083740234375	0.0126678466796875	5050.87611424776
0.7965087890625	0.0127227783203125	5050.92036424765
0.800933837890625	0.0127777099609375	5050.96461424754
0.80535888671875	0.0128326416015625	5051.00886424743
0.809783935546875	0.0128875732421875	5051.05311424732
0.814208984375	0.012939453125	5051.09736424721
0.818634033203125	0.0129913330078125	5051.14161424709
0.82305908203125	0.0130401611328125	5051.18586424698
0.827484130859375	0.013092041015625	5051.23011424687
0.8319091796875	0.013140869140625	5051.27436424676
0.836334228515625	0.013189697265625	5051.31861424665
0.84075927734375	0.013238525390625	5051.36286424653
0.845184326171875	0.013287353515625	5051.40711424642
0.849609375	0.0133331298828125	5051.45136424631
0.854034423828125	0.0133819580078125	5051.4956142462
0.85845947265625	0.013427734375	5051.53986424609
0.862884521484375	0.0134765625	5051.58411424598
0.8673095703125	0.013519287109375	5051.62836424586
0.871734619140625	0.0135650634765625	5051.67261424575
0.87615966796875	0.01361083984375	5051.71686424564
0.880584716796875	0.0136566162109375	5051.76111424553
0.885009765625	0.013702392578125	5051.80536424542
0.889434814453125	0.0137481689453125	5051.84961424531
0.89385986328125	0.0137908935546875	5051.89386424519
0.898284912109375	0.013836669921875	5051.93811424508
0.9027099609375	0.0138824462890625	5051.98236424497
0.907135009765625	0.01392822265625	5052.02661424486
0.91156005859375	0.013970947265625	5052.07086424475
0.915985107421875	0.0140167236328125	5052.11511424464
0.92041015625	0.0140594482421875	5052.15936424452
0.924835205078125	0.0141021728515625	5052.20361424441
0.92926025390625	0.01414794921875	5052.2478642443
0.933685302734375	0.0141937255859375	5052.29211424419
0.9381103515625	0.0142425537109375	5052.33636424408
0.942535400390625	0.014288330078125	5052.38061424397
0.94696044921875	0.0143341064453125	5052.42486424385
0.951385498046875	0.0143829345703125	5052.46911424374
0.955810546875	0.0144287109375	5052.51336424363
0.960235595703125	0.0144805908203125	5052.55761424352
0.96466064453125	0.0145263671875	5052.60186424341
0.969085693359375	0.0145782470703125	5052.64611424329
0.9735107421875	0.0146270751953125	5052.69036424318
0.977935791015625	0.0146759033203125	5052.73461424307
0.98236083984375	0.014727783203125	5052.77886424296
0.986785888671875	0.0147796630859375	5052.82311424285
0.9912109375	0.0148345947265625	5052.86736424274
0.995635986328125	0.014886474609375	5052.91161424262
1.00006103515625	0.01494140625	5052.95586424251
0.995635986328125	0.0143218994140625	5053.0001142424
0.9912109375	0.0137359619140625	5053.04436424229
0.986785888671875	0.01317138671875	5053.08861424218
0.98236083984375	0.0126220703125	5053.13286424207
0.977935791015625	0.01209716796875	5053.17711424195
0.9735107421875	0.0115875244140625	5053.22136424184
0.969085693359375	0.0110870361328125	5053.26561424173
0.96466064453125	0.0106048583984375	5053.30986424162
0.960235595703125	0.0101348876953125	5053.35411424151
0.955810546875	0.0096710205078125	5053.3983642414
0.951385498046875	0.0092254638671875	5053.44261424128
0.94696044921875	0.0087860107421875	5053.48686424117
0.942535400390625	0.008355712890625	5053.53111424106
0.9381103515625	0.0079376220703125	5053.57536424095
0.933685302734375	0.0075286865234375	5053.61961424084
0.92926025390625	0.0071258544921875	5053.66386424073
0.924835205078125	0.006732177734375	5053.70811424061
0.92041015625	0.0063446044921875	5053.7523642405
0.915985107421875	0.00596923828125	5053.79661424039
0.91156005859375	0.005596923828125	5053.84086424028
0.907135009765625	0.0052337646484375	5053.88511424017
0.9027099609375	0.00487701416015625	5053.92936424006
0.898284912109375	0.00452789306640625	5053.97361423994
0.89385986328125	0.0041845703125	5054.01786423983
0.889434814453125	0.00384735107421875	5054.06211423972
0.885009765625	0.00351593017578125	5054.10636423961
0.880584716796875	0.00319427490234375	5054.1506142395
0.87615966796875	0.00287322998046875	5054.19486423938
0.871734619140625	0.00255828857421875	5054.23911423927
0.8673095703125	0.00224884033203125	5054.28336423916
0.862884521484375	0.00194488525390625	5054.32761423905
0.85845947265625	0.00164642333984375	5054.37186423894
0.854034423828125	0.00135223388671875	5054.41611423883
0.849609375	0.0010626220703125	5054.46036423871
0.845184326171875	0.00077789306640625	5054.5046142386
0.84075927734375	0.0004974365234375	5054.54886423849
0.836334228515625	0.00022198486328125	5054.59311423838
0.8319091796875	-4.9072265625E-05	5054.63736423827
0.827484130859375	-0.0003157958984375	5054.68161423816
0.82305908203125	-0.00057861328125	5054.72586423804
0.818634033203125	-0.0008367919921875	5054.77011423793
0.814208984375	-0.00109100341796875	5054.81436423782
0.809783935546875	-0.00134124755859375	5054.85861423771
0.80535888671875	-0.00158721923828125	5054.9028642376
0.800933837890625	-0.001829833984375	5054.94711423749
0.7965087890625	-0.00206817626953125	5054.99136423737
0.792083740234375	-0.002303466796875	5055.03561423726
0.78765869140625	-0.0025341796875	5055.07986423715
0.783233642578125	-0.00276153564453125	5055.12411423704
0.77880859375	-0.00298492431640625	5055.16836423693
0.774383544921875	-0.00320556640625	5055.21261423682
0.76995849609375	-0.00342254638671875	5055.2568642367
0.765533447265625	-0.00363555908203125	5055.30111423659
0.7611083984375	-0.00384552001953125	5055.34536423648
0.756683349609375	-0.00405181884765625	5055.38961423637
0.75225830078125	-0.00425537109375	5055.43386423626
0.747833251953125	-0.00445526123046875	5055.47811423614
0.743408203125	-0.00465240478515625	5055.52236423603
0.738983154296875	-0.0048443603515625	5055.56661423592
0.73455810546875	-0.00503509521484375	5055.61086423581
0.730133056640625	-0.0052227783203125	5055.6551142357
0.7257080078125	-0.005406494140625	5055.69936423559
0.721282958984375	-0.0055877685546875	5055.74361423547
0.71685791015625	-0.00576690673828125	5055.78786423536
0.712432861328125	-0.0059417724609375	5055.83211423525
0.7080078125	-0.006114501953125	5055.87636423514
0.703582763671875	-0.00626220703125	5055.92061423503
0.69915771484375	-0.006427001953125	5055.96486423492
0.694732666015625	-0.006591796875	5056.0091142348
0.6903076171875	-0.0067535400390625	5056.05336423469
0.685882568359375	-0.0069122314453125	5056.09761423458
0.68145751953125	-0.00706787109375	5056.14186423447
0.677032470703125	-0.0072235107421875	5056.18611423436
0.672607421875	-0.007373046875	5056.23036423425
0.668182373046875	-0.00751953125	5056.27461423413
0.66375732421875	-0.007666015625	5056.31886423402
0.659332275390625	-0.0078094482421875	5056.36311423391
0.6549072265625	-0.0079498291015625	5056.4073642338
0.650482177734375	-0.008087158203125	5056.45161423369
0.64605712890625	-0.0082244873046875	5056.49586423358
0.641632080078125	-0.008355712890625	5056.54011423346
0.63720703125	-0.0084869384765625	5056.58436423335
0.632781982421875	-0.0086151123046875	5056.62861423324
0.62835693359375	-0.0087432861328125	5056.67286423313
0.623931884765625	-0.00887451171875	5056.71711423302
0.6195068359375	-0.00899658203125	5056.76136423291
0.615081787109375	-0.00911865234375	5056.80561423279
0.61065673828125	-0.0092376708984375	5056.84986423268
0.606231689453125	-0.0093536376953125	5056.89411423257
0.601806640625	-0.009466552734375	5056.93836423246
0.597381591796875	-0.0095794677734375	5056.98261423235
0.59295654296875	-0.0096893310546875	5057.02686423223
0.588531494140625	-0.0097991943359375	5057.07111423212
0.5841064453125	-0.009906005859375	5057.11536423201
0.579681396484375	-0.0100128173828125	5057.1596142319
0.57525634765625	-0.010113525390625	5057.20386423179
0.570831298828125	-0.0102142333984375	5057.24811423168
0.56640625	-0.0103179931640625	5057.29236423156
0.561981201171875	-0.0104156494140625	5057.33661423145
0.55755615234375	-0.0105133056640625	5057.38086423134
0.553131103515625	-0.01060791015625	5057.42511423123
0.5487060546875	-0.0107025146484375	5057.46936423112
0.544281005859375	-0.0107940673828125	5057.51361423101
0.53985595703125	-0.0108856201171875	5057.55786423089
0.535430908203125	-0.010968017578125	5057.60211423078
0.531005859375	-0.0110565185546875	5057.64636423067
0.526580810546875	-0.0111419677734375	5057.69061423056
0.52215576171875	-0.0112274169921875	5057.73486423045
0.517730712890625	-0.0113128662109375	5057.77911423033
0.5133056640625	-0.011395263671875	5057.82336423022
0.508880615234375	-0.0114776611328125	5057.86761423011
0.50445556640625	-0.011553955078125	5057.91186423
0.500030517578125	-0.01163330078125	5057.95611422989
0.49560546875	-0.011712646484375	5058.00036422978
0.491180419921875	-0.011785888671875	5058.04461422967
0.48675537109375	-0.0118621826171875	5058.08886422955
0.482330322265625	-0.0119354248046875	5058.13311422944
0.4779052734375	-0.012005615234375	5058.17736422933
0.473480224609375	-0.012078857421875	5058.22161422922
0.46905517578125	-0.0121490478515625	5058.26586422911
0.464630126953125	-0.01221923828125	5058.31011422899
0.460205078125	-0.012286376953125	5058.35436422888
0.455780029296875	-0.0123565673828125	5058.39861422877
0.45135498046875	-0.012420654296875	5058.44286422866
0.446929931640625	-0.01248779296875	5058.48711422855
0.4425048828125	-0.0125518798828125	5058.53136422844
0.438079833984375	-0.0126129150390625	5058.57561422832
0.43365478515625	-0.012677001953125	5058.61986422821
0.429229736328125	-0.0127410888671875	5058.6641142281
0.4248046875	-0.0128021240234375	5058.70836422799
0.420379638671875	-0.0128631591796875	5058.75261422788
0.41595458984375	-0.0129241943359375	5058.79686422777
0.411529541015625	-0.012982177734375	5058.84111422765
0.4071044921875	-0.013043212890625	5058.88536422754
0.402679443359375	-0.0131011962890625	5058.92961422743
0.39825439453125	-0.0131591796875	5058.97386422732
0.393829345703125	-0.0132171630859375	5059.01811422721
0.389404296875	-0.0132720947265625	5059.0623642271
0.384979248046875	-0.013330078125	5059.10661422698
0.38055419921875	-0.013385009765625	5059.15086422687
0.376129150390625	-0.01343994140625	5059.19511422676
0.3717041015625	-0.013494873046875	5059.23936422665
0.367279052734375	-0.0135467529296875	5059.28361422654
0.36285400390625	-0.0136016845703125	5059.32786422642
0.358428955078125	-0.0136566162109375	5059.37211422631
0.35400390625	-0.01370849609375	5059.4163642262
0.349578857421875	-0.0137603759765625	5059.46061422609
0.34515380859375	-0.013812255859375	5059.50486422598
0.340728759765625	-0.0138641357421875	5059.54911422587
0.3363037109375	-0.013916015625	5059.59336422576
0.331878662109375	-0.01396484375	5059.63761422564
0.32745361328125	-0.0140167236328125	5059.68186422553
0.323028564453125	-0.0140655517578125	5059.72611422542
0.318603515625	-0.014111328125	5059.77036422531
0.314178466796875	-0.01416015625	5059.8146142252
0.30975341796875	-0.0142120361328125	5059.85886422508
0.305328369140625	-0.0142608642578125	5059.90311422497
0.3009033203125	-0.0143096923828125	5059.94736422486
0.296478271484375	-0.0143585205078125	5059.99161422475
0.29205322265625	-0.0144073486328125	5060.03586422464
0.287628173828125	-0.014453125	5060.08011422453
0.283203125	-0.014501953125	5060.12436422441
0.278778076171875	-0.0145477294921875	5060.1686142243
0.27435302734375	-0.014593505859375	5060.21286422419
0.269927978515625	-0.0146392822265625	5060.25711422408
0.2655029296875	-0.0146820068359375	5060.30136422397
0.261077880859375	-0.0147308349609375	5060.34561422386
0.25665283203125	-0.0147735595703125	5060.38986422374
0.252227783203125	-0.0148193359375	5060.43411422363
0.247802734375	-0.014862060546875	5060.47836422352
0.243377685546875	-0.01490478515625	5060.52261422341
0.23895263671875	-0.014947509765625	5060.5668642233
0.234527587890625	-0.0149932861328125	5060.61111422318
0.2301025390625	-0.0150360107421875	5060.65536422307
0.225677490234375	-0.01507568359375	5060.69961422296
0.22125244140625	-0.015118408203125	5060.74386422285
0.216827392578125	-0.0151580810546875	5060.78811422274
0.21240234375	-0.0152008056640625	5060.83236422263
0.207977294921875	-0.015240478515625	5060.87661422251
0.20355224609375	-0.0152801513671875	5060.9208642224
0.199127197265625	-0.01531982421875	5060.96511422229
0.1947021484375	-0.0153594970703125	5061.00936422218
0.190277099609375	-0.015399169921875	5061.05361422207
0.18585205078125	-0.0154388427734375	5061.09786422196
0.181427001953125	-0.0154754638671875	5061.14211422184
0.177001953125	-0.01551513671875	5061.18636422173
0.172576904296875	-0.0155517578125	5061.23061422162
0.16815185546875	-0.01558837890625	5061.27486422151
0.163726806640625	-0.0156219482421875	5061.3191142214
0.1593017578125	-0.0156585693359375	5061.36336422129
0.154876708984375	-0.015692138671875	5061.40761422117
0.15045166015625	-0.015728759765625	5061.45186422106
0.146026611328125	-0.0157623291015625	5061.49611422095
0.1416015625	-0.0157958984375	5061.54036422084
0.137176513671875	-0.01583251953125	5061.58461422073
0.13275146484375	-0.0158660888671875	5061.62886422062
0.128326416015625	-0.0159027099609375	5061.6731142205
0.1239013671875	-0.015936279296875	5061.71736422039
0.119476318359375	-0.0159698486328125	5061.76161422028
0.11505126953125	-0.0160003662109375	5061.80586422017
0.110626220703125	-0.016033935546875	5061.85011422006
0.106201171875	-0.0160675048828125	5061.89436421995
0.101776123046875	-0.0160980224609375	5061.93861421983
0.09735107421875	-0.0161285400390625	5061.98286421972
0.092926025390625	-0.0161590576171875	5062.02711421961
0.0885009765625	-0.016192626953125	5062.0713642195
0.084075927734375	-0.01622314453125	5062.11561421939
0.07965087890625	-0.016253662109375	5062.15986421927
0.075225830078125	-0.0162841796875	5062.20411421916
0.07080078125	-0.016314697265625	5062.24836421905
0.066375732421875	-0.0163482666015625	5062.29261421894
0.06195068359375	-0.0163787841796875	5062.33686421883
0.057525634765625	-0.01640625	5062.38111421872
0.0531005859375	-0.016436767578125	5062.4253642186
0.048675537109375	-0.0164642333984375	5062.46961421849
0.04425048828125	-0.0164947509765625	5062.51386421838
0.039825439453125	-0.016522216796875	5062.55811421827
0.035400390625	-0.016552734375	5062.60236421816
0.030975341796875	-0.016583251953125	5062.64661421805
0.02655029296875	-0.01661376953125	5062.69086421793
0.022125244140625	-0.016644287109375	5062.73511421782
0.0177001953125	-0.0166717529296875	5062.77936421771
0.013275146484375	-0.0167022705078125	5062.8236142176
0.00885009765625	-0.016729736328125	5062.86786421749
0.004425048828125	-0.0167572021484375	5062.91211421738
0	-0.0167877197265625	5062.95636421726
0.004425048828125	-0.0161468505859375	5063.00061421715
0.00885009765625	-0.0155364990234375	5063.04486421704
0.013275146484375	-0.0149444580078125	5063.08911421693
0.0177001953125	-0.014373779296875	5063.13336421682
0.022125244140625	-0.013818359375	5063.17761421671
0.02655029296875	-0.0132781982421875	5063.22186421659
0.030975341796875	-0.0127532958984375	5063.26611421648
0.035400390625	-0.0122406005859375	5063.31036421637
0.039825439453125	-0.011737060546875	5063.35461421626
0.04425048828125	-0.011248779296875	5063.39886421615
0.048675537109375	-0.010772705078125	5063.44311421603
0.0531005859375	-0.0103057861328125	5063.48736421592
0.057525634765625	-0.0098480224609375	5063.53161421581
0.06195068359375	-0.0093994140625	5063.5758642157
0.066375732421875	-0.0089630126953125	5063.62011421559
0.07080078125	-0.00853271484375	5063.66436421548
0.075225830078125	-0.008111572265625	5063.70861421536
0.07965087890625	-0.00770263671875	5063.75286421525
0.084075927734375	-0.0072998046875	5063.79711421514
0.0885009765625	-0.006903076171875	5063.84136421503
0.092926025390625	-0.006512451171875	5063.88561421492
0.09735107421875	-0.006134033203125	5063.92986421481
0.101776123046875	-0.0057586669921875	5063.97411421469
0.106201171875	-0.0053924560546875	5064.01836421458
0.110626220703125	-0.0050323486328125	5064.06261421447
0.11505126953125	-0.0046820068359375	5064.10686421436
0.119476318359375	-0.004337158203125	5064.15111421425
0.1239013671875	-0.00399688720703125	5064.19536421414
0.128326416015625	-0.003663330078125	5064.23961421402
0.13275146484375	-0.0033355712890625	5064.28386421391
0.137176513671875	-0.00302520751953125	5064.3281142138
0.1416015625	-0.00270843505859375	5064.37236421369
0.146026611328125	-0.0023974609375	5064.41661421358
0.15045166015625	-0.00209197998046875	5064.46086421347
0.154876708984375	-0.0017913818359375	5064.50511421335
0.1593017578125	-0.0014971923828125	5064.54936421324
0.163726806640625	-0.001207275390625	5064.59361421313
0.16815185546875	-0.0009228515625	5064.63786421302
0.172576904296875	-0.0006427001953125	5064.68211421291
0.177001953125	-0.000368133544921875	5064.7263642128
0.181427001953125	-9.771728515625E-05	5064.77061421268
0.18585205078125	0.000167510986328125	5064.81486421257
0.190277099609375	0.0004287109375	5064.85911421246
0.1947021484375	0.0006854248046875	5064.90336421235
0.199127197265625	0.00093780517578125	5064.94761421224
0.20355224609375	0.0011859130859375	5064.99186421212
0.207977294921875	0.00142974853515625	5065.03611421201
0.21240234375	0.0016693115234375	5065.0803642119
0.216827392578125	0.00190521240234375	5065.12461421179
0.22125244140625	0.0021368408203125	5065.16886421168
0.225677490234375	0.0023638916015625	5065.21311421157
0.2301025390625	0.00258819580078125	5065.25736421145
0.234527587890625	0.0028082275390625	5065.30161421134
0.23895263671875	0.00302459716796875	5065.34586421123
0.243377685546875	0.00323822021484375	5065.39011421112
0.247802734375	0.003447265625	5065.43436421101
0.252227783203125	0.00365325927734375	5065.4786142109
0.25665283203125	0.003856201171875	5065.52286421078
0.261077880859375	0.0040557861328125	5065.56711421067
0.2655029296875	0.00425140380859375	5065.61136421056
0.269927978515625	0.004444580078125	5065.65561421045
0.27435302734375	0.0046337890625	5065.69986421034
0.278778076171875	0.00482086181640625	5065.74411421023
0.283203125	0.00500396728515625	5065.78836421011
0.287628173828125	0.00518463134765625	5065.83261421
0.29205322265625	0.005362548828125	5065.87686420989
0.296478271484375	0.0055377197265625	5065.92111420978
0.3009033203125	0.00571044921875	5065.96536420967
0.305328369140625	0.0058795166015625	5066.00961420956
0.30975341796875	0.00604644775390625	5066.05386420944
0.314178466796875	0.0062042236328125	5066.09811420933
0.318603515625	0.0063629150390625	5066.14236420922
0.323028564453125	0.0065216064453125	5066.18661420911
0.32745361328125	0.0066802978515625	5066.230864209
0.331878662109375	0.0068328857421875	5066.27511420888
0.3363037109375	0.006982421875	5066.31936420877
0.340728759765625	0.00712890625	5066.36361420866
0.34515380859375	0.0072784423828125	5066.40786420855
0.349578857421875	0.007421875	5066.45211420844
0.35400390625	0.007562255859375	5066.49636420833
0.358428955078125	0.00770263671875	5066.54061420821
0.36285400390625	0.0078338623046875	5066.5848642081
0.367279052734375	0.00797119140625	5066.62911420799
0.3717041015625	0.0081024169921875	5066.67336420788
0.376129150390625	0.0082366943359375	5066.71761420777
0.38055419921875	0.0083648681640625	5066.76186420766
0.384979248046875	0.0084930419921875	5066.80611420754
0.389404296875	0.0086151123046875	5066.85036420743
0.393829345703125	0.008740234375	5066.89461420732
0.39825439453125	0.0088623046875	5066.93886420721
0.402679443359375	0.0089813232421875	5066.9831142071
0.4071044921875	0.009100341796875	5067.02736420699
0.411529541015625	0.0092193603515625	5067.07161420687
0.41595458984375	0.0093353271484375	5067.11586420676
0.420379638671875	0.0094451904296875	5067.16011420665
0.4248046875	0.0095550537109375	5067.20436420654
0.429229736328125	0.00966796875	5067.24861420643
0.43365478515625	0.0097747802734375	5067.29286420632
0.438079833984375	0.0098846435546875	5067.3371142062
0.4425048828125	0.009991455078125	5067.38136420609
0.446929931640625	0.01009521484375	5067.42561420598
0.45135498046875	0.010198974609375	5067.46986420587
0.455780029296875	0.010302734375	5067.51411420576
0.460205078125	0.0104034423828125	5067.55836420565
0.464630126953125	0.0105010986328125	5067.60261420553
0.46905517578125	0.0105987548828125	5067.64686420542
0.473480224609375	0.0106964111328125	5067.69111420531
0.4779052734375	0.010791015625	5067.7353642052
0.482330322265625	0.0108856201171875	5067.77961420509
0.48675537109375	0.0109771728515625	5067.82386420497
0.491180419921875	0.01107177734375	5067.86811420486
0.49560546875	0.011163330078125	5067.91236420475
0.500030517578125	0.0112518310546875	5067.95661420464
0.50445556640625	0.01134033203125	5068.00086420453
0.508880615234375	0.0114288330078125	5068.04511420442
0.5133056640625	0.0115142822265625	5068.0893642043
0.517730712890625	0.0115966796875	5068.13361420419
0.52215576171875	0.01168212890625	5068.17786420408
0.526580810546875	0.0117645263671875	5068.22211420397
0.531005859375	0.0118438720703125	5068.26636420386
0.535430908203125	0.01192626953125	5068.31061420375
0.53985595703125	0.012005615234375	5068.35486420363
0.544281005859375	0.0120880126953125	5068.39911420352
0.5487060546875	0.0121612548828125	5068.44336420341
0.553131103515625	0.0122406005859375	5068.4876142033
0.55755615234375	0.01231689453125	5068.53186420319
0.561981201171875	0.01239013671875	5068.57611420308
0.56640625	0.0124664306640625	5068.62036420296
0.570831298828125	0.01253662109375	5068.66461420285
0.57525634765625	0.01260986328125	5068.70886420274
0.579681396484375	0.0126800537109375	5068.75311420263
0.5841064453125	0.012750244140625	5068.79736420252
0.588531494140625	0.0128173828125	5068.84161420241
0.59295654296875	0.0128875732421875	5068.88586420229
0.597381591796875	0.0129547119140625	5068.93011420218
0.601806640625	0.0130218505859375	5068.97436420207
0.606231689453125	0.0130889892578125	5069.01861420196
0.61065673828125	0.013153076171875	5069.06286420185
0.615081787109375	0.0132171630859375	5069.10711420173
0.6195068359375	0.0132781982421875	5069.15136420162
0.623931884765625	0.0133392333984375	5069.19561420151
0.62835693359375	0.0134063720703125	5069.2398642014
0.632781982421875	0.0134674072265625	5069.28411420129
0.63720703125	0.0135284423828125	5069.32836420118
0.641632080078125	0.01358642578125	5069.37261420106
0.64605712890625	0.013641357421875	5069.41686420095
0.650482177734375	0.0136993408203125	5069.46111420084
0.6549072265625	0.01375732421875	5069.50536420073
0.659332275390625	0.0138092041015625	5069.54961420062
0.66375732421875	0.0138641357421875	5069.59386420051
0.668182373046875	0.013916015625	5069.63811420039
0.672607421875	0.013970947265625	5069.68236420028
0.677032470703125	0.0140228271484375	5069.72661420017
0.68145751953125	0.014068603515625	5069.77086420006
0.685882568359375	0.014117431640625	5069.81511419995
0.6903076171875	0.014166259765625	5069.85936419984
0.694732666015625	0.0142120361328125	5069.90361419972
0.69915771484375	0.0142608642578125	5069.94786419961
0.703582763671875	0.0143035888671875	5069.9921141995
0.7080078125	0.014349365234375	5070.03636419939
0.712432861328125	0.0143951416015625	5070.08061419928
0.71685791015625	0.014434814453125	5070.12486419917
0.721282958984375	0.0144775390625	5070.16911419905
0.7257080078125	0.014520263671875	5070.21336419894
0.730133056640625	0.0145599365234375	5070.25761419883
0.73455810546875	0.014599609375	5070.30186419872
0.738983154296875	0.0146392822265625	5070.34611419861
0.743408203125	0.0146759033203125	5070.3903641985
0.747833251953125	0.0147125244140625	5070.43461419838
0.75225830078125	0.0147491455078125	5070.47886419827
0.756683349609375	0.0147857666015625	5070.52311419816
0.7611083984375	0.0148193359375	5070.56736419805
0.765533447265625	0.0148529052734375	5070.61161419794
0.76995849609375	0.014886474609375	5070.65586419782
0.774383544921875	0.0149169921875	5070.70011419771
0.77880859375	0.0149505615234375	5070.7443641976
0.783233642578125	0.0149810791015625	5070.78861419749
0.78765869140625	0.015008544921875	5070.83286419738
0.792083740234375	0.0150421142578125	5070.87711419727
0.7965087890625	0.0150726318359375	5070.92136419715
0.800933837890625	0.01510009765625	5070.96561419704
0.80535888671875	0.0151275634765625	5071.00986419693
0.809783935546875	0.015155029296875	5071.05411419682
0.814208984375	0.0151824951171875	5071.09836419671
0.818634033203125	0.0152099609375	5071.1426141966
0.82305908203125	0.015234375	5071.18686419648
0.827484130859375	0.0152587890625	5071.23111419637
0.8319091796875	0.0152862548828125	5071.27536419626
0.836334228515625	0.0153106689453125	5071.31961419615
0.84075927734375	0.0153350830078125	5071.36386419604
0.845184326171875	0.015362548828125	5071.40811419593
0.849609375	0.015386962890625	5071.45236419581
0.854034423828125	0.0154083251953125	5071.4966141957
0.85845947265625	0.0154327392578125	5071.54086419559
0.862884521484375	0.0154541015625	5071.58511419548
0.8673095703125	0.015478515625	5071.62936419537
0.871734619140625	0.0154998779296875	5071.67361419526
0.87615966796875	0.0155242919921875	5071.71786419514
0.880584716796875	0.015545654296875	5071.76211419503
0.885009765625	0.015570068359375	5071.80636419492
0.889434814453125	0.015594482421875	5071.85061419481
0.89385986328125	0.0156158447265625	5071.8948641947
0.898284912109375	0.01563720703125	5071.93911419458
0.9027099609375	0.01566162109375	5071.98336419447
0.907135009765625	0.0156829833984375	5072.02761419436
0.91156005859375	0.0157073974609375	5072.07186419425
0.915985107421875	0.0157318115234375	5072.11611419414
0.92041015625	0.0157562255859375	5072.16036419403
0.924835205078125	0.0157806396484375	5072.20461419391
0.92926025390625	0.0158050537109375	5072.2488641938
0.933685302734375	0.0158294677734375	5072.29311419369
0.9381103515625	0.01585693359375	5072.33736419358
0.942535400390625	0.0158843994140625	5072.38161419347
0.94696044921875	0.015911865234375	5072.42586419336
0.951385498046875	0.0159393310546875	5072.47011419324
0.955810546875	0.015966796875	5072.51436419313
0.960235595703125	0.015997314453125	5072.55861419302
0.96466064453125	0.0160247802734375	5072.60286419291
0.969085693359375	0.016058349609375	5072.6471141928
0.9735107421875	0.0160888671875	5072.69136419269
0.977935791015625	0.0161163330078125	5072.73561419257
0.98236083984375	0.01614990234375	5072.77986419246
0.986785888671875	0.0161834716796875	5072.82411419235
0.9912109375	0.016217041015625	5072.86836419224
0.995635986328125	0.016253662109375	5072.91261419213
1.00006103515625	0.0162933349609375	5072.95686419202
0.995635986328125	0.0156494140625	5073.0011141919
0.9912109375	0.015045166015625	5073.04536419179
0.986785888671875	0.014459228515625	5073.08961419168
0.98236083984375	0.013897705078125	5073.13386419157
0.977935791015625	0.013348388671875	5073.17811419146
0.9735107421875	0.0128204345703125	5073.22236419135
0.969085693359375	0.0123046875	5073.26661419123
0.96466064453125	0.0118011474609375	5073.31086419112
0.960235595703125	0.0113128662109375	5073.35511419101
0.955810546875	0.01083984375	5073.3993641909
0.951385498046875	0.0103729248046875	5073.44361419079
0.94696044921875	0.009918212890625	5073.48786419067
0.942535400390625	0.00947265625	5073.53211419056
0.9381103515625	0.009039306640625	5073.57636419045
0.933685302734375	0.0086090087890625	5073.62061419034
0.92926025390625	0.0081939697265625	5073.66486419023
0.924835205078125	0.0077880859375	5073.70911419012
0.92041015625	0.0073883056640625	5073.75336419
0.915985107421875	0.00699462890625	5073.79761418989
0.91156005859375	0.006610107421875	5073.84186418978
0.907135009765625	0.0062347412109375	5073.88611418967
0.9027099609375	0.0058624267578125	5073.93036418956
0.898284912109375	0.005499267578125	5073.97461418945
0.89385986328125	0.0051422119140625	5074.01886418933
0.889434814453125	0.0047930908203125	5074.06311418922
0.885009765625	0.004449462890625	5074.10736418911
0.880584716796875	0.0041119384765625	5074.151614189
0.87615966796875	0.00378021240234375	5074.19586418889
0.871734619140625	0.00345458984375	5074.24011418877
0.8673095703125	0.0031378173828125	5074.28436418866
0.862884521484375	0.00282135009765625	5074.32861418855
0.85845947265625	0.00251220703125	5074.37286418844
0.854034423828125	0.00220703125	5074.41711418833
0.849609375	0.00190673828125	5074.46136418822
0.845184326171875	0.00161224365234375	5074.50561418811
0.84075927734375	0.001322021484375	5074.54986418799
0.836334228515625	0.00103668212890625	5074.59411418788
0.8319091796875	0.00075592041015625	5074.63836418777
0.827484130859375	0.000479461669921875	5074.68261418766
0.82305908203125	0.00020751953125	5074.72686418755
0.818634033203125	-5.9661865234375E-05	5074.77111418743
0.814208984375	-0.000322998046875	5074.81536418732
0.809783935546875	-0.00058197021484375	5074.85961418721
0.80535888671875	-0.00083709716796875	5074.9038641871
0.800933837890625	-0.00108795166015625	5074.94811418699
0.7965087890625	-0.0013348388671875	5074.99236418688
0.792083740234375	-0.0015777587890625	5075.03661418676
0.78765869140625	-0.00181640625	5075.08086418665
0.783233642578125	-0.002052001953125	5075.12511418654
0.77880859375	-0.00228363037109375	5075.16936418643
0.774383544921875	-0.00251129150390625	5075.21361418632
0.76995849609375	-0.002735595703125	5075.25786418621
0.765533447265625	-0.00295654296875	5075.30211418609
0.7611083984375	-0.003173828125	5075.34636418598
0.756683349609375	-0.003387451171875	5075.39061418587
0.75225830078125	-0.003597412109375	5075.43486418576
0.747833251953125	-0.003804931640625	5075.47911418565
0.743408203125	-0.0040081787109375	5075.52336418554
0.738983154296875	-0.00420684814453125	5075.56761418542
0.73455810546875	-0.004404296875	5075.61186418531
0.730133056640625	-0.004598388671875	5075.6561141852
0.7257080078125	-0.0047894287109375	5075.70036418509
0.721282958984375	-0.00497711181640625	5075.74461418498
0.71685791015625	-0.005162353515625	5075.78886418486
0.712432861328125	-0.00534393310546875	5075.83311418475
0.7080078125	-0.0055224609375	5075.87736418464
0.703582763671875	-0.0056982421875	5075.92161418453
0.69915771484375	-0.00586944580078125	5075.96586418442
0.694732666015625	-0.00603973388671875	5076.01011418431
0.6903076171875	-0.0061859130859375	5076.0543641842
0.685882568359375	-0.0063507080078125	5076.09861418408
0.68145751953125	-0.006512451171875	5076.14286418397
0.677032470703125	-0.006671142578125	5076.18711418386
0.672607421875	-0.0068267822265625	5076.23136418375
0.668182373046875	-0.0069793701171875	5076.27561418364
0.66375732421875	-0.0071319580078125	5076.31986418352
0.659332275390625	-0.0072784423828125	5076.36411418341
0.6549072265625	-0.0074249267578125	5076.4083641833
0.650482177734375	-0.007568359375	5076.45261418319
0.64605712890625	-0.007708740234375	5076.49686418308
0.641632080078125	-0.0078460693359375	5076.54111418297
0.63720703125	-0.0079833984375	5076.58536418285
0.632781982421875	-0.00811767578125	5076.62961418274
0.62835693359375	-0.0082489013671875	5076.67386418263
0.623931884765625	-0.0083831787109375	5076.71811418252
0.6195068359375	-0.0085113525390625	5076.76236418241
0.615081787109375	-0.008636474609375	5076.8066141823
0.61065673828125	-0.008758544921875	5076.85086418218
0.606231689453125	-0.008880615234375	5076.89511418207
0.601806640625	-0.0089996337890625	5076.93936418196
0.597381591796875	-0.0091156005859375	5076.98361418185
0.59295654296875	-0.0092315673828125	5077.02786418174
0.588531494140625	-0.009344482421875	5077.07211418162
0.5841064453125	-0.009454345703125	5077.11636418151
0.579681396484375	-0.0095611572265625	5077.1606141814
0.57525634765625	-0.0096710205078125	5077.20486418129
0.570831298828125	-0.0097747802734375	5077.24911418118
0.56640625	-0.009881591796875	5077.29336418107
0.561981201171875	-0.0099853515625	5077.33761418095
0.55755615234375	-0.0100860595703125	5077.38186418084
0.553131103515625	-0.010186767578125	5077.42611418073
0.5487060546875	-0.010284423828125	5077.47036418062
0.544281005859375	-0.0103790283203125	5077.51461418051
0.53985595703125	-0.0104736328125	5077.5588641804
0.535430908203125	-0.0105682373046875	5077.60311418028
0.531005859375	-0.010662841796875	5077.64736418017
0.526580810546875	-0.0107513427734375	5077.69161418006
0.52215576171875	-0.0108428955078125	5077.73586417995
0.517730712890625	-0.0109283447265625	5077.78011417984
0.5133056640625	-0.0110107421875	5077.82436417973
0.508880615234375	-0.01109619140625	5077.86861417961
0.50445556640625	-0.0111785888671875	5077.9128641795
0.500030517578125	-0.011260986328125	5077.95711417939
0.49560546875	-0.0113433837890625	5078.00136417928
0.491180419921875	-0.01142578125	5078.04561417917
0.48675537109375	-0.0115020751953125	5078.08986417906
0.482330322265625	-0.0115814208984375	5078.13411417894
0.4779052734375	-0.01165771484375	5078.17836417883
0.473480224609375	-0.01173095703125	5078.22261417872
0.46905517578125	-0.01180419921875	5078.26686417861
0.464630126953125	-0.01187744140625	5078.3111141785
0.460205078125	-0.01195068359375	5078.35536417839
0.455780029296875	-0.01202392578125	5078.39961417827
0.45135498046875	-0.0120941162109375	5078.44386417816
0.446929931640625	-0.0121612548828125	5078.48811417805
0.4425048828125	-0.0122314453125	5078.53236417794
0.438079833984375	-0.012298583984375	5078.57661417783
0.43365478515625	-0.01236572265625	5078.62086417771
0.429229736328125	-0.012432861328125	5078.6651141776
0.4248046875	-0.0124969482421875	5078.70936417749
0.420379638671875	-0.0125579833984375	5078.75361417738
0.41595458984375	-0.0126220703125	5078.79786417727
0.411529541015625	-0.0126861572265625	5078.84211417716
0.4071044921875	-0.0127471923828125	5078.88636417704
0.402679443359375	-0.012811279296875	5078.93061417693
0.39825439453125	-0.012872314453125	5078.97486417682
0.393829345703125	-0.012933349609375	5079.01911417671
0.389404296875	-0.0129913330078125	5079.0633641766
0.384979248046875	-0.01304931640625	5079.10761417649
0.38055419921875	-0.0131103515625	5079.15186417637
0.376129150390625	-0.0131683349609375	5079.19611417626
0.3717041015625	-0.013226318359375	5079.24036417615
0.367279052734375	-0.01328125	5079.28461417604
0.36285400390625	-0.013336181640625	5079.32886417593
0.358428955078125	-0.01339111328125	5079.37311417582
0.35400390625	-0.0134490966796875	5079.4173641757
0.349578857421875	-0.0135009765625	5079.46161417559
0.34515380859375	-0.0135589599609375	5079.50586417548
0.340728759765625	-0.01361083984375	5079.55011417537
0.3363037109375	-0.013665771484375	5079.59436417526
0.331878662109375	-0.0137176513671875	5079.63861417515
0.32745361328125	-0.0137725830078125	5079.68286417503
0.323028564453125	-0.013824462890625	5079.72711417492
0.318603515625	-0.0138763427734375	5079.77136417481
0.314178466796875	-0.01392822265625	5079.8156141747
0.30975341796875	-0.0139801025390625	5079.85986417459
0.305328369140625	-0.014031982421875	5079.90411417447
0.3009033203125	-0.014080810546875	5079.94836417436
0.296478271484375	-0.014129638671875	5079.99261417425
0.29205322265625	-0.014178466796875	5080.03686417414
0.287628173828125	-0.014227294921875	5080.08111417403
0.283203125	-0.014276123046875	5080.12536417392
0.278778076171875	-0.014324951171875	5080.1696141738
0.27435302734375	-0.014373779296875	5080.21386417369
0.269927978515625	-0.014422607421875	5080.25811417358
0.2655029296875	-0.0144683837890625	5080.30236417347
0.261077880859375	-0.01451416015625	5080.34661417336
0.25665283203125	-0.01456298828125	5080.39086417325
0.252227783203125	-0.014605712890625	5080.43511417313
0.247802734375	-0.014654541015625	5080.47936417302
0.243377685546875	-0.014697265625	5080.52361417291
0.23895263671875	-0.0147430419921875	5080.5678641728
0.234527587890625	-0.0147857666015625	5080.61211417269
0.2301025390625	-0.0148284912109375	5080.65636417258
0.225677490234375	-0.0148712158203125	5080.70061417246
0.22125244140625	-0.0149139404296875	5080.74486417235
0.216827392578125	-0.0149566650390625	5080.78911417224
0.21240234375	-0.014996337890625	5080.83336417213
0.207977294921875	-0.0150390625	5080.87761417202
0.20355224609375	-0.015081787109375	5080.92186417191
0.199127197265625	-0.0151214599609375	5080.96611417179
0.1947021484375	-0.0151611328125	5081.01036417168
0.190277099609375	-0.0152008056640625	5081.05461417157
0.18585205078125	-0.015240478515625	5081.09886417146
0.181427001953125	-0.0152801513671875	5081.14311417135
0.177001953125	-0.0153167724609375	5081.18736417124
0.172576904296875	-0.0153564453125	5081.23161417112
0.16815185546875	-0.01539306640625	5081.27586417101
0.163726806640625	-0.0154296875	5081.3201141709
0.1593017578125	-0.01546630859375	5081.36436417079
0.154876708984375	-0.0155029296875	5081.40861417068
0.15045166015625	-0.0155364990234375	5081.45286417056
0.146026611328125	-0.015570068359375	5081.49711417045
0.1416015625	-0.015606689453125	5081.54136417034
0.137176513671875	-0.01563720703125	5081.58561417023
0.13275146484375	-0.0156707763671875	5081.62986417012
0.128326416015625	-0.015704345703125	5081.67411417001
0.1239013671875	-0.0157379150390625	5081.71836416989
0.119476318359375	-0.0157684326171875	5081.76261416978
0.11505126953125	-0.015802001953125	5081.80686416967
0.110626220703125	-0.01583251953125	5081.85111416956
0.106201171875	-0.0158660888671875	5081.89536416945
0.101776123046875	-0.0158966064453125	5081.93961416934
0.09735107421875	-0.0159271240234375	5081.98386416922
0.092926025390625	-0.0159576416015625	5082.02811416911
0.0885009765625	-0.0159881591796875	5082.072364169
0.084075927734375	-0.0160186767578125	5082.11661416889
0.07965087890625	-0.0160491943359375	5082.16086416878
0.075225830078125	-0.0160797119140625	5082.20511416867
0.07080078125	-0.016107177734375	5082.24936416855
0.066375732421875	-0.0161376953125	5082.29361416844
0.06195068359375	-0.016168212890625	5082.33786416833
0.057525634765625	-0.0161956787109375	5082.38211416822
0.0531005859375	-0.0162261962890625	5082.42636416811
0.048675537109375	-0.016253662109375	5082.470614168
0.04425048828125	-0.0162811279296875	5082.51486416788
0.039825439453125	-0.0163116455078125	5082.55911416777
0.035400390625	-0.016339111328125	5082.60336416766
0.030975341796875	-0.01636962890625	5082.64761416755
0.02655029296875	-0.0163970947265625	5082.69186416744
0.022125244140625	-0.016424560546875	5082.73611416732
0.0177001953125	-0.0164520263671875	5082.78036416721
0.013275146484375	-0.0164794921875	5082.8246141671
0.00885009765625	-0.016510009765625	5082.86886416699
0.004425048828125	-0.0165374755859375	5082.91311416688
0	-0.01656494140625	5082.95736416677
0.004425048828125	-0.0159271240234375	5083.00161416665
0.00885009765625	-0.0153167724609375	5083.04586416654
0.013275146484375	-0.0147247314453125	5083.09011416643
0.0177001953125	-0.0141510009765625	5083.13436416632
0.022125244140625	-0.0135986328125	5083.17861416621
0.02655029296875	-0.0130584716796875	5083.2228641661
0.030975341796875	-0.0125335693359375	5083.26711416598
0.035400390625	-0.0120208740234375	5083.31136416587
0.039825439453125	-0.0115203857421875	5083.35561416576
0.04425048828125	-0.0110321044921875	5083.39986416565
0.048675537109375	-0.0105560302734375	5083.44411416554
0.0531005859375	-0.010089111328125	5083.48836416543
0.057525634765625	-0.00963134765625	5083.53261416531
0.06195068359375	-0.0091888427734375	5083.5768641652
0.066375732421875	-0.0087493896484375	5083.62111416509
0.07080078125	-0.0083221435546875	5083.66536416498
0.075225830078125	-0.0079010009765625	5083.70961416487
0.07965087890625	-0.0074951171875	5083.75386416476
0.084075927734375	-0.0070892333984375	5083.79811416464
0.0885009765625	-0.0066986083984375	5083.84236416453
0.092926025390625	-0.0063079833984375	5083.88661416442
0.09735107421875	-0.0059295654296875	5083.93086416431
0.101776123046875	-0.0055572509765625	5083.9751141642
0.106201171875	-0.005194091796875	5084.01936416409
0.110626220703125	-0.00483734130859375	5084.06361416397
0.11505126953125	-0.004486083984375	5084.10786416386
0.119476318359375	-0.00414276123046875	5084.15211416375
0.1239013671875	-0.00380462646484375	5084.19636416364
0.128326416015625	-0.00347259521484375	5084.24061416353
0.13275146484375	-0.0031585693359375	5084.28486416341
0.137176513671875	-0.0028375244140625	5084.3291141633
0.1416015625	-0.00252227783203125	5084.37336416319
0.146026611328125	-0.002213134765625	5084.41761416308
0.15045166015625	-0.0019097900390625	5084.46186416297
0.154876708984375	-0.001611328125	5084.50611416286
0.1593017578125	-0.0013189697265625	5084.55036416274
0.163726806640625	-0.001031494140625	5084.59461416263
0.16815185546875	-0.00074859619140625	5084.63886416252
0.172576904296875	-0.00047064208984375	5084.68311416241
0.177001953125	-0.000197723388671875	5084.7273641623
0.181427001953125	7.080078125E-05	5084.77161416219
0.18585205078125	0.000333740234375	5084.81586416207
0.190277099609375	0.00059326171875	5084.86011416196
0.1947021484375	0.00084808349609375	5084.90436416185
0.199127197265625	0.00109832763671875	5084.94861416174
0.20355224609375	0.00134490966796875	5084.99286416163
0.207977294921875	0.00158660888671875	5085.03711416152
0.21240234375	0.00182373046875	5085.0813641614
0.216827392578125	0.00205780029296875	5085.12561416129
0.22125244140625	0.00228759765625	5085.16986416118
0.225677490234375	0.0025128173828125	5085.21411416107
0.2301025390625	0.0027362060546875	5085.25836416096
0.234527587890625	0.00295379638671875	5085.30261416085
0.23895263671875	0.0031683349609375	5085.34686416073
0.243377685546875	0.00337921142578125	5085.39111416062
0.247802734375	0.0035870361328125	5085.43536416051
0.252227783203125	0.00379150390625	5085.4796141604
0.25665283203125	0.0039923095703125	5085.52386416029
0.261077880859375	0.0041900634765625	5085.56811416017
0.2655029296875	0.00438446044921875	5085.61236416006
0.269927978515625	0.00457550048828125	5085.65661415995
0.27435302734375	0.00476348876953125	5085.70086415984
0.278778076171875	0.00494873046875	5085.74511415973
0.283203125	0.00513031005859375	5085.78936415962
0.287628173828125	0.0053094482421875	5085.8336141595
0.29205322265625	0.0054852294921875	5085.87786415939
0.296478271484375	0.0056591796875	5085.92211415928
0.3009033203125	0.005830078125	5085.96636415917
0.305328369140625	0.0059979248046875	5086.01061415906
0.30975341796875	0.006163330078125	5086.05486415895
0.314178466796875	0.006317138671875	5086.09911415883
0.318603515625	0.0064788818359375	5086.14336415872
0.323028564453125	0.006634521484375	5086.18761415861
0.32745361328125	0.0067901611328125	5086.2318641585
0.331878662109375	0.006939697265625	5086.27611415839
0.3363037109375	0.0070892333984375	5086.32036415828
0.340728759765625	0.0072357177734375	5086.36461415816
0.34515380859375	0.0073822021484375	5086.40886415805
0.349578857421875	0.0075225830078125	5086.45311415794
0.35400390625	0.0076629638671875	5086.49736415783
0.358428955078125	0.00780029296875	5086.54161415772
0.36285400390625	0.0079315185546875	5086.58586415761
0.367279052734375	0.0080657958984375	5086.63011415749
0.3717041015625	0.0082000732421875	5086.67436415738
0.376129150390625	0.0083282470703125	5086.71861415727
0.38055419921875	0.0084564208984375	5086.76286415716
0.384979248046875	0.0085845947265625	5086.80711415705
0.389404296875	0.0087066650390625	5086.85136415694
0.393829345703125	0.0088287353515625	5086.89561415682
0.39825439453125	0.00894775390625	5086.93986415671
0.402679443359375	0.00906982421875	5086.9841141566
0.4071044921875	0.009185791015625	5087.02836415649
0.411529541015625	0.0093017578125	5087.07261415638
0.41595458984375	0.0094146728515625	5087.11686415626
0.420379638671875	0.0095245361328125	5087.16111415615
0.4248046875	0.0096343994140625	5087.20536415604
0.429229736328125	0.0097442626953125	5087.24961415593
0.43365478515625	0.0098541259765625	5087.29386415582
0.438079833984375	0.0099609375	5087.33811415571
0.4425048828125	0.010064697265625	5087.38236415559
0.446929931640625	0.01016845703125	5087.42661415548
0.45135498046875	0.010272216796875	5087.47086415537
0.455780029296875	0.0103729248046875	5087.51511415526
0.460205078125	0.0104705810546875	5087.55936415515
0.464630126953125	0.0105712890625	5087.60361415504
0.46905517578125	0.0106658935546875	5087.64786415492
0.473480224609375	0.0107635498046875	5087.69211415481
0.4779052734375	0.010858154296875	5087.7363641547
0.482330322265625	0.01094970703125	5087.78061415459
0.48675537109375	0.0110443115234375	5087.82486415448
0.491180419921875	0.0111328125	5087.86911415436
0.49560546875	0.0112213134765625	5087.91336415425
0.500030517578125	0.011309814453125	5087.95761415414
0.50445556640625	0.0113983154296875	5088.00186415403
0.508880615234375	0.0114837646484375	5088.04611415392
0.5133056640625	0.0115692138671875	5088.09036415381
0.517730712890625	0.011651611328125	5088.1346141537
0.52215576171875	0.0117340087890625	5088.17886415358
0.526580810546875	0.01181640625	5088.22311415347
0.531005859375	0.0118988037109375	5088.26736415336
0.535430908203125	0.011981201171875	5088.31161415325
0.53985595703125	0.0120574951171875	5088.35586415314
0.544281005859375	0.0121368408203125	5088.40011415302
0.5487060546875	0.012213134765625	5088.44436415291
0.553131103515625	0.0122894287109375	5088.4886141528
0.55755615234375	0.0123626708984375	5088.53286415269
0.561981201171875	0.01243896484375	5088.57711415258
0.56640625	0.0125091552734375	5088.62136415247
0.570831298828125	0.0125823974609375	5088.66561415235
0.57525634765625	0.0126556396484375	5088.70986415224
0.579681396484375	0.012725830078125	5088.75411415213
0.5841064453125	0.0127960205078125	5088.79836415202
0.588531494140625	0.0128631591796875	5088.84261415191
0.59295654296875	0.0129302978515625	5088.8868641518
0.597381591796875	0.0129974365234375	5088.93111415168
0.601806640625	0.0130645751953125	5088.97536415157
0.606231689453125	0.013128662109375	5089.01961415146
0.61065673828125	0.01319580078125	5089.06386415135
0.615081787109375	0.0132568359375	5089.10811415124
0.6195068359375	0.01331787109375	5089.15236415113
0.623931884765625	0.0133819580078125	5089.19661415101
0.62835693359375	0.013446044921875	5089.2408641509
0.632781982421875	0.0135040283203125	5089.28511415079
0.63720703125	0.0135650634765625	5089.32936415068
0.641632080078125	0.013623046875	5089.37361415057
0.64605712890625	0.0136810302734375	5089.41786415045
0.650482177734375	0.0137359619140625	5089.46211415034
0.6549072265625	0.0137908935546875	5089.50636415023
0.659332275390625	0.0138458251953125	5089.55061415012
0.66375732421875	0.013897705078125	5089.59486415001
0.668182373046875	0.0139495849609375	5089.6391141499
0.672607421875	0.01400146484375	5089.68336414979
0.677032470703125	0.01405029296875	5089.72761414967
0.68145751953125	0.01409912109375	5089.77186414956
0.685882568359375	0.01414794921875	5089.81611414945
0.6903076171875	0.0141937255859375	5089.86036414934
0.694732666015625	0.0142425537109375	5089.90461414923
0.69915771484375	0.014288330078125	5089.94886414911
0.703582763671875	0.0143341064453125	5089.993114149
0.7080078125	0.0143768310546875	5090.03736414889
0.712432861328125	0.0144195556640625	5090.08161414878
0.71685791015625	0.0144622802734375	5090.12586414867
0.721282958984375	0.0145050048828125	5090.17011414856
0.7257080078125	0.014544677734375	5090.21436414844
0.730133056640625	0.0145843505859375	5090.25861414833
0.73455810546875	0.0146240234375	5090.30286414822
0.738983154296875	0.0146636962890625	5090.34711414811
0.743408203125	0.014697265625	5090.391364148
0.747833251953125	0.01473388671875	5090.43561414789
0.75225830078125	0.0147705078125	5090.47986414777
0.756683349609375	0.0148040771484375	5090.52411414766
0.7611083984375	0.0148406982421875	5090.56836414755
0.765533447265625	0.0148712158203125	5090.61261414744
0.76995849609375	0.01490478515625	5090.65686414733
0.774383544921875	0.014935302734375	5090.70111414721
0.77880859375	0.0149688720703125	5090.7453641471
0.783233642578125	0.014996337890625	5090.78961414699
0.78765869140625	0.01502685546875	5090.83386414688
0.792083740234375	0.015057373046875	5090.87811414677
0.7965087890625	0.0150848388671875	5090.92236414666
0.800933837890625	0.0151123046875	5090.96661414654
0.80535888671875	0.0151397705078125	5091.01086414643
0.809783935546875	0.015167236328125	5091.05511414632
0.814208984375	0.0151947021484375	5091.09936414621
0.818634033203125	0.0152191162109375	5091.1436141461
0.82305908203125	0.01524658203125	5091.18786414599
0.827484130859375	0.01527099609375	5091.23211414587
0.8319091796875	0.01529541015625	5091.27636414576
0.836334228515625	0.01531982421875	5091.32061414565
0.84075927734375	0.01534423828125	5091.36486414554
0.845184326171875	0.01536865234375	5091.40911414543
0.849609375	0.01539306640625	5091.45336414532
0.854034423828125	0.0154144287109375	5091.4976141452
0.85845947265625	0.0154388427734375	5091.54186414509
0.862884521484375	0.015460205078125	5091.58611414498
0.8673095703125	0.015484619140625	5091.63036414487
0.871734619140625	0.0155059814453125	5091.67461414476
0.87615966796875	0.01552734375	5091.71886414465
0.880584716796875	0.0155517578125	5091.76311414453
0.885009765625	0.0155731201171875	5091.80736414442
0.889434814453125	0.0155975341796875	5091.85161414431
0.89385986328125	0.015618896484375	5091.8958641442
0.898284912109375	0.0156402587890625	5091.94011414409
0.9027099609375	0.0156646728515625	5091.98436414398
0.907135009765625	0.01568603515625	5092.02861414386
0.91156005859375	0.0157073974609375	5092.07286414375
0.915985107421875	0.0157318115234375	5092.11711414364
0.92041015625	0.0157562255859375	5092.16136414353
0.924835205078125	0.0157806396484375	5092.20561414342
0.92926025390625	0.0158050537109375	5092.2498641433
0.933685302734375	0.0158294677734375	5092.29411414319
0.9381103515625	0.01585693359375	5092.33836414308
0.942535400390625	0.0158843994140625	5092.38261414297
0.94696044921875	0.015911865234375	5092.42686414286
0.951385498046875	0.015936279296875	5092.47111414275
0.955810546875	0.0159637451171875	5092.51536414264
0.960235595703125	0.0159942626953125	5092.55961414252
0.96466064453125	0.0160247802734375	5092.60386414241
0.969085693359375	0.01605224609375	5092.6481141423
0.9735107421875	0.016082763671875	5092.69236414219
0.977935791015625	0.01611328125	5092.73661414208
0.98236083984375	0.0161468505859375	5092.78086414196
0.986785888671875	0.016180419921875	5092.82511414185
0.9912109375	0.0162139892578125	5092.86936414174
0.995635986328125	0.0162506103515625	5092.91361414163
1.00006103515625	0.0162872314453125	5092.95786414152
0.995635986328125	0.0156494140625	5093.00211414141
0.9912109375	0.0150421142578125	5093.04636414129
0.986785888671875	0.0144561767578125	5093.09061414118
0.98236083984375	0.013897705078125	5093.13486414107
0.977935791015625	0.013348388671875	5093.17911414096
0.9735107421875	0.0128204345703125	5093.22336414085
0.969085693359375	0.0123046875	5093.26761414074
0.96466064453125	0.0118011474609375	5093.31186414062
0.960235595703125	0.01131591796875	5093.35611414051
0.955810546875	0.01083984375	5093.4003641404
0.951385498046875	0.0103729248046875	5093.44461414029
0.94696044921875	0.009918212890625	5093.48886414018
0.942535400390625	0.00947265625	5093.53311414006
0.9381103515625	0.0090423583984375	5093.57736413995
0.933685302734375	0.008612060546875	5093.62161413984
0.92926025390625	0.008197021484375	5093.66586413973
0.924835205078125	0.0077911376953125	5093.71011413962
0.92041015625	0.007391357421875	5093.75436413951
0.915985107421875	0.007000732421875	5093.79861413939
0.91156005859375	0.0066131591796875	5093.84286413928
0.907135009765625	0.00623779296875	5093.88711413917
0.9027099609375	0.0058685302734375	5093.93136413906
0.898284912109375	0.00550537109375	5093.97561413895
0.89385986328125	0.0051483154296875	5094.01986413884
0.889434814453125	0.0047998046875	5094.06411413872
0.885009765625	0.00445709228515625	5094.10836413861
0.880584716796875	0.00412017822265625	5094.1526141385
0.87615966796875	0.0037884521484375	5094.19686413839
0.871734619140625	0.003463134765625	5094.24111413828
0.8673095703125	0.0031463623046875	5094.28536413817
0.862884521484375	0.00283111572265625	5094.32961413805
0.85845947265625	0.0025225830078125	5094.37386413794
0.854034423828125	0.0022174072265625	5094.41811413783
0.849609375	0.001917724609375	5094.46236413772
0.845184326171875	0.00162353515625	5094.50661413761
0.84075927734375	0.0013336181640625	5094.5508641375
0.836334228515625	0.00104888916015625	5094.59511413738
0.8319091796875	0.00076812744140625	5094.63936413727
0.827484130859375	0.000491943359375	5094.68361413716
0.82305908203125	0.000220550537109375	5094.72786413705
0.818634033203125	-4.669189453125E-05	5094.77211413694
0.814208984375	-0.000309600830078125	5094.81636413683
0.809783935546875	-0.0005682373046875	5094.86061413671
0.80535888671875	-0.00082275390625	5094.9048641366
0.800933837890625	-0.00107391357421875	5094.94911413649
0.7965087890625	-0.0013201904296875	5094.99336413638
0.792083740234375	-0.00156280517578125	5095.03761413627
0.78765869140625	-0.0018017578125	5095.08186413615
0.783233642578125	-0.0020367431640625	5095.12611413604
0.77880859375	-0.00226776123046875	5095.17036413593
0.774383544921875	-0.0024957275390625	5095.21461413582
0.76995849609375	-0.0027197265625	5095.25886413571
0.765533447265625	-0.0029400634765625	5095.3031141356
0.7611083984375	-0.0031573486328125	5095.34736413548
0.756683349609375	-0.00337066650390625	5095.39161413537
0.75225830078125	-0.0035809326171875	5095.43586413526
0.747833251953125	-0.003787841796875	5095.48011413515
0.743408203125	-0.00399139404296875	5095.52436413504
0.738983154296875	-0.00418975830078125	5095.56861413493
0.73455810546875	-0.00438720703125	5095.61286413481
0.730133056640625	-0.0045806884765625	5095.6571141347
0.7257080078125	-0.004771728515625	5095.70136413459
0.721282958984375	-0.00495880126953125	5095.74561413448
0.71685791015625	-0.00514312744140625	5095.78986413437
0.712432861328125	-0.00532470703125	5095.83411413426
0.7080078125	-0.0055035400390625	5095.87836413414
0.703582763671875	-0.00567901611328125	5095.92261413403
0.69915771484375	-0.00585052490234375	5095.96686413392
0.694732666015625	-0.0060198974609375	5096.01111413381
0.6903076171875	-0.00616455078125	5096.0553641337
0.685882568359375	-0.006329345703125	5096.09961413359
0.68145751953125	-0.0064910888671875	5096.14386413347
0.677032470703125	-0.0066497802734375	5096.18811413336
0.672607421875	-0.006805419921875	5096.23236413325
0.668182373046875	-0.0069610595703125	5096.27661413314
0.66375732421875	-0.0071075439453125	5096.32086413303
0.659332275390625	-0.007257080078125	5096.36511413291
0.6549072265625	-0.007403564453125	5096.4093641328
0.650482177734375	-0.0075469970703125	5096.45361413269
0.64605712890625	-0.0076873779296875	5096.49786413258
0.641632080078125	-0.00782470703125	5096.54211413247
0.63720703125	-0.007958984375	5096.58636413236
0.632781982421875	-0.00809326171875	5096.63061413224
0.62835693359375	-0.0082275390625	5096.67486413213
0.623931884765625	-0.0083587646484375	5096.71911413202
0.6195068359375	-0.0084869384765625	5096.76336413191
0.615081787109375	-0.008612060546875	5096.8076141318
0.61065673828125	-0.008734130859375	5096.85186413169
0.606231689453125	-0.008856201171875	5096.89611413157
0.601806640625	-0.0089752197265625	5096.94036413146
0.597381591796875	-0.00909423828125	5096.98461413135
0.59295654296875	-0.0092071533203125	5097.02886413124
0.588531494140625	-0.009320068359375	5097.07311413113
0.5841064453125	-0.0094268798828125	5097.11736413102
0.579681396484375	-0.0095367431640625	5097.1616141309
0.57525634765625	-0.0096435546875	5097.20586413079
0.570831298828125	-0.0097503662109375	5097.25011413068
0.56640625	-0.009857177734375	5097.29436413057
0.561981201171875	-0.0099578857421875	5097.33861413046
0.55755615234375	-0.01005859375	5097.38286413035
0.553131103515625	-0.01015625	5097.42711413023
0.5487060546875	-0.01025390625	5097.47136413012
0.544281005859375	-0.0103515625	5097.51561413001
0.53985595703125	-0.0104461669921875	5097.5598641299
0.535430908203125	-0.010540771484375	5097.60411412979
0.531005859375	-0.01063232421875	5097.64836412968
0.526580810546875	-0.010723876953125	5097.69261412956
0.52215576171875	-0.0108123779296875	5097.73686412945
0.517730712890625	-0.01090087890625	5097.78111412934
0.5133056640625	-0.0109832763671875	5097.82536412923
0.508880615234375	-0.0110687255859375	5097.86961412912
0.50445556640625	-0.011151123046875	5097.913864129
0.500030517578125	-0.0112335205078125	5097.95811412889
0.49560546875	-0.01131591796875	5098.00236412878
0.491180419921875	-0.011395263671875	5098.04661412867
0.48675537109375	-0.011474609375	5098.09086412856
0.482330322265625	-0.011553955078125	5098.13511412845
0.4779052734375	-0.0116302490234375	5098.17936412833
0.473480224609375	-0.0117034912109375	5098.22361412822
0.46905517578125	-0.0117767333984375	5098.26786412811
0.464630126953125	-0.0118499755859375	5098.312114128
0.460205078125	-0.0119232177734375	5098.35636412789
0.455780029296875	-0.011993408203125	5098.40061412778
0.45135498046875	-0.0120635986328125	5098.44486412766
0.446929931640625	-0.0121337890625	5098.48911412755
0.4425048828125	-0.0122039794921875	5098.53336412744
0.438079833984375	-0.0122711181640625	5098.57761412733
0.43365478515625	-0.012335205078125	5098.62186412722
0.429229736328125	-0.01240234375	5098.66611412711
0.4248046875	-0.012469482421875	5098.71036412699
0.420379638671875	-0.012530517578125	5098.75461412688
0.41595458984375	-0.0125946044921875	5098.79886412677
0.411529541015625	-0.0126556396484375	5098.84311412666
0.4071044921875	-0.0127197265625	5098.88736412655
0.402679443359375	-0.01278076171875	5098.93161412644
0.39825439453125	-0.012841796875	5098.97586412632
0.393829345703125	-0.01290283203125	5099.02011412621
0.389404296875	-0.0129608154296875	5099.0643641261
0.384979248046875	-0.0130218505859375	5099.10861412599
0.38055419921875	-0.0130767822265625	5099.15286412588
0.376129150390625	-0.013134765625	5099.19711412576
0.3717041015625	-0.01319580078125	5099.24136412565
0.367279052734375	-0.013250732421875	5099.28561412554
0.36285400390625	-0.0133056640625	5099.32986412543
0.358428955078125	-0.013360595703125	5099.37411412532
0.35400390625	-0.0134185791015625	5099.41836412521
0.349578857421875	-0.013470458984375	5099.46261412509
0.34515380859375	-0.013525390625	5099.50686412498
0.340728759765625	-0.013580322265625	5099.55111412487
0.3363037109375	-0.0136322021484375	5099.59536412476
0.331878662109375	-0.0136871337890625	5099.63961412465
0.32745361328125	-0.013739013671875	5099.68386412454
0.323028564453125	-0.0137908935546875	5099.72811412442
0.318603515625	-0.0138458251953125	5099.77236412431
0.314178466796875	-0.013897705078125	5099.8166141242
0.30975341796875	-0.0139495849609375	5099.86086412409
0.305328369140625	-0.01400146484375	5099.90511412398
0.3009033203125	-0.01405029296875	5099.94936412387
0.296478271484375	-0.01409912109375	5099.99361412375
0.29205322265625	-0.01414794921875	5100.03786412364
0.287628173828125	-0.01419677734375	5100.08211412353
0.283203125	-0.01424560546875	5100.12636412342
0.278778076171875	-0.01429443359375	5100.17061412331
0.27435302734375	-0.0143402099609375	5100.2148641232
0.269927978515625	-0.0143890380859375	5100.25911412308
0.2655029296875	-0.014434814453125	5100.30336412297
0.261077880859375	-0.014483642578125	5100.34761412286
0.25665283203125	-0.0145294189453125	5100.39186412275
0.252227783203125	-0.0145751953125	5100.43611412264
0.247802734375	-0.0146209716796875	5100.48036412253
0.243377685546875	-0.014666748046875	5100.52461412241
0.23895263671875	-0.01470947265625	5100.5688641223
0.234527587890625	-0.0147552490234375	5100.61311412219
0.2301025390625	-0.014794921875	5100.65736412208
0.225677490234375	-0.014837646484375	5100.70161412197
0.22125244140625	-0.01488037109375	5100.74586412185
0.216827392578125	-0.014923095703125	5100.79011412174
0.21240234375	-0.0149627685546875	5100.83436412163
0.207977294921875	-0.0150054931640625	5100.87861412152
0.20355224609375	-0.015045166015625	5100.92286412141
0.199127197265625	-0.0150848388671875	5100.9671141213
0.1947021484375	-0.0151275634765625	5101.01136412118
0.190277099609375	-0.0151641845703125	5101.05561412107
0.18585205078125	-0.015203857421875	5101.09986412096
0.181427001953125	-0.0152435302734375	5101.14411412085
0.177001953125	-0.015283203125	5101.18836412074
0.172576904296875	-0.0153167724609375	5101.23261412063
0.16815185546875	-0.0153533935546875	5101.27686412051
0.163726806640625	-0.0153900146484375	5101.3211141204
0.1593017578125	-0.0154266357421875	5101.36536412029
0.154876708984375	-0.015460205078125	5101.40961412018
0.15045166015625	-0.015496826171875	5101.45386412007
0.146026611328125	-0.0155303955078125	5101.49811411996
0.1416015625	-0.0155670166015625	5101.54236411984
0.137176513671875	-0.0156005859375	5101.58661411973
0.13275146484375	-0.0156341552734375	5101.63086411962
0.128326416015625	-0.0156646728515625	5101.67511411951
0.1239013671875	-0.0156982421875	5101.7193641194
0.119476318359375	-0.015728759765625	5101.76361411929
0.11505126953125	-0.01575927734375	5101.80786411917
0.110626220703125	-0.0157928466796875	5101.85211411906
0.106201171875	-0.0158233642578125	5101.89636411895
0.101776123046875	-0.0158538818359375	5101.94061411884
0.09735107421875	-0.0158843994140625	5101.98486411873
0.092926025390625	-0.0159149169921875	5102.02911411861
0.0885009765625	-0.0159454345703125	5102.0733641185
0.084075927734375	-0.0159759521484375	5102.11761411839
0.07965087890625	-0.0160064697265625	5102.16186411828
0.075225830078125	-0.016033935546875	5102.20611411817
0.07080078125	-0.016064453125	5102.25036411806
0.066375732421875	-0.016094970703125	5102.29461411794
0.06195068359375	-0.0161224365234375	5102.33886411783
0.057525634765625	-0.0161529541015625	5102.38311411772
0.0531005859375	-0.016180419921875	5102.42736411761
0.048675537109375	-0.0162078857421875	5102.4716141175
0.04425048828125	-0.0162384033203125	5102.51586411739
0.039825439453125	-0.016265869140625	5102.56011411727
0.035400390625	-0.0162933349609375	5102.60436411716
0.030975341796875	-0.0163238525390625	5102.64861411705
0.02655029296875	-0.016351318359375	5102.69286411694
0.022125244140625	-0.0163787841796875	5102.73711411683
0.0177001953125	-0.01640625	5102.78136411672
0.013275146484375	-0.0164337158203125	5102.8256141166
0.00885009765625	-0.016461181640625	5102.86986411649
0.004425048828125	-0.0164886474609375	5102.91411411638
0	-0.01651611328125	5102.95836411627
0.004425048828125	-0.015875244140625	5103.00261411616
0.00885009765625	-0.015264892578125	5103.04686411605
0.013275146484375	-0.0146759033203125	5103.09111411593
0.0177001953125	-0.0141021728515625	5103.13536411582
0.022125244140625	-0.0135498046875	5103.17961411571
0.02655029296875	-0.0130096435546875	5103.2238641156
0.030975341796875	-0.0124847412109375	5103.26811411549
0.035400390625	-0.0119720458984375	5103.31236411538
0.039825439453125	-0.0114715576171875	5103.35661411526
0.04425048828125	-0.010980224609375	5103.40086411515
0.048675537109375	-0.0105072021484375	5103.44511411504
0.0531005859375	-0.010040283203125	5103.48936411493
0.057525634765625	-0.00958251953125	5103.53361411482
0.06195068359375	-0.0091400146484375	5103.5778641147
0.066375732421875	-0.0087005615234375	5103.62211411459
0.07080078125	-0.0082733154296875	5103.66636411448
0.075225830078125	-0.0078521728515625	5103.71061411437
0.07965087890625	-0.0074462890625	5103.75486411426
0.084075927734375	-0.00704345703125	5103.79911411415
0.0885009765625	-0.0066497802734375	5103.84336411403
0.092926025390625	-0.00626220703125	5103.88761411392
0.09735107421875	-0.0058837890625	5103.93186411381
0.101776123046875	-0.005511474609375	5103.9761141137
0.106201171875	-0.0051483154296875	5104.02036411359
0.110626220703125	-0.00479095458984375	5104.06461411348
0.11505126953125	-0.00444061279296875	5104.10886411336
0.119476318359375	-0.00409820556640625	5104.15311411325
0.1239013671875	-0.0037603759765625	5104.19736411314
0.128326416015625	-0.00342926025390625	5104.24161411303
0.13275146484375	-0.00311492919921875	5104.28586411292
0.137176513671875	-0.0027947998046875	5104.3301141128
0.1416015625	-0.00248016357421875	5104.37436411269
0.146026611328125	-0.00217132568359375	5104.41861411258
0.15045166015625	-0.00186798095703125	5104.46286411247
0.154876708984375	-0.00156982421875	5104.50711411236
0.1593017578125	-0.0012774658203125	5104.55136411225
0.163726806640625	-0.000989990234375	5104.59561411214
0.16815185546875	-0.0007080078125	5104.63986411202
0.172576904296875	-0.00043060302734375	5104.68411411191
0.177001953125	-0.0001580810546875	5104.7283641118
0.181427001953125	0.000109893798828125	5104.77261411169
0.18585205078125	0.000373016357421875	5104.81686411158
0.190277099609375	0.0006317138671875	5104.86111411146
0.1947021484375	0.00088653564453125	5104.90536411135
0.199127197265625	0.00113616943359375	5104.94961411124
0.20355224609375	0.0013824462890625	5104.99386411113
0.207977294921875	0.00162384033203125	5105.03811411102
0.21240234375	0.00186065673828125	5105.08236411091
0.216827392578125	0.0020941162109375	5105.12661411079
0.22125244140625	0.002322998046875	5105.17086411068
0.225677490234375	0.002548828125	5105.21511411057
0.2301025390625	0.00277099609375	5105.25936411046
0.234527587890625	0.00298828125	5105.30361411035
0.23895263671875	0.00320281982421875	5105.34786411024
0.243377685546875	0.0034136962890625	5105.39211411012
0.247802734375	0.00362060546875	5105.43636411001
0.252227783203125	0.00382476806640625	5105.4806141099
0.25665283203125	0.00402496337890625	5105.52486410979
0.261077880859375	0.00422210693359375	5105.56911410968
0.2655029296875	0.00441619873046875	5105.61336410957
0.269927978515625	0.00460662841796875	5105.65761410945
0.27435302734375	0.0047943115234375	5105.70186410934
0.278778076171875	0.004979248046875	5105.74611410923
0.283203125	0.00516021728515625	5105.79036410912
0.287628173828125	0.00533905029296875	5105.83461410901
0.29205322265625	0.00551483154296875	5105.87886410889
0.296478271484375	0.0056878662109375	5105.92311410878
0.3009033203125	0.005858154296875	5105.96736410867
0.305328369140625	0.0060260009765625	5106.01161410856
0.30975341796875	0.006182861328125	5106.05586410845
0.314178466796875	0.0063446044921875	5106.10011410834
0.318603515625	0.0065032958984375	5106.14436410823
0.323028564453125	0.006658935546875	5106.18861410811
0.32745361328125	0.0068145751953125	5106.232864108
0.331878662109375	0.006964111328125	5106.27711410789
0.3363037109375	0.0071136474609375	5106.32136410778
0.340728759765625	0.0072601318359375	5106.36561410767
0.34515380859375	0.007403564453125	5106.40986410755
0.349578857421875	0.0075469970703125	5106.45411410744
0.35400390625	0.007684326171875	5106.49836410733
0.358428955078125	0.0078216552734375	5106.54261410722
0.36285400390625	0.0079559326171875	5106.58686410711
0.367279052734375	0.008087158203125	5106.631114107
0.3717041015625	0.0082183837890625	5106.67536410688
0.376129150390625	0.008349609375	5106.71961410677
0.38055419921875	0.008477783203125	5106.76386410666
0.384979248046875	0.0086029052734375	5106.80811410655
0.389404296875	0.0087249755859375	5106.85236410644
0.393829345703125	0.0088470458984375	5106.89661410633
0.39825439453125	0.008966064453125	5106.94086410621
0.402679443359375	0.009088134765625	5106.9851141061
0.4071044921875	0.0092041015625	5107.02936410599
0.411529541015625	0.009320068359375	5107.07361410588
0.41595458984375	0.009429931640625	5107.11786410577
0.420379638671875	0.009539794921875	5107.16211410565
0.4248046875	0.009649658203125	5107.20636410554
0.429229736328125	0.009759521484375	5107.25061410543
0.43365478515625	0.009869384765625	5107.29486410532
0.438079833984375	0.00997314453125	5107.33911410521
0.4425048828125	0.0100799560546875	5107.3833641051
0.446929931640625	0.0101837158203125	5107.42761410498
0.45135498046875	0.010284423828125	5107.47186410487
0.455780029296875	0.0103851318359375	5107.51611410476
0.460205078125	0.0104827880859375	5107.56036410465
0.464630126953125	0.01058349609375	5107.60461410454
0.46905517578125	0.0106781005859375	5107.64886410443
0.473480224609375	0.010772705078125	5107.69311410431
0.4779052734375	0.010870361328125	5107.7373641042
0.482330322265625	0.0109588623046875	5107.78161410409
0.48675537109375	0.0110504150390625	5107.82586410398
0.491180419921875	0.0111419677734375	5107.87011410387
0.49560546875	0.01123046875	5107.91436410376
0.500030517578125	0.0113189697265625	5107.95861410364
0.50445556640625	0.0114044189453125	5108.00286410353
0.508880615234375	0.0114898681640625	5108.04711410342
0.5133056640625	0.0115753173828125	5108.09136410331
0.517730712890625	0.0116607666015625	5108.1356141032
0.52215576171875	0.0117431640625	5108.17986410309
0.526580810546875	0.0118255615234375	5108.22411410297
0.531005859375	0.0119049072265625	5108.26836410286
0.535430908203125	0.0119842529296875	5108.31261410275
0.53985595703125	0.0120635986328125	5108.35686410264
0.544281005859375	0.012139892578125	5108.40111410253
0.5487060546875	0.01221923828125	5108.44536410242
0.553131103515625	0.01229248046875	5108.4896141023
0.55755615234375	0.0123687744140625	5108.53386410219
0.561981201171875	0.0124420166015625	5108.57811410208
0.56640625	0.0125152587890625	5108.62236410197
0.570831298828125	0.0125885009765625	5108.66661410186
0.57525634765625	0.01265869140625	5108.71086410174
0.579681396484375	0.0127288818359375	5108.75511410163
0.5841064453125	0.0127960205078125	5108.79936410152
0.588531494140625	0.0128631591796875	5108.84361410141
0.59295654296875	0.012933349609375	5108.8878641013
0.597381591796875	0.01300048828125	5108.93211410119
0.601806640625	0.0130615234375	5108.97636410107
0.606231689453125	0.013128662109375	5109.02061410096
0.61065673828125	0.0131927490234375	5109.06486410085
0.615081787109375	0.0132568359375	5109.10911410074
0.6195068359375	0.01331787109375	5109.15336410063
0.623931884765625	0.0133819580078125	5109.19761410052
0.62835693359375	0.0134429931640625	5109.2418641004
0.632781982421875	0.0135009765625	5109.28611410029
0.63720703125	0.01356201171875	5109.33036410018
0.641632080078125	0.0136199951171875	5109.37461410007
0.64605712890625	0.0136749267578125	5109.41886409996
0.650482177734375	0.01373291015625	5109.46311409985
0.6549072265625	0.013787841796875	5109.50736409973
0.659332275390625	0.0138427734375	5109.55161409962
0.66375732421875	0.0138946533203125	5109.59586409951
0.668182373046875	0.0139495849609375	5109.6401140994
0.672607421875	0.0139984130859375	5109.68436409929
0.677032470703125	0.0140472412109375	5109.72861409918
0.68145751953125	0.0140960693359375	5109.77286409906
0.685882568359375	0.014141845703125	5109.81711409895
0.6903076171875	0.014190673828125	5109.86136409884
0.694732666015625	0.0142364501953125	5109.90561409873
0.69915771484375	0.0142822265625	5109.94986409862
0.703582763671875	0.014324951171875	5109.9941140985
0.7080078125	0.01436767578125	5110.03836409839
0.712432861328125	0.0144134521484375	5110.08261409828
0.71685791015625	0.014453125	5110.12686409817
0.721282958984375	0.014495849609375	5110.17111409806
0.7257080078125	0.01453857421875	5110.21536409795
0.730133056640625	0.0145782470703125	5110.25961409783
0.73455810546875	0.0146148681640625	5110.30386409772
0.738983154296875	0.0146514892578125	5110.34811409761
0.743408203125	0.0146881103515625	5110.3923640975
0.747833251953125	0.0147247314453125	5110.43661409739
0.75225830078125	0.01475830078125	5110.48086409728
0.756683349609375	0.014794921875	5110.52511409716
0.7611083984375	0.0148284912109375	5110.56936409705
0.765533447265625	0.0148590087890625	5110.61361409694
0.76995849609375	0.014892578125	5110.65786409683
0.774383544921875	0.014923095703125	5110.70211409672
0.77880859375	0.0149566650390625	5110.74636409661
0.783233642578125	0.0149871826171875	5110.79061409649
0.78765869140625	0.0150146484375	5110.83486409638
0.792083740234375	0.015045166015625	5110.87911409627
0.7965087890625	0.0150726318359375	5110.92336409616
0.800933837890625	0.01510009765625	5110.96761409605
0.80535888671875	0.0151275634765625	5111.01186409594
0.809783935546875	0.0151519775390625	5111.05611409582
0.814208984375	0.015179443359375	5111.10036409571
0.818634033203125	0.0152069091796875	5111.1446140956
0.82305908203125	0.0152313232421875	5111.18886409549
0.827484130859375	0.0152557373046875	5111.23311409538
0.8319091796875	0.0152801513671875	5111.27736409527
0.836334228515625	0.0153076171875	5111.32161409515
0.84075927734375	0.0153289794921875	5111.36586409504
0.845184326171875	0.015350341796875	5111.41011409493
0.849609375	0.015374755859375	5111.45436409482
0.854034423828125	0.015399169921875	5111.49861409471
0.85845947265625	0.0154205322265625	5111.54286409459
0.862884521484375	0.01544189453125	5111.58711409448
0.8673095703125	0.01546630859375	5111.63136409437
0.871734619140625	0.0154876708984375	5111.67561409426
0.87615966796875	0.015509033203125	5111.71986409415
0.880584716796875	0.0155303955078125	5111.76411409404
0.885009765625	0.0155548095703125	5111.80836409392
0.889434814453125	0.015576171875	5111.85261409381
0.89385986328125	0.0156005859375	5111.8968640937
0.898284912109375	0.015618896484375	5111.94111409359
0.9027099609375	0.0156402587890625	5111.98536409348
0.907135009765625	0.0156646728515625	5112.02961409337
0.91156005859375	0.01568603515625	5112.07386409325
0.915985107421875	0.01571044921875	5112.11811409314
0.92041015625	0.0157318115234375	5112.16236409303
0.924835205078125	0.0157562255859375	5112.20661409292
0.92926025390625	0.01578369140625	5112.25086409281
0.933685302734375	0.01580810546875	5112.2951140927
0.9381103515625	0.0158355712890625	5112.33936409258
0.942535400390625	0.0158599853515625	5112.38361409247
0.94696044921875	0.015887451171875	5112.42786409236
0.951385498046875	0.015911865234375	5112.47211409225
0.955810546875	0.0159393310546875	5112.51636409214
0.960235595703125	0.0159698486328125	5112.56061409203
0.96466064453125	0.015997314453125	5112.60486409191
0.969085693359375	0.0160247802734375	5112.6491140918
0.9735107421875	0.016058349609375	5112.69336409169
0.977935791015625	0.0160858154296875	5112.73761409158
0.98236083984375	0.0161224365234375	5112.78186409147
0.986785888671875	0.016156005859375	5112.82611409135
0.9912109375	0.0161895751953125	5112.87036409124
