Potential applied (V)	WE(1).Current (A)	Time (s)
0.004425048828125	-0.08525390625	3772.17797747617
0.00885009765625	-0.081494140625	3772.22222747605
0.013275146484375	-0.0783172607421875	3772.26647747594
0.0177001953125	-0.075506591796875	3772.31072747583
0.022125244140625	-0.0729644775390625	3772.35497747572
0.02655029296875	-0.0706268310546875	3772.39922747561
0.030975341796875	-0.0684295654296875	3772.4434774755
0.035400390625	-0.0663543701171875	3772.48772747538
0.039825439453125	-0.0643890380859375	3772.53197747527
0.04425048828125	-0.0625152587890625	3772.57622747516
0.048675537109375	-0.06072998046875	3772.62047747505
0.0531005859375	-0.059027099609375	3772.66472747494
0.057525634765625	-0.05738525390625	3772.70897747483
0.06195068359375	-0.0558074951171875	3772.75322747471
0.066375732421875	-0.054290771484375	3772.7974774746
0.07080078125	-0.0528167724609375	3772.84172747449
0.075225830078125	-0.0513885498046875	3772.88597747438
0.07965087890625	-0.0500152587890625	3772.93022747427
0.084075927734375	-0.048681640625	3772.97447747416
0.0885009765625	-0.047393798828125	3773.01872747404
0.092926025390625	-0.046136474609375	3773.06297747393
0.09735107421875	-0.0449249267578125	3773.10722747382
0.101776123046875	-0.04373779296875	3773.15147747371
0.106201171875	-0.0425872802734375	3773.1957274736
0.110626220703125	-0.041461181640625	3773.23997747348
0.11505126953125	-0.0403656005859375	3773.28422747337
0.119476318359375	-0.03929443359375	3773.32847747326
0.1239013671875	-0.0382568359375	3773.37272747315
0.128326416015625	-0.037237548828125	3773.41697747304
0.13275146484375	-0.0362396240234375	3773.46122747293
0.137176513671875	-0.03526611328125	3773.50547747281
0.1416015625	-0.034320068359375	3773.5497274727
0.146026611328125	-0.033392333984375	3773.59397747259
0.15045166015625	-0.0324859619140625	3773.63822747248
0.154876708984375	-0.031597900390625	3773.68247747237
0.1593017578125	-0.0307281494140625	3773.72672747226
0.163726806640625	-0.0298736572265625	3773.77097747214
0.16815185546875	-0.02904052734375	3773.81522747203
0.172576904296875	-0.028216552734375	3773.85947747192
0.177001953125	-0.0274139404296875	3773.90372747181
0.181427001953125	-0.0266265869140625	3773.9479774717
0.18585205078125	-0.0258575439453125	3773.99222747159
0.190277099609375	-0.0251007080078125	3774.03647747147
0.1947021484375	-0.024359130859375	3774.08072747136
0.199127197265625	-0.0236328125	3774.12497747125
0.20355224609375	-0.0229217529296875	3774.16922747114
0.207977294921875	-0.022222900390625	3774.21347747103
0.21240234375	-0.0215362548828125	3774.25772747092
0.216827392578125	-0.0208587646484375	3774.3019774708
0.22125244140625	-0.020196533203125	3774.34622747069
0.225677490234375	-0.01954345703125	3774.39047747058
0.2301025390625	-0.0188995361328125	3774.43472747047
0.234527587890625	-0.0182708740234375	3774.47897747036
0.23895263671875	-0.0176513671875	3774.52322747024
0.243377685546875	-0.0170440673828125	3774.56747747013
0.247802734375	-0.0164459228515625	3774.61172747002
0.252227783203125	-0.01585693359375	3774.65597746991
0.25665283203125	-0.015283203125	3774.7002274698
0.261077880859375	-0.014715576171875	3774.74447746969
0.2655029296875	-0.0141571044921875	3774.78872746957
0.269927978515625	-0.0136077880859375	3774.83297746946
0.27435302734375	-0.013067626953125	3774.87722746935
0.278778076171875	-0.0125335693359375	3774.92147746924
0.283203125	-0.01201171875	3774.96572746913
0.287628173828125	-0.0114959716796875	3775.00997746902
0.29205322265625	-0.010986328125	3775.0542274689
0.296478271484375	-0.010491943359375	3775.09847746879
0.3009033203125	-0.0100006103515625	3775.14272746868
0.305328369140625	-0.0095184326171875	3775.18697746857
0.30975341796875	-0.0090423583984375	3775.23122746846
0.314178466796875	-0.0085723876953125	3775.27547746835
0.318603515625	-0.008111572265625	3775.31972746823
0.323028564453125	-0.007659912109375	3775.36397746812
0.32745361328125	-0.0072113037109375	3775.40822746801
0.331878662109375	-0.0067718505859375	3775.4524774679
0.3363037109375	-0.00633544921875	3775.49672746779
0.340728759765625	-0.005908203125	3775.54097746768
0.34515380859375	-0.005487060546875	3775.58522746756
0.349578857421875	-0.005072021484375	3775.62947746745
0.35400390625	-0.00466949462890625	3775.67372746734
0.358428955078125	-0.00426727294921875	3775.71797746723
0.36285400390625	-0.0038720703125	3775.76222746712
0.367279052734375	-0.0034820556640625	3775.80647746701
0.3717041015625	-0.00309722900390625	3775.85072746689
0.376129150390625	-0.0027288818359375	3775.89497746678
0.38055419921875	-0.0023541259765625	3775.93922746667
0.384979248046875	-0.001986083984375	3775.98347746656
0.389404296875	-0.0016229248046875	3776.02772746645
0.393829345703125	-0.0012652587890625	3776.07197746633
0.39825439453125	-0.0009124755859375	3776.11622746622
0.402679443359375	-0.00056427001953125	3776.16047746611
0.4071044921875	-0.0002216796875	3776.204727466
0.411529541015625	0.0001163330078125	3776.24897746589
0.41595458984375	0.0004500732421875	3776.29322746578
0.420379638671875	0.00077880859375	3776.33747746566
0.4248046875	0.00110321044921875	3776.38172746555
0.429229736328125	0.00142303466796875	3776.42597746544
0.43365478515625	0.00173797607421875	3776.47022746533
0.438079833984375	0.00204803466796875	3776.51447746522
0.4425048828125	0.00235382080078125	3776.55872746511
0.446929931640625	0.00265625	3776.60297746499
0.45135498046875	0.0029547119140625	3776.64722746488
0.455780029296875	0.0032489013671875	3776.69147746477
0.460205078125	0.00353851318359375	3776.73572746466
0.464630126953125	0.00382415771484375	3776.77997746455
0.46905517578125	0.0041058349609375	3776.82422746444
0.473480224609375	0.00438385009765625	3776.86847746432
0.4779052734375	0.0046588134765625	3776.91272746421
0.482330322265625	0.0049298095703125	3776.9569774641
0.48675537109375	0.00519683837890625	3777.00122746399
0.491180419921875	0.00546112060546875	3777.04547746388
0.49560546875	0.005721435546875	3777.08972746377
0.500030517578125	0.00597747802734375	3777.13397746365
0.50445556640625	0.0062310791015625	3777.17822746354
0.508880615234375	0.0064697265625	3777.22247746343
0.5133056640625	0.0067138671875	3777.26672746332
0.517730712890625	0.0069549560546875	3777.31097746321
0.52215576171875	0.0071929931640625	3777.35522746309
0.526580810546875	0.007427978515625	3777.39947746298
0.531005859375	0.007659912109375	3777.44372746287
0.535430908203125	0.0078887939453125	3777.48797746276
0.53985595703125	0.0081146240234375	3777.53222746265
0.544281005859375	0.00833740234375	3777.57647746254
0.5487060546875	0.00855712890625	3777.62072746242
0.553131103515625	0.0087738037109375	3777.66497746231
0.55755615234375	0.0089874267578125	3777.7092274622
0.561981201171875	0.009197998046875	3777.75347746209
0.56640625	0.0094024658203125	3777.79772746198
0.570831298828125	0.0096099853515625	3777.84197746187
0.57525634765625	0.0098114013671875	3777.88622746175
0.579681396484375	0.0100128173828125	3777.93047746164
0.5841064453125	0.010211181640625	3777.97472746153
0.588531494140625	0.0104034423828125	3778.01897746142
0.59295654296875	0.0105987548828125	3778.06322746131
0.597381591796875	0.0107879638671875	3778.1074774612
0.601806640625	0.0109710693359375	3778.15172746108
0.606231689453125	0.0111602783203125	3778.19597746097
0.61065673828125	0.011346435546875	3778.24022746086
0.615081787109375	0.0115234375	3778.28447746075
0.6195068359375	0.011700439453125	3778.32872746064
0.623931884765625	0.01187744140625	3778.37297746053
0.62835693359375	0.0120574951171875	3778.41722746041
0.632781982421875	0.0122314453125	3778.4614774603
0.63720703125	0.01240234375	3778.50572746019
0.641632080078125	0.0125640869140625	3778.54997746008
0.64605712890625	0.01273193359375	3778.59422745997
0.650482177734375	0.0128936767578125	3778.63847745986
0.6549072265625	0.013055419921875	3778.68272745974
0.659332275390625	0.013214111328125	3778.72697745963
0.66375732421875	0.0133697509765625	3778.77122745952
0.668182373046875	0.0135223388671875	3778.81547745941
0.672607421875	0.013677978515625	3778.8597274593
0.677032470703125	0.0138275146484375	3778.90397745918
0.68145751953125	0.01397705078125	3778.94822745907
0.685882568359375	0.0141204833984375	3778.99247745896
0.6903076171875	0.014263916015625	3779.03672745885
0.694732666015625	0.0144073486328125	3779.08097745874
0.69915771484375	0.01455078125	3779.12522745863
0.703582763671875	0.014691162109375	3779.16947745851
0.7080078125	0.01483154296875	3779.2137274584
0.712432861328125	0.0149658203125	3779.25797745829
0.71685791015625	0.01510009765625	3779.30222745818
0.721282958984375	0.015234375	3779.34647745807
0.7257080078125	0.0153656005859375	3779.39072745796
0.730133056640625	0.015496826171875	3779.43497745784
0.73455810546875	0.015625	3779.47922745773
0.738983154296875	0.0157501220703125	3779.52347745762
0.743408203125	0.0158721923828125	3779.56772745751
0.747833251953125	0.0160003662109375	3779.6119774574
0.75225830078125	0.0161224365234375	3779.65622745729
0.756683349609375	0.0162445068359375	3779.70047745717
0.7611083984375	0.016363525390625	3779.74472745706
0.765533447265625	0.0164825439453125	3779.78897745695
0.76995849609375	0.0166015625	3779.83322745684
0.774383544921875	0.016717529296875	3779.87747745673
0.77880859375	0.0168304443359375	3779.92172745661
0.783233642578125	0.016943359375	3779.9659774565
0.78765869140625	0.0170562744140625	3780.01022745639
0.792083740234375	0.0171661376953125	3780.05447745628
0.7965087890625	0.01727294921875	3780.09872745617
0.800933837890625	0.0173828125	3780.14297745606
0.80535888671875	0.01749267578125	3780.18722745594
0.809783935546875	0.0175994873046875	3780.23147745583
0.814208984375	0.017706298828125	3780.27572745572
0.818634033203125	0.01781005859375	3780.31997745561
0.82305908203125	0.017913818359375	3780.3642274555
0.827484130859375	0.018017578125	3780.40847745539
0.8319091796875	0.0181182861328125	3780.45272745527
0.836334228515625	0.018218994140625	3780.49697745516
0.84075927734375	0.01832275390625	3780.54122745505
0.845184326171875	0.0184234619140625	3780.58547745494
0.849609375	0.0185211181640625	3780.62972745483
0.854034423828125	0.018621826171875	3780.67397745472
0.85845947265625	0.018719482421875	3780.7182274546
0.862884521484375	0.0188140869140625	3780.76247745449
0.8673095703125	0.018914794921875	3780.80672745438
0.871734619140625	0.019012451171875	3780.85097745427
0.87615966796875	0.0191070556640625	3780.89522745416
0.880584716796875	0.0192047119140625	3780.93947745405
0.885009765625	0.0192962646484375	3780.98372745393
0.889434814453125	0.0193939208984375	3781.02797745382
0.89385986328125	0.019488525390625	3781.07222745371
0.898284912109375	0.019580078125	3781.1164774536
0.9027099609375	0.0196746826171875	3781.16072745349
0.907135009765625	0.019769287109375	3781.20497745338
0.91156005859375	0.0198638916015625	3781.24922745326
0.915985107421875	0.0199615478515625	3781.29347745315
0.92041015625	0.02005615234375	3781.33772745304
0.924835205078125	0.0201507568359375	3781.38197745293
0.92926025390625	0.020245361328125	3781.42622745282
0.933685302734375	0.0203369140625	3781.4704774527
0.9381103515625	0.0204345703125	3781.51472745259
0.942535400390625	0.0205291748046875	3781.55897745248
0.94696044921875	0.020623779296875	3781.60322745237
0.951385498046875	0.0207183837890625	3781.64747745226
0.955810546875	0.0208160400390625	3781.69172745215
0.960235595703125	0.02091064453125	3781.73597745203
0.96466064453125	0.0210113525390625	3781.78022745192
0.969085693359375	0.0211090087890625	3781.82447745181
0.9735107421875	0.021209716796875	3781.8687274517
0.977935791015625	0.021307373046875	3781.91297745159
0.98236083984375	0.0214080810546875	3781.95722745148
0.986785888671875	0.0215087890625	3782.00147745136
0.9912109375	0.021612548828125	3782.04572745125
0.995635986328125	0.0217132568359375	3782.08997745114
1.00006103515625	0.0218170166015625	3782.13422745103
0.995635986328125	0.0210357666015625	3782.17847745092
0.9912109375	0.0202911376953125	3782.22272745081
0.986785888671875	0.019573974609375	3782.26697745069
0.98236083984375	0.0188751220703125	3782.31122745058
0.977935791015625	0.01820068359375	3782.35547745047
0.9735107421875	0.0175445556640625	3782.39972745036
0.969085693359375	0.01690673828125	3782.44397745025
0.96466064453125	0.0162811279296875	3782.48822745014
0.960235595703125	0.015667724609375	3782.53247745002
0.955810546875	0.015069580078125	3782.57672744991
0.951385498046875	0.0144805908203125	3782.6209774498
0.94696044921875	0.0139068603515625	3782.66522744969
0.942535400390625	0.0133392333984375	3782.70947744958
0.9381103515625	0.012786865234375	3782.75372744946
0.933685302734375	0.01224365234375	3782.79797744935
0.92926025390625	0.0117095947265625	3782.84222744924
0.924835205078125	0.0111846923828125	3782.88647744913
0.92041015625	0.0106719970703125	3782.93072744902
0.915985107421875	0.01016845703125	3782.97497744891
0.91156005859375	0.0096710205078125	3783.01922744879
0.907135009765625	0.009185791015625	3783.06347744868
0.9027099609375	0.00870361328125	3783.10772744857
0.898284912109375	0.0082305908203125	3783.15197744846
0.89385986328125	0.0077667236328125	3783.19622744835
0.889434814453125	0.007305908203125	3783.24047744824
0.885009765625	0.0068572998046875	3783.28472744812
0.880584716796875	0.0064117431640625	3783.32897744801
0.87615966796875	0.005975341796875	3783.3732274479
0.871734619140625	0.0055450439453125	3783.41747744779
0.8673095703125	0.005120849609375	3783.46172744768
0.862884521484375	0.00470367431640625	3783.50597744757
0.85845947265625	0.00429412841796875	3783.55022744745
0.854034423828125	0.00388946533203125	3783.59447744734
0.849609375	0.003489990234375	3783.63872744723
0.845184326171875	0.003096923828125	3783.68297744712
0.84075927734375	0.00271148681640625	3783.72722744701
0.836334228515625	0.0023284912109375	3783.7714774469
0.8319091796875	0.00195159912109375	3783.81572744678
0.827484130859375	0.00157989501953125	3783.85997744667
0.82305908203125	0.00121429443359375	3783.90422744656
0.818634033203125	0.0008538818359375	3783.94847744645
0.814208984375	0.000498046875	3783.99272744634
0.809783935546875	0.00014788818359375	3784.03697744623
0.80535888671875	-0.000197265625	3784.08122744611
0.800933837890625	-0.00053802490234375	3784.125477446
0.7965087890625	-0.00087432861328125	3784.16972744589
0.792083740234375	-0.0012054443359375	3784.21397744578
0.78765869140625	-0.00153167724609375	3784.25822744567
0.783233642578125	-0.0018536376953125	3784.30247744555
0.77880859375	-0.00217010498046875	3784.34672744544
0.774383544921875	-0.00248291015625	3784.39097744533
0.76995849609375	-0.00279052734375	3784.43522744522
0.765533447265625	-0.00309417724609375	3784.47947744511
0.7611083984375	-0.0033935546875	3784.523727445
0.756683349609375	-0.00368865966796875	3784.56797744488
0.75225830078125	-0.0039801025390625	3784.61222744477
0.747833251953125	-0.0042669677734375	3784.65647744466
0.743408203125	-0.00455047607421875	3784.70072744455
0.738983154296875	-0.00482696533203125	3784.74497744444
0.73455810546875	-0.00510223388671875	3784.78922744433
0.730133056640625	-0.00537322998046875	3784.83347744421
0.7257080078125	-0.0056396484375	3784.8777274441
0.721282958984375	-0.0059027099609375	3784.92197744399
0.71685791015625	-0.0061614990234375	3784.96622744388
0.712432861328125	-0.0063934326171875	3785.01047744377
0.7080078125	-0.006646728515625	3785.05472744366
0.703582763671875	-0.0068939208984375	3785.09897744354
0.69915771484375	-0.0071380615234375	3785.14322744343
0.694732666015625	-0.007379150390625	3785.18747744332
0.6903076171875	-0.0076171875	3785.23172744321
0.685882568359375	-0.00784912109375	3785.2759774431
0.68145751953125	-0.0080810546875	3785.32022744299
0.677032470703125	-0.008306884765625	3785.36447744287
0.672607421875	-0.00853271484375	3785.40872744276
0.668182373046875	-0.00875244140625	3785.45297744265
0.66375732421875	-0.0089691162109375	3785.49722744254
0.659332275390625	-0.009185791015625	3785.54147744243
0.6549072265625	-0.0093963623046875	3785.58572744231
0.650482177734375	-0.0096038818359375	3785.6299774422
0.64605712890625	-0.0098114013671875	3785.67422744209
0.641632080078125	-0.010015869140625	3785.71847744198
0.63720703125	-0.0102142333984375	3785.76272744187
0.632781982421875	-0.01041259765625	3785.80697744176
0.62835693359375	-0.01060791015625	3785.85122744164
0.623931884765625	-0.01080322265625	3785.89547744153
0.6195068359375	-0.0109893798828125	3785.93972744142
0.615081787109375	-0.011175537109375	3785.98397744131
0.61065673828125	-0.011358642578125	3786.0282274412
0.606231689453125	-0.011541748046875	3786.07247744109
0.601806640625	-0.01171875	3786.11672744097
0.597381591796875	-0.011895751953125	3786.16097744086
0.59295654296875	-0.01207275390625	3786.20522744075
0.588531494140625	-0.0122467041015625	3786.24947744064
0.5841064453125	-0.01241455078125	3786.29372744053
0.579681396484375	-0.0125823974609375	3786.33797744042
0.57525634765625	-0.012750244140625	3786.3822274403
0.570831298828125	-0.0129119873046875	3786.42647744019
0.56640625	-0.01307373046875	3786.47072744008
0.561981201171875	-0.013232421875	3786.51497743997
0.55755615234375	-0.0133880615234375	3786.55922743986
0.553131103515625	-0.013543701171875	3786.60347743975
0.5487060546875	-0.0136962890625	3786.64772743963
0.544281005859375	-0.013848876953125	3786.69197743952
0.53985595703125	-0.0139984130859375	3786.73622743941
0.535430908203125	-0.0141448974609375	3786.7804774393
0.531005859375	-0.0142913818359375	3786.82472743919
0.526580810546875	-0.014434814453125	3786.86897743908
0.52215576171875	-0.0145782470703125	3786.91322743896
0.517730712890625	-0.0147186279296875	3786.95747743885
0.5133056640625	-0.01485595703125	3787.00172743874
0.508880615234375	-0.014990234375	3787.04597743863
0.50445556640625	-0.01512451171875	3787.09022743852
0.500030517578125	-0.0152587890625	3787.1344774384
0.49560546875	-0.01539306640625	3787.17872743829
0.491180419921875	-0.0155242919921875	3787.22297743818
0.48675537109375	-0.0156494140625	3787.26722743807
0.482330322265625	-0.015777587890625	3787.31147743796
0.4779052734375	-0.01590576171875	3787.35572743785
0.473480224609375	-0.0160308837890625	3787.39997743773
0.46905517578125	-0.016156005859375	3787.44422743762
0.464630126953125	-0.016278076171875	3787.48847743751
0.460205078125	-0.0163970947265625	3787.5327274374
0.455780029296875	-0.01651611328125	3787.57697743729
0.45135498046875	-0.0166351318359375	3787.62122743718
0.446929931640625	-0.0167510986328125	3787.66547743706
0.4425048828125	-0.0168701171875	3787.70972743695
0.438079833984375	-0.016986083984375	3787.75397743684
0.43365478515625	-0.0170989990234375	3787.79822743673
0.429229736328125	-0.0172088623046875	3787.84247743662
0.4248046875	-0.01732177734375	3787.88672743651
0.420379638671875	-0.0174346923828125	3787.93097743639
0.41595458984375	-0.0175445556640625	3787.97522743628
0.411529541015625	-0.0176544189453125	3788.01947743617
0.4071044921875	-0.01776123046875	3788.06372743606
0.402679443359375	-0.0178680419921875	3788.10797743595
0.39825439453125	-0.0179718017578125	3788.15222743583
0.393829345703125	-0.01807861328125	3788.19647743572
0.389404296875	-0.0181793212890625	3788.24072743561
0.384979248046875	-0.0182830810546875	3788.2849774355
0.38055419921875	-0.0183868408203125	3788.32922743539
0.376129150390625	-0.0184906005859375	3788.37347743528
0.3717041015625	-0.01859130859375	3788.41772743516
0.367279052734375	-0.0186920166015625	3788.46197743505
0.36285400390625	-0.018792724609375	3788.50622743494
0.358428955078125	-0.018890380859375	3788.55047743483
0.35400390625	-0.018988037109375	3788.59472743472
0.349578857421875	-0.0190826416015625	3788.63897743461
0.34515380859375	-0.01917724609375	3788.68322743449
0.340728759765625	-0.01927490234375	3788.72747743438
0.3363037109375	-0.0193695068359375	3788.77172743427
0.331878662109375	-0.019464111328125	3788.81597743416
0.32745361328125	-0.0195556640625	3788.86022743405
0.323028564453125	-0.0196502685546875	3788.90447743394
0.318603515625	-0.019744873046875	3788.94872743382
0.314178466796875	-0.0198394775390625	3788.99297743371
0.30975341796875	-0.0199310302734375	3789.0372274336
0.305328369140625	-0.0200225830078125	3789.08147743349
0.3009033203125	-0.0201141357421875	3789.12572743338
0.296478271484375	-0.02020263671875	3789.16997743327
0.29205322265625	-0.0202911376953125	3789.21422743315
0.287628173828125	-0.02037353515625	3789.25847743304
0.283203125	-0.020458984375	3789.30272743293
0.278778076171875	-0.0205474853515625	3789.34697743282
0.27435302734375	-0.0206329345703125	3789.39122743271
0.269927978515625	-0.020721435546875	3789.4354774326
0.2655029296875	-0.020806884765625	3789.47972743248
0.261077880859375	-0.020892333984375	3789.52397743237
0.25665283203125	-0.020977783203125	3789.56822743226
0.252227783203125	-0.021063232421875	3789.61247743215
0.247802734375	-0.021142578125	3789.65672743204
0.243377685546875	-0.0212249755859375	3789.70097743192
0.23895263671875	-0.021307373046875	3789.74522743181
0.234527587890625	-0.02138671875	3789.7894774317
0.2301025390625	-0.021466064453125	3789.83372743159
0.225677490234375	-0.02154541015625	3789.87797743148
0.22125244140625	-0.021624755859375	3789.92222743137
0.216827392578125	-0.0217071533203125	3789.96647743125
0.21240234375	-0.0217864990234375	3790.01072743114
0.207977294921875	-0.0218658447265625	3790.05497743103
0.20355224609375	-0.021942138671875	3790.09922743092
0.199127197265625	-0.022021484375	3790.14347743081
0.1947021484375	-0.0220977783203125	3790.1877274307
0.190277099609375	-0.022174072265625	3790.23197743058
0.18585205078125	-0.0222503662109375	3790.27622743047
0.181427001953125	-0.0223236083984375	3790.32047743036
0.177001953125	-0.02239990234375	3790.36472743025
0.172576904296875	-0.02247314453125	3790.40897743014
0.16815185546875	-0.0225494384765625	3790.45322743003
0.163726806640625	-0.0226226806640625	3790.49747742991
0.1593017578125	-0.0226959228515625	3790.5417274298
0.154876708984375	-0.0227691650390625	3790.58597742969
0.15045166015625	-0.0228424072265625	3790.63022742958
0.146026611328125	-0.022918701171875	3790.67447742947
0.1416015625	-0.022991943359375	3790.71872742936
0.137176513671875	-0.0230621337890625	3790.76297742924
0.13275146484375	-0.02313232421875	3790.80722742913
0.128326416015625	-0.0232025146484375	3790.85147742902
0.1239013671875	-0.023272705078125	3790.89572742891
0.119476318359375	-0.0233428955078125	3790.9399774288
0.11505126953125	-0.0234100341796875	3790.98422742868
0.110626220703125	-0.0234771728515625	3791.02847742857
0.106201171875	-0.02354736328125	3791.07272742846
0.101776123046875	-0.0236175537109375	3791.11697742835
0.09735107421875	-0.023687744140625	3791.16122742824
0.092926025390625	-0.0237579345703125	3791.20547742813
0.0885009765625	-0.023828125	3791.24972742801
0.084075927734375	-0.0238983154296875	3791.2939774279
0.07965087890625	-0.0239654541015625	3791.33822742779
0.075225830078125	-0.024029541015625	3791.38247742768
0.07080078125	-0.0240966796875	3791.42672742757
0.066375732421875	-0.024163818359375	3791.47097742746
0.06195068359375	-0.0242279052734375	3791.51522742734
0.057525634765625	-0.024298095703125	3791.55947742723
0.0531005859375	-0.024365234375	3791.60372742712
0.048675537109375	-0.024432373046875	3791.64797742701
0.04425048828125	-0.02449951171875	3791.6922274269
0.039825439453125	-0.024566650390625	3791.73647742679
0.035400390625	-0.0246368408203125	3791.78072742667
0.030975341796875	-0.0247039794921875	3791.82497742656
0.02655029296875	-0.02476806640625	3791.86922742645
0.022125244140625	-0.024835205078125	3791.91347742634
0.0177001953125	-0.0248992919921875	3791.95772742623
0.013275146484375	-0.02496337890625	3792.00197742612
0.00885009765625	-0.0250274658203125	3792.046227426
0.004425048828125	-0.025091552734375	3792.09047742589
0	-0.02515869140625	3792.13472742578
0.004425048828125	-0.024346923828125	3792.17897742567
0.00885009765625	-0.02357177734375	3792.22322742556
0.013275146484375	-0.022821044921875	3792.26747742545
0.0177001953125	-0.0220947265625	3792.31172742533
0.022125244140625	-0.0213836669921875	3792.35597742522
0.02655029296875	-0.02069091796875	3792.40022742511
0.030975341796875	-0.020013427734375	3792.444477425
0.035400390625	-0.0193511962890625	3792.48872742489
0.039825439453125	-0.0187042236328125	3792.53297742477
0.04425048828125	-0.01806640625	3792.57722742466
0.048675537109375	-0.01744384765625	3792.62147742455
0.0531005859375	-0.016839599609375	3792.66572742444
0.057525634765625	-0.016241455078125	3792.70997742433
0.06195068359375	-0.015655517578125	3792.75422742422
0.066375732421875	-0.015081787109375	3792.7984774241
0.07080078125	-0.0145172119140625	3792.84272742399
0.075225830078125	-0.01396484375	3792.88697742388
0.07965087890625	-0.0134185791015625	3792.93122742377
0.084075927734375	-0.0128814697265625	3792.97547742366
0.0885009765625	-0.0123565673828125	3793.01972742355
0.092926025390625	-0.011834716796875	3793.06397742343
0.09735107421875	-0.0113250732421875	3793.10822742332
0.101776123046875	-0.01082763671875	3793.15247742321
0.106201171875	-0.010333251953125	3793.1967274231
0.110626220703125	-0.0098480224609375	3793.24097742299
0.11505126953125	-0.0093719482421875	3793.28522742288
0.119476318359375	-0.008905029296875	3793.32947742276
0.1239013671875	-0.008441162109375	3793.37372742265
0.128326416015625	-0.0079833984375	3793.41797742254
0.13275146484375	-0.007537841796875	3793.46222742243
0.137176513671875	-0.0070953369140625	3793.50647742232
0.1416015625	-0.0066619873046875	3793.55072742221
0.146026611328125	-0.006231689453125	3793.59497742209
0.15045166015625	-0.0058074951171875	3793.63922742198
0.154876708984375	-0.0053924560546875	3793.68347742187
0.1593017578125	-0.0049847412109375	3793.72772742176
0.163726806640625	-0.00458160400390625	3793.77197742165
0.16815185546875	-0.0041839599609375	3793.81622742153
0.172576904296875	-0.00379180908203125	3793.86047742142
0.177001953125	-0.00340606689453125	3793.90472742131
0.181427001953125	-0.0030364990234375	3793.9489774212
0.18585205078125	-0.00266021728515625	3793.99322742109
0.190277099609375	-0.0022882080078125	3794.03747742098
0.1947021484375	-0.00192230224609375	3794.08172742086
0.199127197265625	-0.0015618896484375	3794.12597742075
0.20355224609375	-0.0012060546875	3794.17022742064
0.207977294921875	-0.00085540771484375	3794.21447742053
0.21240234375	-0.00050994873046875	3794.25872742042
0.216827392578125	-0.000169952392578125	3794.30297742031
0.22125244140625	0.000165924072265625	3794.34722742019
0.225677490234375	0.00049713134765625	3794.39147742008
0.2301025390625	0.00082427978515625	3794.43572741997
0.234527587890625	0.00114593505859375	3794.47997741986
0.23895263671875	0.00146484375	3794.52422741975
0.243377685546875	0.00177947998046875	3794.56847741964
0.247802734375	0.00208892822265625	3794.61272741952
0.252227783203125	0.0023944091796875	3794.65697741941
0.25665283203125	0.00269439697265625	3794.7012274193
0.261077880859375	0.002991943359375	3794.74547741919
0.2655029296875	0.0032861328125	3794.78972741908
0.269927978515625	0.00357574462890625	3794.83397741897
0.27435302734375	0.00386077880859375	3794.87822741885
0.278778076171875	0.0041424560546875	3794.92247741874
0.283203125	0.00442108154296875	3794.96672741863
0.287628173828125	0.00469573974609375	3795.01097741852
0.29205322265625	0.004967041015625	3795.05522741841
0.296478271484375	0.0052349853515625	3795.0994774183
0.3009033203125	0.0054986572265625	3795.14372741818
0.305328369140625	0.00575927734375	3795.18797741807
0.30975341796875	0.0060162353515625	3795.23222741796
0.314178466796875	0.00626220703125	3795.27647741785
0.318603515625	0.006512451171875	3795.32072741774
0.323028564453125	0.0067596435546875	3795.36497741762
0.32745361328125	0.007000732421875	3795.40922741751
0.331878662109375	0.0072418212890625	3795.4534774174
0.3363037109375	0.0074798583984375	3795.49772741729
0.340728759765625	0.00771484375	3795.54197741718
0.34515380859375	0.007940673828125	3795.58622741707
0.349578857421875	0.0081695556640625	3795.63047741695
0.35400390625	0.008392333984375	3795.67472741684
0.358428955078125	0.0086151123046875	3795.71897741673
0.36285400390625	0.008831787109375	3795.76322741662
0.367279052734375	0.009051513671875	3795.80747741651
0.3717041015625	0.0092620849609375	3795.8517274164
0.376129150390625	0.00947265625	3795.89597741628
0.38055419921875	0.00968017578125	3795.94022741617
0.384979248046875	0.0098876953125	3795.98447741606
0.389404296875	0.0100921630859375	3796.02872741595
0.393829345703125	0.01029052734375	3796.07297741584
0.39825439453125	0.0104888916015625	3796.11722741573
0.402679443359375	0.0106842041015625	3796.16147741561
0.4071044921875	0.01087646484375	3796.2057274155
0.411529541015625	0.011065673828125	3796.24997741539
0.41595458984375	0.0112518310546875	3796.29422741528
0.420379638671875	0.01143798828125	3796.33847741517
0.4248046875	0.01162109375	3796.38272741505
0.429229736328125	0.01180419921875	3796.42697741494
0.43365478515625	0.011981201171875	3796.47122741483
0.438079833984375	0.012158203125	3796.51547741472
0.4425048828125	0.012335205078125	3796.55972741461
0.446929931640625	0.01251220703125	3796.6039774145
0.45135498046875	0.01268310546875	3796.64822741438
0.455780029296875	0.01285400390625	3796.69247741427
0.460205078125	0.013018798828125	3796.73672741416
0.464630126953125	0.0131866455078125	3796.78097741405
0.46905517578125	0.013348388671875	3796.82522741394
0.473480224609375	0.0135101318359375	3796.86947741383
0.4779052734375	0.013665771484375	3796.91372741371
0.482330322265625	0.0138214111328125	3796.9579774136
0.48675537109375	0.01397705078125	3797.00222741349
0.491180419921875	0.014129638671875	3797.04647741338
0.49560546875	0.0142822265625	3797.09072741327
0.500030517578125	0.0144317626953125	3797.13497741316
0.50445556640625	0.014581298828125	3797.17922741304
0.508880615234375	0.0147308349609375	3797.22347741293
0.5133056640625	0.0148773193359375	3797.26772741282
0.517730712890625	0.015020751953125	3797.31197741271
0.52215576171875	0.0151611328125	3797.3562274126
0.526580810546875	0.015301513671875	3797.40047741249
0.531005859375	0.0154388427734375	3797.44472741237
0.535430908203125	0.015576171875	3797.48897741226
0.53985595703125	0.0157073974609375	3797.53322741215
0.544281005859375	0.0158416748046875	3797.57747741204
0.5487060546875	0.0159698486328125	3797.62172741193
0.553131103515625	0.0161041259765625	3797.66597741182
0.55755615234375	0.0162322998046875	3797.7102274117
0.561981201171875	0.016363525390625	3797.75447741159
0.56640625	0.016485595703125	3797.79872741148
0.570831298828125	0.0166107177734375	3797.84297741137
0.57525634765625	0.0167327880859375	3797.88722741126
0.579681396484375	0.0168548583984375	3797.93147741114
0.5841064453125	0.016973876953125	3797.97572741103
0.588531494140625	0.01708984375	3798.01997741092
0.59295654296875	0.017205810546875	3798.06422741081
0.597381591796875	0.0173187255859375	3798.1084774107
0.601806640625	0.0174346923828125	3798.15272741059
0.606231689453125	0.017547607421875	3798.19697741047
0.61065673828125	0.01766357421875	3798.24122741036
0.615081787109375	0.0177764892578125	3798.28547741025
0.6195068359375	0.01788330078125	3798.32972741014
0.623931884765625	0.0179931640625	3798.37397741003
0.62835693359375	0.01810302734375	3798.41822740992
0.632781982421875	0.018206787109375	3798.4624774098
0.63720703125	0.018310546875	3798.50672740969
0.641632080078125	0.0184112548828125	3798.55097740958
0.64605712890625	0.0185150146484375	3798.59522740947
0.650482177734375	0.01861572265625	3798.63947740936
0.6549072265625	0.01871337890625	3798.68372740925
0.659332275390625	0.01881103515625	3798.72797740913
0.66375732421875	0.01890869140625	3798.77222740902
0.668182373046875	0.01900634765625	3798.81647740891
0.672607421875	0.0191009521484375	3798.8607274088
0.677032470703125	0.019195556640625	3798.90497740869
0.68145751953125	0.0192901611328125	3798.94922740858
0.685882568359375	0.019378662109375	3798.99347740846
0.6903076171875	0.01947021484375	3799.03772740835
0.694732666015625	0.0195556640625	3799.08197740824
0.69915771484375	0.0196441650390625	3799.12622740813
0.703582763671875	0.0197296142578125	3799.17047740802
0.7080078125	0.0198150634765625	3799.2147274079
0.712432861328125	0.0199005126953125	3799.25897740779
0.71685791015625	0.0199859619140625	3799.30322740768
0.721282958984375	0.020068359375	3799.34747740757
0.7257080078125	0.02015380859375	3799.39172740746
0.730133056640625	0.0202362060546875	3799.43597740735
0.73455810546875	0.0203155517578125	3799.48022740723
0.738983154296875	0.020391845703125	3799.52447740712
0.743408203125	0.020465087890625	3799.56872740701
0.747833251953125	0.0205413818359375	3799.6129774069
0.75225830078125	0.02061767578125	3799.65722740679
0.756683349609375	0.0206939697265625	3799.70147740668
0.7611083984375	0.0207672119140625	3799.74572740656
0.765533447265625	0.020843505859375	3799.78997740645
0.76995849609375	0.020916748046875	3799.83422740634
0.774383544921875	0.0209930419921875	3799.87847740623
0.77880859375	0.021063232421875	3799.92272740612
0.783233642578125	0.0211334228515625	3799.96697740601
0.78765869140625	0.02120361328125	3800.01122740589
0.792083740234375	0.0212738037109375	3800.05547740578
0.7965087890625	0.0213409423828125	3800.09972740567
0.800933837890625	0.0214111328125	3800.14397740556
0.80535888671875	0.021478271484375	3800.18822740545
0.809783935546875	0.02154541015625	3800.23247740534
0.814208984375	0.0216094970703125	3800.27672740522
0.818634033203125	0.0216766357421875	3800.32097740511
0.82305908203125	0.0217437744140625	3800.365227405
0.827484130859375	0.0218109130859375	3800.40947740489
0.8319091796875	0.021875	3800.45372740478
0.836334228515625	0.02193603515625	3800.49797740467
0.84075927734375	0.0220001220703125	3800.54222740455
0.845184326171875	0.022064208984375	3800.58647740444
0.849609375	0.022125244140625	3800.63072740433
0.854034423828125	0.022186279296875	3800.67497740422
0.85845947265625	0.022247314453125	3800.71922740411
0.862884521484375	0.022308349609375	3800.76347740399
0.8673095703125	0.0223724365234375	3800.80772740388
0.871734619140625	0.0224334716796875	3800.85197740377
0.87615966796875	0.0224945068359375	3800.89622740366
0.880584716796875	0.02255859375	3800.94047740355
0.885009765625	0.02261962890625	3800.98472740344
0.889434814453125	0.0226806640625	3801.02897740332
0.89385986328125	0.02274169921875	3801.07322740321
0.898284912109375	0.022802734375	3801.1174774031
0.9027099609375	0.0228607177734375	3801.16172740299
0.907135009765625	0.0229248046875	3801.20597740288
0.91156005859375	0.02298583984375	3801.25022740277
0.915985107421875	0.023046875	3801.29447740265
0.92041015625	0.0231048583984375	3801.33872740254
0.924835205078125	0.0231689453125	3801.38297740243
0.92926025390625	0.0232330322265625	3801.42722740232
0.933685302734375	0.023297119140625	3801.47147740221
0.9381103515625	0.0233642578125	3801.5157274021
0.942535400390625	0.0234283447265625	3801.55997740198
0.94696044921875	0.0234893798828125	3801.60422740187
0.951385498046875	0.023553466796875	3801.64847740176
0.955810546875	0.0236175537109375	3801.69272740165
0.960235595703125	0.023681640625	3801.73697740154
0.96466064453125	0.0237457275390625	3801.78122740142
0.969085693359375	0.0238128662109375	3801.82547740131
0.9735107421875	0.0238800048828125	3801.8697274012
0.977935791015625	0.0239471435546875	3801.91397740109
0.98236083984375	0.024017333984375	3801.95822740098
0.986785888671875	0.024090576171875	3802.00247740087
0.9912109375	0.024163818359375	3802.04672740075
0.995635986328125	0.024237060546875	3802.09097740064
1.00006103515625	0.024310302734375	3802.13522740053
0.995635986328125	0.0235015869140625	3802.17947740042
0.9912109375	0.0227325439453125	3802.22372740031
0.986785888671875	0.02198486328125	3802.2679774002
0.98236083984375	0.0212615966796875	3802.31222740008
0.977935791015625	0.020556640625	3802.35647739997
0.9735107421875	0.0198760986328125	3802.40072739986
0.969085693359375	0.019207763671875	3802.44497739975
0.96466064453125	0.0185546875	3802.48922739964
0.960235595703125	0.0179168701171875	3802.53347739953
0.955810546875	0.017291259765625	3802.57772739941
0.951385498046875	0.0166839599609375	3802.6219773993
0.94696044921875	0.0160858154296875	3802.66622739919
0.942535400390625	0.0154998779296875	3802.71047739908
0.9381103515625	0.0149200439453125	3802.75472739897
0.933685302734375	0.014349365234375	3802.79897739886
0.92926025390625	0.0137969970703125	3802.84322739874
0.924835205078125	0.013250732421875	3802.88747739863
0.92041015625	0.0127105712890625	3802.93172739852
0.915985107421875	0.0121826171875	3802.97597739841
0.91156005859375	0.0116668701171875	3803.0202273983
0.907135009765625	0.0111541748046875	3803.06447739819
0.9027099609375	0.01065673828125	3803.10872739807
0.898284912109375	0.0101654052734375	3803.15297739796
0.89385986328125	0.00968017578125	3803.19722739785
0.889434814453125	0.0092041015625	3803.24147739774
0.885009765625	0.0087310791015625	3803.28572739763
0.880584716796875	0.008270263671875	3803.32997739751
0.87615966796875	0.0078125	3803.3742273974
0.871734619140625	0.0073638916015625	3803.41847739729
0.8673095703125	0.0069244384765625	3803.46272739718
0.862884521484375	0.006488037109375	3803.50697739707
0.85845947265625	0.006060791015625	3803.55122739696
0.854034423828125	0.0056365966796875	3803.59547739684
0.849609375	0.0052215576171875	3803.63972739673
0.845184326171875	0.0048114013671875	3803.68397739662
0.84075927734375	0.00440765380859375	3803.72822739651
0.836334228515625	0.0040093994140625	3803.7724773964
0.8319091796875	0.00361724853515625	3803.81672739629
0.827484130859375	0.00323089599609375	3803.86097739617
0.82305908203125	0.00285125732421875	3803.90522739606
0.818634033203125	0.0024749755859375	3803.94947739595
0.814208984375	0.002103271484375	3803.99372739584
0.809783935546875	0.0017376708984375	3804.03797739573
0.80535888671875	0.0013775634765625	3804.08222739562
0.800933837890625	0.0010223388671875	3804.1264773955
0.7965087890625	0.000672607421875	3804.17072739539
0.792083740234375	0.000327362060546875	3804.21497739528
0.78765869140625	-1.2799072265625E-05	3804.25922739517
0.783233642578125	-0.000348663330078125	3804.30347739506
0.77880859375	-0.00067901611328125	3804.34772739495
0.774383544921875	-0.0010052490234375	3804.39197739483
0.76995849609375	-0.001326904296875	3804.43622739472
0.765533447265625	-0.001644287109375	3804.48047739461
0.7611083984375	-0.001956787109375	3804.5247273945
0.756683349609375	-0.0022650146484375	3804.56897739439
0.75225830078125	-0.00256866455078125	3804.61322739427
0.747833251953125	-0.0028680419921875	3804.65747739416
0.743408203125	-0.00316314697265625	3804.70172739405
0.738983154296875	-0.00345184326171875	3804.74597739394
0.73455810546875	-0.00373931884765625	3804.79022739383
0.730133056640625	-0.0040228271484375	3804.83447739372
0.7257080078125	-0.0043017578125	3804.8787273936
0.721282958984375	-0.0045770263671875	3804.92297739349
0.71685791015625	-0.0048480224609375	3804.96722739338
0.712432861328125	-0.005115966796875	3805.01147739327
0.7080078125	-0.00537933349609375	3805.05572739316
0.703582763671875	-0.00563873291015625	3805.09997739305
0.69915771484375	-0.00589324951171875	3805.14422739293
0.694732666015625	-0.00614501953125	3805.18847739282
0.6903076171875	-0.0063720703125	3805.23272739271
0.685882568359375	-0.0066162109375	3805.2769773926
0.68145751953125	-0.0068603515625	3805.32122739249
0.677032470703125	-0.007098388671875	3805.36547739238
0.672607421875	-0.0073333740234375	3805.40972739226
0.668182373046875	-0.0075653076171875	3805.45397739215
0.66375732421875	-0.007794189453125	3805.49822739204
0.659332275390625	-0.008013916015625	3805.54247739193
0.6549072265625	-0.00823974609375	3805.58672739182
0.650482177734375	-0.0084564208984375	3805.63097739171
0.64605712890625	-0.0086700439453125	3805.67522739159
0.641632080078125	-0.0088836669921875	3805.71947739148
0.63720703125	-0.00909423828125	3805.76372739137
0.632781982421875	-0.0093017578125	3805.80797739126
0.62835693359375	-0.0095062255859375	3805.85222739115
0.623931884765625	-0.009710693359375	3805.89647739104
0.6195068359375	-0.009912109375	3805.94072739092
0.615081787109375	-0.010107421875	3805.98497739081
0.61065673828125	-0.0102996826171875	3806.0292273907
0.606231689453125	-0.010491943359375	3806.07347739059
0.601806640625	-0.01068115234375	3806.11772739048
0.597381591796875	-0.0108642578125	3806.16197739036
0.59295654296875	-0.0110443115234375	3806.20622739025
0.588531494140625	-0.011224365234375	3806.25047739014
0.5841064453125	-0.0114013671875	3806.29472739003
0.579681396484375	-0.0115814208984375	3806.33897738992
0.57525634765625	-0.0117523193359375	3806.38322738981
0.570831298828125	-0.01192626953125	3806.42747738969
0.56640625	-0.0120941162109375	3806.47172738958
0.561981201171875	-0.012261962890625	3806.51597738947
0.55755615234375	-0.0124298095703125	3806.56022738936
0.553131103515625	-0.012591552734375	3806.60447738925
0.5487060546875	-0.0127532958984375	3806.64872738914
0.544281005859375	-0.0129119873046875	3806.69297738902
0.53985595703125	-0.0130706787109375	3806.73722738891
0.535430908203125	-0.0132293701171875	3806.7814773888
0.531005859375	-0.0133819580078125	3806.82572738869
0.526580810546875	-0.013531494140625	3806.86997738858
0.52215576171875	-0.01368408203125	3806.91422738847
0.517730712890625	-0.0138336181640625	3806.95847738835
0.5133056640625	-0.013983154296875	3807.00272738824
0.508880615234375	-0.01412353515625	3807.04697738813
0.50445556640625	-0.0142669677734375	3807.09122738802
0.500030517578125	-0.014410400390625	3807.13547738791
0.49560546875	-0.01455078125	3807.1797273878
0.491180419921875	-0.0146881103515625	3807.22397738768
0.48675537109375	-0.014825439453125	3807.26822738757
0.482330322265625	-0.014959716796875	3807.31247738746
0.4779052734375	-0.015093994140625	3807.35672738735
0.473480224609375	-0.0152252197265625	3807.40097738724
0.46905517578125	-0.0153564453125	3807.44522738712
0.464630126953125	-0.015484619140625	3807.48947738701
0.460205078125	-0.01561279296875	3807.5337273869
0.455780029296875	-0.015740966796875	3807.57797738679
0.45135498046875	-0.0158660888671875	3807.62222738668
0.446929931640625	-0.0159912109375	3807.66647738657
0.4425048828125	-0.01611328125	3807.71072738645
0.438079833984375	-0.0162353515625	3807.75497738634
0.43365478515625	-0.0163543701171875	3807.79922738623
0.429229736328125	-0.016473388671875	3807.84347738612
0.4248046875	-0.0165924072265625	3807.88772738601
0.420379638671875	-0.0167083740234375	3807.9319773859
0.41595458984375	-0.016827392578125	3807.97622738578
0.411529541015625	-0.0169403076171875	3808.02047738567
0.4071044921875	-0.0170562744140625	3808.06472738556
0.402679443359375	-0.017169189453125	3808.10897738545
0.39825439453125	-0.017279052734375	3808.15322738534
0.393829345703125	-0.0173919677734375	3808.19747738523
0.389404296875	-0.0175018310546875	3808.24172738511
0.384979248046875	-0.0176116943359375	3808.285977385
0.38055419921875	-0.017718505859375	3808.33022738489
0.376129150390625	-0.0178253173828125	3808.37447738478
0.3717041015625	-0.01793212890625	3808.41872738467
0.367279052734375	-0.018035888671875	3808.46297738456
0.36285400390625	-0.0181396484375	3808.50722738444
0.358428955078125	-0.0182464599609375	3808.55147738433
0.35400390625	-0.0183502197265625	3808.59572738422
0.349578857421875	-0.018450927734375	3808.63997738411
0.34515380859375	-0.0185546875	3808.684227384
0.340728759765625	-0.0186553955078125	3808.72847738389
0.3363037109375	-0.018756103515625	3808.77272738377
0.331878662109375	-0.018853759765625	3808.81697738366
0.32745361328125	-0.0189544677734375	3808.86122738355
0.323028564453125	-0.0190521240234375	3808.90547738344
0.318603515625	-0.0191497802734375	3808.94972738333
0.314178466796875	-0.019244384765625	3808.99397738321
0.30975341796875	-0.019342041015625	3809.0382273831
0.305328369140625	-0.019439697265625	3809.08247738299
0.3009033203125	-0.0195343017578125	3809.12672738288
0.296478271484375	-0.0196319580078125	3809.17097738277
0.29205322265625	-0.0197235107421875	3809.21522738266
0.287628173828125	-0.0198150634765625	3809.25947738254
0.283203125	-0.01990966796875	3809.30372738243
0.278778076171875	-0.020001220703125	3809.34797738232
0.27435302734375	-0.0200927734375	3809.39222738221
0.269927978515625	-0.02017822265625	3809.4364773821
0.2655029296875	-0.0202667236328125	3809.48072738199
0.261077880859375	-0.0203521728515625	3809.52497738187
0.25665283203125	-0.020440673828125	3809.56922738176
0.252227783203125	-0.0205291748046875	3809.61347738165
0.247802734375	-0.0206146240234375	3809.65772738154
0.243377685546875	-0.020703125	3809.70197738143
0.23895263671875	-0.02078857421875	3809.74622738132
0.234527587890625	-0.0208770751953125	3809.7904773812
0.2301025390625	-0.02095947265625	3809.83472738109
0.225677490234375	-0.021044921875	3809.87897738098
0.22125244140625	-0.021124267578125	3809.92322738087
0.216827392578125	-0.0212066650390625	3809.96747738076
0.21240234375	-0.0212890625	3810.01172738064
0.207977294921875	-0.021368408203125	3810.05597738053
0.20355224609375	-0.0214508056640625	3810.10022738042
0.199127197265625	-0.0215301513671875	3810.14447738031
0.1947021484375	-0.021612548828125	3810.1887273802
0.190277099609375	-0.02169189453125	3810.23297738009
0.18585205078125	-0.0217742919921875	3810.27722737997
0.181427001953125	-0.0218536376953125	3810.32147737986
0.177001953125	-0.021929931640625	3810.36572737975
0.172576904296875	-0.0220062255859375	3810.40997737964
0.16815185546875	-0.02208251953125	3810.45422737953
0.163726806640625	-0.0221588134765625	3810.49847737942
0.1593017578125	-0.0222320556640625	3810.5427273793
0.154876708984375	-0.0223052978515625	3810.58697737919
0.15045166015625	-0.022381591796875	3810.63122737908
0.146026611328125	-0.022454833984375	3810.67547737897
0.1416015625	-0.0225341796875	3810.71972737886
0.137176513671875	-0.022607421875	3810.76397737875
0.13275146484375	-0.0226806640625	3810.80822737863
0.128326416015625	-0.02275390625	3810.85247737852
0.1239013671875	-0.0228271484375	3810.89672737841
0.119476318359375	-0.022900390625	3810.9409773783
0.11505126953125	-0.022967529296875	3810.98522737819
0.110626220703125	-0.0230377197265625	3811.02947737808
0.106201171875	-0.02310791015625	3811.07372737796
0.101776123046875	-0.0231781005859375	3811.11797737785
0.09735107421875	-0.023248291015625	3811.16222737774
0.092926025390625	-0.0233184814453125	3811.20647737763
0.0885009765625	-0.023388671875	3811.25072737752
0.084075927734375	-0.0234588623046875	3811.29497737741
0.07965087890625	-0.0235260009765625	3811.33922737729
0.075225830078125	-0.02359619140625	3811.38347737718
0.07080078125	-0.0236663818359375	3811.42772737707
0.066375732421875	-0.023736572265625	3811.47197737696
0.06195068359375	-0.0238037109375	3811.51622737685
0.057525634765625	-0.023870849609375	3811.56047737673
0.0531005859375	-0.02393798828125	3811.60472737662
0.048675537109375	-0.024005126953125	3811.64897737651
0.04425048828125	-0.024072265625	3811.6932273764
0.039825439453125	-0.024139404296875	3811.73747737629
0.035400390625	-0.02420654296875	3811.78172737618
0.030975341796875	-0.024273681640625	3811.82597737606
0.02655029296875	-0.0243408203125	3811.87022737595
0.022125244140625	-0.0244110107421875	3811.91447737584
0.0177001953125	-0.0244781494140625	3811.95872737573
0.013275146484375	-0.0245452880859375	3812.00297737562
0.00885009765625	-0.0246124267578125	3812.04722737551
0.004425048828125	-0.0246795654296875	3812.09147737539
0	-0.02474365234375	3812.13572737528
0.004425048828125	-0.0239288330078125	3812.17997737517
0.00885009765625	-0.02315673828125	3812.22422737506
0.013275146484375	-0.0224029541015625	3812.26847737495
0.0177001953125	-0.0216766357421875	3812.31272737484
0.022125244140625	-0.020965576171875	3812.35697737472
0.02655029296875	-0.0202789306640625	3812.40122737461
0.030975341796875	-0.0196044921875	3812.4454773745
0.035400390625	-0.0189422607421875	3812.48972737439
0.039825439453125	-0.0182952880859375	3812.53397737428
0.04425048828125	-0.01766357421875	3812.57822737417
0.048675537109375	-0.017047119140625	3812.62247737405
0.0531005859375	-0.0164337158203125	3812.66672737394
0.057525634765625	-0.015838623046875	3812.71097737383
0.06195068359375	-0.0152557373046875	3812.75522737372
0.066375732421875	-0.014678955078125	3812.79947737361
0.07080078125	-0.014117431640625	3812.84372737349
0.075225830078125	-0.0135650634765625	3812.88797737338
0.07965087890625	-0.01302490234375	3812.93222737327
0.084075927734375	-0.0124908447265625	3812.97647737316
0.0885009765625	-0.0119659423828125	3813.02072737305
0.092926025390625	-0.0114501953125	3813.06497737294
0.09735107421875	-0.0109405517578125	3813.10922737282
0.101776123046875	-0.010443115234375	3813.15347737271
0.106201171875	-0.0099517822265625	3813.1977273726
0.110626220703125	-0.009466552734375	3813.24197737249
0.11505126953125	-0.0089935302734375	3813.28622737238
0.119476318359375	-0.0085296630859375	3813.33047737227
0.1239013671875	-0.0080657958984375	3813.37472737215
0.128326416015625	-0.0076171875	3813.41897737204
0.13275146484375	-0.0071685791015625	3813.46322737193
0.137176513671875	-0.006732177734375	3813.50747737182
0.1416015625	-0.006298828125	3813.55172737171
0.146026611328125	-0.00587158203125	3813.5959773716
0.15045166015625	-0.0054534912109375	3813.64022737148
0.154876708984375	-0.0050384521484375	3813.68447737137
0.1593017578125	-0.00463287353515625	3813.72872737126
0.163726806640625	-0.00423095703125	3813.77297737115
0.16815185546875	-0.00383544921875	3813.81722737104
0.172576904296875	-0.00344573974609375	3813.86147737093
0.177001953125	-0.0030621337890625	3813.90572737081
0.181427001953125	-0.002694091796875	3813.9499773707
0.18585205078125	-0.00232147216796875	3813.99422737059
0.190277099609375	-0.00195281982421875	3814.03847737048
0.1947021484375	-0.00158966064453125	3814.08272737037
0.199127197265625	-0.001231689453125	3814.12697737026
0.20355224609375	-0.00087860107421875	3814.17122737014
0.207977294921875	-0.00053070068359375	3814.21547737003
0.21240234375	-0.000187530517578125	3814.25972736992
0.216827392578125	0.000150848388671875	3814.30397736981
0.22125244140625	0.000484619140625	3814.3482273697
0.225677490234375	0.00081390380859375	3814.39247736958
0.2301025390625	0.001138916015625	3814.43672736947
0.234527587890625	0.00145751953125	3814.48097736936
0.23895263671875	0.0017730712890625	3814.52522736925
0.243377685546875	0.0020843505859375	3814.56947736914
0.247802734375	0.0023907470703125	3814.61372736903
0.252227783203125	0.00269317626953125	3814.65797736891
0.25665283203125	0.00299224853515625	3814.7022273688
0.261077880859375	0.0032891845703125	3814.74647736869
0.2655029296875	0.00358001708984375	3814.79072736858
0.269927978515625	0.0038671875	3814.83497736847
0.27435302734375	0.00415008544921875	3814.87922736836
0.278778076171875	0.00442962646484375	3814.92347736824
0.283203125	0.00470489501953125	3814.96772736813
0.287628173828125	0.004976806640625	3815.01197736802
0.29205322265625	0.005245361328125	3815.05622736791
0.296478271484375	0.00551025390625	3815.1004773678
0.3009033203125	0.0057720947265625	3815.14472736769
0.305328369140625	0.00603057861328125	3815.18897736757
0.30975341796875	0.0062744140625	3815.23322736746
0.314178466796875	0.00653076171875	3815.27747736735
0.318603515625	0.0067779541015625	3815.32172736724
0.323028564453125	0.0070220947265625	3815.36597736713
0.32745361328125	0.00726318359375	3815.41022736702
0.331878662109375	0.007501220703125	3815.4544773669
0.3363037109375	0.0077362060546875	3815.49872736679
0.340728759765625	0.0079620361328125	3815.54297736668
0.34515380859375	0.00819091796875	3815.58722736657
0.349578857421875	0.008416748046875	3815.63147736646
0.35400390625	0.008636474609375	3815.67572736634
0.358428955078125	0.008856201171875	3815.71997736623
0.36285400390625	0.009075927734375	3815.76422736612
0.367279052734375	0.00928955078125	3815.80847736601
0.3717041015625	0.0095001220703125	3815.8527273659
0.376129150390625	0.0097076416015625	3815.89697736579
0.38055419921875	0.0099151611328125	3815.94122736567
0.384979248046875	0.0101165771484375	3815.98547736556
0.389404296875	0.0103179931640625	3816.02972736545
0.393829345703125	0.010516357421875	3816.07397736534
0.39825439453125	0.010711669921875	3816.11822736523
0.402679443359375	0.0109039306640625	3816.16247736512
0.4071044921875	0.0110931396484375	3816.206727365
0.411529541015625	0.0112823486328125	3816.25097736489
0.41595458984375	0.011468505859375	3816.29522736478
0.420379638671875	0.011651611328125	3816.33947736467
0.4248046875	0.0118316650390625	3816.38372736456
0.429229736328125	0.0120147705078125	3816.42797736445
0.43365478515625	0.01219482421875	3816.47222736433
0.438079833984375	0.012371826171875	3816.51647736422
0.4425048828125	0.012542724609375	3816.56072736411
0.446929931640625	0.012713623046875	3816.604977364
0.45135498046875	0.012884521484375	3816.64922736389
0.455780029296875	0.0130523681640625	3816.69347736378
0.460205078125	0.0132171630859375	3816.73772736366
0.464630126953125	0.0133819580078125	3816.78197736355
0.46905517578125	0.013543701171875	3816.82622736344
0.473480224609375	0.013702392578125	3816.87047736333
0.4779052734375	0.0138580322265625	3816.91472736322
0.482330322265625	0.0140167236328125	3816.95897736311
0.48675537109375	0.014166259765625	3817.00322736299
0.491180419921875	0.0143157958984375	3817.04747736288
0.49560546875	0.01446533203125	3817.09172736277
0.500030517578125	0.0146148681640625	3817.13597736266
0.50445556640625	0.014764404296875	3817.18022736255
0.508880615234375	0.01490478515625	3817.22447736243
0.5133056640625	0.01505126953125	3817.26872736232
0.517730712890625	0.015191650390625	3817.31297736221
0.52215576171875	0.01533203125	3817.3572273621
0.526580810546875	0.015472412109375	3817.40147736199
0.531005859375	0.0156097412109375	3817.44572736188
0.535430908203125	0.015740966796875	3817.48997736176
0.53985595703125	0.015875244140625	3817.53422736165
0.544281005859375	0.0160064697265625	3817.57847736154
0.5487060546875	0.0161346435546875	3817.62272736143
0.553131103515625	0.0162628173828125	3817.66697736132
0.55755615234375	0.0163909912109375	3817.71122736121
0.561981201171875	0.01651611328125	3817.75547736109
0.56640625	0.01663818359375	3817.79972736098
0.570831298828125	0.01676025390625	3817.84397736087
0.57525634765625	0.01688232421875	3817.88822736076
0.579681396484375	0.01700439453125	3817.93247736065
0.5841064453125	0.01712646484375	3817.97672736054
0.588531494140625	0.0172393798828125	3818.02097736042
0.59295654296875	0.017352294921875	3818.06522736031
0.597381591796875	0.01746826171875	3818.1094773602
0.601806640625	0.0175811767578125	3818.15372736009
0.606231689453125	0.017694091796875	3818.19797735998
0.61065673828125	0.017803955078125	3818.24222735986
0.615081787109375	0.017913818359375	3818.28647735975
0.6195068359375	0.018017578125	3818.33072735964
0.623931884765625	0.01812744140625	3818.37497735953
0.62835693359375	0.0182373046875	3818.41922735942
0.632781982421875	0.018341064453125	3818.46347735931
0.63720703125	0.0184478759765625	3818.50772735919
0.641632080078125	0.018548583984375	3818.55197735908
0.64605712890625	0.0186492919921875	3818.59622735897
0.650482177734375	0.018743896484375	3818.64047735886
0.6549072265625	0.018841552734375	3818.68472735875
0.659332275390625	0.018939208984375	3818.72897735864
0.66375732421875	0.0190338134765625	3818.77322735852
0.668182373046875	0.01912841796875	3818.81747735841
0.672607421875	0.019219970703125	3818.8617273583
0.677032470703125	0.0193115234375	3818.90597735819
0.68145751953125	0.0194061279296875	3818.95022735808
0.685882568359375	0.0194976806640625	3818.99447735797
0.6903076171875	0.019586181640625	3819.03872735785
0.694732666015625	0.0196746826171875	3819.08297735774
0.69915771484375	0.01976318359375	3819.12722735763
0.703582763671875	0.0198486328125	3819.17147735752
0.7080078125	0.01993408203125	3819.21572735741
0.712432861328125	0.0200164794921875	3819.2599773573
0.71685791015625	0.0200958251953125	3819.30422735718
0.721282958984375	0.0201751708984375	3819.34847735707
0.7257080078125	0.020257568359375	3819.39272735696
0.730133056640625	0.0203338623046875	3819.43697735685
0.73455810546875	0.020416259765625	3819.48122735674
0.738983154296875	0.02049560546875	3819.52547735663
0.743408203125	0.02056884765625	3819.56972735651
0.747833251953125	0.0206451416015625	3819.6139773564
0.75225830078125	0.020721435546875	3819.65822735629
0.756683349609375	0.020794677734375	3819.70247735618
0.7611083984375	0.020867919921875	3819.74672735607
0.765533447265625	0.020941162109375	3819.79097735595
0.76995849609375	0.0210113525390625	3819.83522735584
0.774383544921875	0.0210845947265625	3819.87947735573
0.77880859375	0.02115478515625	3819.92372735562
0.783233642578125	0.0212249755859375	3819.96797735551
0.78765869140625	0.0212921142578125	3820.0122273554
0.792083740234375	0.0213623046875	3820.05647735528
0.7965087890625	0.021429443359375	3820.10072735517
0.800933837890625	0.0214996337890625	3820.14497735506
0.80535888671875	0.0215667724609375	3820.18922735495
0.809783935546875	0.021630859375	3820.23347735484
0.814208984375	0.0216949462890625	3820.27772735473
0.818634033203125	0.0217620849609375	3820.32197735461
0.82305908203125	0.021826171875	3820.3662273545
0.827484130859375	0.02188720703125	3820.41047735439
0.8319091796875	0.0219482421875	3820.45472735428
0.836334228515625	0.0220123291015625	3820.49897735417
0.84075927734375	0.022076416015625	3820.54322735406
0.845184326171875	0.022137451171875	3820.58747735394
0.849609375	0.022198486328125	3820.63172735383
0.854034423828125	0.0222625732421875	3820.67597735372
0.85845947265625	0.0223236083984375	3820.72022735361
0.862884521484375	0.0223846435546875	3820.7644773535
0.8673095703125	0.022442626953125	3820.80872735339
0.871734619140625	0.022503662109375	3820.85297735327
0.87615966796875	0.0225616455078125	3820.89722735316
0.880584716796875	0.0226226806640625	3820.94147735305
0.885009765625	0.0226806640625	3820.98572735294
0.889434814453125	0.02274169921875	3821.02997735283
0.89385986328125	0.022802734375	3821.07422735271
0.898284912109375	0.0228607177734375	3821.1184773526
0.9027099609375	0.0229217529296875	3821.16272735249
0.907135009765625	0.0229827880859375	3821.20697735238
0.91156005859375	0.0230438232421875	3821.25122735227
0.915985107421875	0.02310791015625	3821.29547735216
0.92041015625	0.0231658935546875	3821.33972735204
0.924835205078125	0.0232269287109375	3821.38397735193
0.92926025390625	0.0232879638671875	3821.42822735182
0.933685302734375	0.02335205078125	3821.47247735171
0.9381103515625	0.0234130859375	3821.5167273516
0.942535400390625	0.02347412109375	3821.56097735149
0.94696044921875	0.0235382080078125	3821.60522735137
0.951385498046875	0.023602294921875	3821.64947735126
0.955810546875	0.0236663818359375	3821.69372735115
0.960235595703125	0.02373046875	3821.73797735104
0.96466064453125	0.023797607421875	3821.78222735093
0.969085693359375	0.0238677978515625	3821.82647735082
0.9735107421875	0.0239349365234375	3821.8707273507
0.977935791015625	0.0239990234375	3821.91497735059
0.98236083984375	0.0240692138671875	3821.95922735048
0.986785888671875	0.024139404296875	3822.00347735037
0.9912109375	0.0242095947265625	3822.04772735026
0.995635986328125	0.02427978515625	3822.09197735015
1.00006103515625	0.02435302734375	3822.13622735003
0.995635986328125	0.0235443115234375	3822.18047734992
0.9912109375	0.0227752685546875	3822.22472734981
0.986785888671875	0.022027587890625	3822.2689773497
0.98236083984375	0.021307373046875	3822.31322734959
0.977935791015625	0.0206024169921875	3822.35747734948
0.9735107421875	0.019921875	3822.40172734936
0.969085693359375	0.019256591796875	3822.44597734925
0.96466064453125	0.0186004638671875	3822.49022734914
0.960235595703125	0.017962646484375	3822.53447734903
0.955810546875	0.017333984375	3822.57872734892
0.951385498046875	0.0167266845703125	3822.6229773488
0.94696044921875	0.01612548828125	3822.66722734869
0.942535400390625	0.0155364990234375	3822.71147734858
0.9381103515625	0.0149627685546875	3822.75572734847
0.933685302734375	0.01439208984375	3822.79997734836
0.92926025390625	0.0138397216796875	3822.84422734825
0.924835205078125	0.0132904052734375	3822.88847734813
0.92041015625	0.0127532958984375	3822.93272734802
0.915985107421875	0.0122283935546875	3822.97697734791
0.91156005859375	0.011712646484375	3823.0212273478
0.907135009765625	0.0111968994140625	3823.06547734769
0.9027099609375	0.0106964111328125	3823.10972734758
0.898284912109375	0.010205078125	3823.15397734746
0.89385986328125	0.0097198486328125	3823.19822734735
0.889434814453125	0.0092437744140625	3823.24247734724
0.885009765625	0.008770751953125	3823.28672734713
0.880584716796875	0.008306884765625	3823.33097734702
0.87615966796875	0.0078521728515625	3823.37522734691
0.871734619140625	0.0074066162109375	3823.41947734679
0.8673095703125	0.006964111328125	3823.46372734668
0.862884521484375	0.0065277099609375	3823.50797734657
0.85845947265625	0.0061004638671875	3823.55222734646
0.854034423828125	0.00567626953125	3823.59647734635
0.849609375	0.00526123046875	3823.64072734624
0.845184326171875	0.00484954833984375	3823.68497734612
0.84075927734375	0.00444549560546875	3823.72922734601
0.836334228515625	0.00404815673828125	3823.7734773459
0.8319091796875	0.0036553955078125	3823.81772734579
0.827484130859375	0.00326904296875	3823.86197734568
0.82305908203125	0.00289031982421875	3823.90622734556
0.818634033203125	0.00251434326171875	3823.95047734545
0.814208984375	0.00214324951171875	3823.99472734534
0.809783935546875	0.00177764892578125	3824.03897734523
0.80535888671875	0.0014166259765625	3824.08322734512
0.800933837890625	0.00106170654296875	3824.12747734501
0.7965087890625	0.0007110595703125	3824.17172734489
0.792083740234375	0.000365203857421875	3824.21597734478
0.78765869140625	2.4884033203125E-05	3824.26022734467
0.783233642578125	-0.000310699462890625	3824.30447734456
0.77880859375	-0.0006402587890625	3824.34872734445
0.774383544921875	-0.00096649169921875	3824.39297734434
0.76995849609375	-0.00128814697265625	3824.43722734422
0.765533447265625	-0.00160552978515625	3824.48147734411
0.7611083984375	-0.00191802978515625	3824.525727344
0.756683349609375	-0.00222625732421875	3824.56997734389
0.75225830078125	-0.00253021240234375	3824.61422734378
0.747833251953125	-0.00282958984375	3824.65847734367
0.743408203125	-0.00312530517578125	3824.70272734355
0.738983154296875	-0.00341400146484375	3824.74697734344
0.73455810546875	-0.00370147705078125	3824.79122734333
0.730133056640625	-0.00398406982421875	3824.83547734322
0.7257080078125	-0.0042633056640625	3824.87972734311
0.721282958984375	-0.0045379638671875	3824.923977343
0.71685791015625	-0.00480926513671875	3824.96822734288
0.712432861328125	-0.00507659912109375	3825.01247734277
0.7080078125	-0.00534088134765625	3825.05672734266
0.703582763671875	-0.0056005859375	3825.10097734255
0.69915771484375	-0.00585540771484375	3825.14522734244
0.694732666015625	-0.0061077880859375	3825.18947734233
0.6903076171875	-0.0063323974609375	3825.23372734221
0.685882568359375	-0.00657958984375	3825.2779773421
0.68145751953125	-0.0068206787109375	3825.32222734199
0.677032470703125	-0.0070587158203125	3825.36647734188
0.672607421875	-0.007293701171875	3825.41072734177
0.668182373046875	-0.007525634765625	3825.45497734165
0.66375732421875	-0.0077545166015625	3825.49922734154
0.659332275390625	-0.0079742431640625	3825.54347734143
0.6549072265625	-0.008197021484375	3825.58772734132
0.650482177734375	-0.008416748046875	3825.63197734121
0.64605712890625	-0.00863037109375	3825.6762273411
0.641632080078125	-0.008843994140625	3825.72047734098
0.63720703125	-0.0090545654296875	3825.76472734087
0.632781982421875	-0.0092620849609375	3825.80897734076
0.62835693359375	-0.0094635009765625	3825.85322734065
0.623931884765625	-0.00966796875	3825.89747734054
0.6195068359375	-0.0098663330078125	3825.94172734043
0.615081787109375	-0.010064697265625	3825.98597734031
0.61065673828125	-0.0102569580078125	3826.0302273402
0.606231689453125	-0.0104461669921875	3826.07447734009
0.601806640625	-0.0106353759765625	3826.11872733998
0.597381591796875	-0.010821533203125	3826.16297733987
0.59295654296875	-0.0110015869140625	3826.20722733976
0.588531494140625	-0.011181640625	3826.25147733964
0.5841064453125	-0.011358642578125	3826.29572733953
0.579681396484375	-0.01153564453125	3826.33997733942
0.57525634765625	-0.0117095947265625	3826.38422733931
0.570831298828125	-0.0118804931640625	3826.4284773392
0.56640625	-0.0120513916015625	3826.47272733908
0.561981201171875	-0.01221923828125	3826.51697733897
0.55755615234375	-0.012384033203125	3826.56122733886
0.553131103515625	-0.012542724609375	3826.60547733875
0.5487060546875	-0.0127044677734375	3826.64972733864
0.544281005859375	-0.0128631591796875	3826.69397733853
0.53985595703125	-0.01302490234375	3826.73822733841
0.535430908203125	-0.01318359375	3826.7824773383
0.531005859375	-0.013336181640625	3826.82672733819
0.526580810546875	-0.0134857177734375	3826.87097733808
0.52215576171875	-0.01363525390625	3826.91522733797
0.517730712890625	-0.0137847900390625	3826.95947733786
0.5133056640625	-0.0139312744140625	3827.00372733774
0.508880615234375	-0.01407470703125	3827.04797733763
0.50445556640625	-0.0142181396484375	3827.09222733752
0.500030517578125	-0.0143585205078125	3827.13647733741
0.49560546875	-0.0144989013671875	3827.1807273373
0.491180419921875	-0.0146392822265625	3827.22497733719
0.48675537109375	-0.0147796630859375	3827.26922733707
0.482330322265625	-0.0149139404296875	3827.31347733696
0.4779052734375	-0.0150482177734375	3827.35772733685
0.473480224609375	-0.015179443359375	3827.40197733674
0.46905517578125	-0.0153076171875	3827.44622733663
0.464630126953125	-0.015435791015625	3827.49047733652
0.460205078125	-0.01556396484375	3827.5347273364
0.455780029296875	-0.0156890869140625	3827.57897733629
0.45135498046875	-0.015814208984375	3827.62322733618
0.446929931640625	-0.0159393310546875	3827.66747733607
0.4425048828125	-0.0160614013671875	3827.71172733596
0.438079833984375	-0.0161834716796875	3827.75597733585
0.43365478515625	-0.0163055419921875	3827.80022733573
0.429229736328125	-0.0164215087890625	3827.84447733562
0.4248046875	-0.0165435791015625	3827.88872733551
0.420379638671875	-0.0166595458984375	3827.9329773354
0.41595458984375	-0.0167755126953125	3827.97722733529
0.411529541015625	-0.0168914794921875	3828.02147733517
0.4071044921875	-0.01700439453125	3828.06572733506
0.402679443359375	-0.0171173095703125	3828.10997733495
0.39825439453125	-0.01722412109375	3828.15422733484
0.393829345703125	-0.0173370361328125	3828.19847733473
0.389404296875	-0.0174468994140625	3828.24272733462
0.384979248046875	-0.0175567626953125	3828.2869773345
0.38055419921875	-0.0176666259765625	3828.33122733439
0.376129150390625	-0.0177734375	3828.37547733428
0.3717041015625	-0.0178802490234375	3828.41972733417
0.367279052734375	-0.0179840087890625	3828.46397733406
0.36285400390625	-0.0180908203125	3828.50822733395
0.358428955078125	-0.018194580078125	3828.55247733383
0.35400390625	-0.01829833984375	3828.59672733372
0.349578857421875	-0.01839599609375	3828.64097733361
0.34515380859375	-0.018499755859375	3828.6852273335
0.340728759765625	-0.0186004638671875	3828.72947733339
0.3363037109375	-0.018701171875	3828.77372733328
0.331878662109375	-0.018798828125	3828.81797733316
0.32745361328125	-0.0188995361328125	3828.86222733305
0.323028564453125	-0.019000244140625	3828.90647733294
0.318603515625	-0.019097900390625	3828.95072733283
0.314178466796875	-0.0191925048828125	3828.99497733272
0.30975341796875	-0.019293212890625	3829.03922733261
0.305328369140625	-0.0193878173828125	3829.08347733249
0.3009033203125	-0.019482421875	3829.12772733238
0.296478271484375	-0.019573974609375	3829.17197733227
0.29205322265625	-0.01966552734375	3829.21622733216
0.287628173828125	-0.019757080078125	3829.26047733205
0.283203125	-0.0198516845703125	3829.30472733193
0.278778076171875	-0.0199432373046875	3829.34897733182
0.27435302734375	-0.0200347900390625	3829.39322733171
0.269927978515625	-0.0201263427734375	3829.4374773316
0.2655029296875	-0.02021484375	3829.48172733149
0.261077880859375	-0.02030029296875	3829.52597733138
0.25665283203125	-0.0203857421875	3829.57022733126
0.252227783203125	-0.0204742431640625	3829.61447733115
0.247802734375	-0.0205596923828125	3829.65872733104
0.243377685546875	-0.0206451416015625	3829.70297733093
0.23895263671875	-0.0207275390625	3829.74722733082
0.234527587890625	-0.02081298828125	3829.79147733071
0.2301025390625	-0.0208984375	3829.83572733059
0.225677490234375	-0.02098388671875	3829.87997733048
0.22125244140625	-0.0210662841796875	3829.92422733037
0.216827392578125	-0.0211517333984375	3829.96847733026
0.21240234375	-0.021234130859375	3830.01272733015
0.207977294921875	-0.0213134765625	3830.05697733004
0.20355224609375	-0.0213958740234375	3830.10122732992
0.199127197265625	-0.0214752197265625	3830.14547732981
0.1947021484375	-0.0215545654296875	3830.1897273297
0.190277099609375	-0.0216339111328125	3830.23397732959
0.18585205078125	-0.0217132568359375	3830.27822732948
0.181427001953125	-0.0217926025390625	3830.32247732937
0.177001953125	-0.021868896484375	3830.36672732925
0.172576904296875	-0.021942138671875	3830.41097732914
0.16815185546875	-0.022021484375	3830.45522732903
0.163726806640625	-0.0220977783203125	3830.49947732892
0.1593017578125	-0.0221771240234375	3830.54372732881
0.154876708984375	-0.0222503662109375	3830.5879773287
0.15045166015625	-0.02232666015625	3830.63222732858
0.146026611328125	-0.02239990234375	3830.67647732847
0.1416015625	-0.02247314453125	3830.72072732836
0.137176513671875	-0.02254638671875	3830.76497732825
0.13275146484375	-0.0226165771484375	3830.80922732814
0.128326416015625	-0.022686767578125	3830.85347732802
0.1239013671875	-0.022760009765625	3830.89772732791
0.119476318359375	-0.0228363037109375	3830.9419773278
0.11505126953125	-0.0229034423828125	3830.98622732769
0.110626220703125	-0.0229766845703125	3831.03047732758
0.106201171875	-0.0230499267578125	3831.07472732747
0.101776123046875	-0.0231201171875	3831.11897732735
0.09735107421875	-0.0231903076171875	3831.16322732724
0.092926025390625	-0.023260498046875	3831.20747732713
0.0885009765625	-0.02332763671875	3831.25172732702
0.084075927734375	-0.0233978271484375	3831.29597732691
0.07965087890625	-0.0234619140625	3831.3402273268
0.075225830078125	-0.023529052734375	3831.38447732668
0.07080078125	-0.0235992431640625	3831.42872732657
0.066375732421875	-0.0236663818359375	3831.47297732646
0.06195068359375	-0.023736572265625	3831.51722732635
0.057525634765625	-0.0238037109375	3831.56147732624
0.0531005859375	-0.0238739013671875	3831.60572732613
0.048675537109375	-0.0239410400390625	3831.64997732601
0.04425048828125	-0.0240081787109375	3831.6942273259
0.039825439453125	-0.0240753173828125	3831.73847732579
0.035400390625	-0.0241424560546875	3831.78272732568
0.030975341796875	-0.02420654296875	3831.82697732557
0.02655029296875	-0.024273681640625	3831.87122732546
0.022125244140625	-0.0243408203125	3831.91547732534
0.0177001953125	-0.024407958984375	3831.95972732523
0.013275146484375	-0.0244720458984375	3832.00397732512
0.00885009765625	-0.024542236328125	3832.04822732501
0.004425048828125	-0.024609375	3832.0924773249
0	-0.024676513671875	3832.13672732478
0.004425048828125	-0.02386474609375	3832.18097732467
0.00885009765625	-0.023089599609375	3832.22522732456
0.013275146484375	-0.0223388671875	3832.26947732445
0.0177001953125	-0.0216094970703125	3832.31372732434
0.022125244140625	-0.0208984375	3832.35797732423
0.02655029296875	-0.020208740234375	3832.40222732411
0.030975341796875	-0.01953125	3832.446477324
0.035400390625	-0.0188720703125	3832.49072732389
0.039825439453125	-0.0182220458984375	3832.53497732378
0.04425048828125	-0.01759033203125	3832.57922732367
0.048675537109375	-0.016973876953125	3832.62347732356
0.0531005859375	-0.01636962890625	3832.66772732344
0.057525634765625	-0.015771484375	3832.71197732333
0.06195068359375	-0.015185546875	3832.75622732322
0.066375732421875	-0.01461181640625	3832.80047732311
0.07080078125	-0.0140533447265625	3832.844727323
0.075225830078125	-0.0134979248046875	3832.88897732289
0.07965087890625	-0.0129547119140625	3832.93322732277
0.084075927734375	-0.0124237060546875	3832.97747732266
0.0885009765625	-0.011895751953125	3833.02172732255
0.092926025390625	-0.0113800048828125	3833.06597732244
0.09735107421875	-0.01087646484375	3833.11022732233
0.101776123046875	-0.0103759765625	3833.15447732222
0.106201171875	-0.0098846435546875	3833.1987273221
0.110626220703125	-0.0094024658203125	3833.24297732199
0.11505126953125	-0.008929443359375	3833.28722732188
0.119476318359375	-0.0084625244140625	3833.33147732177
0.1239013671875	-0.008001708984375	3833.37572732166
0.128326416015625	-0.007550048828125	3833.41997732155
0.13275146484375	-0.0071044921875	3833.46422732143
0.137176513671875	-0.0066650390625	3833.50847732132
0.1416015625	-0.006231689453125	3833.55272732121
0.146026611328125	-0.005804443359375	3833.5969773211
0.15045166015625	-0.0053863525390625	3833.64122732099
0.154876708984375	-0.00497467041015625	3833.68547732087
0.1593017578125	-0.00456878662109375	3833.72972732076
0.163726806640625	-0.0041680908203125	3833.77397732065
0.16815185546875	-0.00377349853515625	3833.81822732054
0.172576904296875	-0.00338409423828125	3833.86247732043
0.177001953125	-0.00301177978515625	3833.90672732032
0.181427001953125	-0.0026324462890625	3833.9509773202
0.18585205078125	-0.00225860595703125	3833.99522732009
0.190277099609375	-0.0018902587890625	3834.03947731998
0.1947021484375	-0.00152740478515625	3834.08372731987
0.199127197265625	-0.00116943359375	3834.12797731976
0.20355224609375	-0.00081756591796875	3834.17222731965
0.207977294921875	-0.0004700927734375	3834.21647731953
0.21240234375	-0.0001278076171875	3834.26072731942
0.216827392578125	0.000210205078125	3834.30497731931
0.22125244140625	0.00054351806640625	3834.3492273192
0.225677490234375	0.00087188720703125	3834.39347731909
0.2301025390625	0.0011968994140625	3834.43772731898
0.234527587890625	0.00151580810546875	3834.48197731886
0.23895263671875	0.0018310546875	3834.52622731875
0.243377685546875	0.002142333984375	3834.57047731864
0.247802734375	0.0024481201171875	3834.61472731853
0.252227783203125	0.0027490234375	3834.65897731842
0.25665283203125	0.00304840087890625	3834.7032273183
0.261077880859375	0.00334381103515625	3834.74747731819
0.2655029296875	0.00363372802734375	3834.79172731808
0.269927978515625	0.00392120361328125	3834.83597731797
0.27435302734375	0.00420379638671875	3834.88022731786
0.278778076171875	0.00448333740234375	3834.92447731775
0.283203125	0.00475860595703125	3834.96872731763
0.287628173828125	0.00503021240234375	3835.01297731752
0.29205322265625	0.0052984619140625	3835.05722731741
0.296478271484375	0.00556304931640625	3835.1014773173
0.3009033203125	0.00582366943359375	3835.14572731719
0.305328369140625	0.00608123779296875	3835.18997731708
0.30975341796875	0.0063262939453125	3835.23422731696
0.314178466796875	0.00657958984375	3835.27847731685
0.318603515625	0.0068267822265625	3835.32272731674
0.323028564453125	0.00706787109375	3835.36697731663
0.32745361328125	0.0073089599609375	3835.41122731652
0.331878662109375	0.0075469970703125	3835.45547731641
0.3363037109375	0.007781982421875	3835.49972731629
0.340728759765625	0.0080108642578125	3835.54397731618
0.34515380859375	0.00823974609375	3835.58822731607
0.349578857421875	0.0084625244140625	3835.63247731596
0.35400390625	0.0086822509765625	3835.67672731585
0.358428955078125	0.0089019775390625	3835.72097731574
0.36285400390625	0.00911865234375	3835.76522731562
0.367279052734375	0.009332275390625	3835.80947731551
0.3717041015625	0.009539794921875	3835.8537273154
0.376129150390625	0.0097503662109375	3835.89797731529
0.38055419921875	0.009954833984375	3835.94222731518
0.384979248046875	0.0101593017578125	3835.98647731507
0.389404296875	0.0103607177734375	3836.03072731495
0.393829345703125	0.0105560302734375	3836.07497731484
0.39825439453125	0.0107513427734375	3836.11922731473
0.402679443359375	0.010943603515625	3836.16347731462
0.4071044921875	0.0111328125	3836.20772731451
0.411529541015625	0.0113189697265625	3836.25197731439
0.41595458984375	0.011505126953125	3836.29622731428
0.420379638671875	0.011688232421875	3836.34047731417
0.4248046875	0.0118682861328125	3836.38472731406
0.429229736328125	0.0120513916015625	3836.42897731395
0.43365478515625	0.0122283935546875	3836.47322731384
0.438079833984375	0.0124053955078125	3836.51747731372
0.4425048828125	0.0125762939453125	3836.56172731361
0.446929931640625	0.012750244140625	3836.6059773135
0.45135498046875	0.0129180908203125	3836.65022731339
0.455780029296875	0.0130828857421875	3836.69447731328
0.460205078125	0.013250732421875	3836.73872731317
0.464630126953125	0.0134124755859375	3836.78297731305
0.46905517578125	0.013568115234375	3836.82722731294
0.473480224609375	0.013726806640625	3836.87147731283
0.4779052734375	0.0138885498046875	3836.91572731272
0.482330322265625	0.0140411376953125	3836.95997731261
0.48675537109375	0.014190673828125	3837.0042273125
0.491180419921875	0.0143402099609375	3837.04847731238
0.49560546875	0.0144927978515625	3837.09272731227
0.500030517578125	0.014642333984375	3837.13697731216
0.50445556640625	0.0147918701171875	3837.18122731205
0.508880615234375	0.014935302734375	3837.22547731194
0.5133056640625	0.01507568359375	3837.26972731183
0.517730712890625	0.015216064453125	3837.31397731171
0.52215576171875	0.0153564453125	3837.3582273116
0.526580810546875	0.0154937744140625	3837.40247731149
0.531005859375	0.015631103515625	3837.44672731138
0.535430908203125	0.0157623291015625	3837.49097731127
0.53985595703125	0.0158966064453125	3837.53522731115
0.544281005859375	0.01602783203125	3837.57947731104
0.5487060546875	0.016156005859375	3837.62372731093
0.553131103515625	0.0162872314453125	3837.66797731082
0.55755615234375	0.016412353515625	3837.71222731071
0.561981201171875	0.0165374755859375	3837.7564773106
0.56640625	0.01666259765625	3837.80072731048
0.570831298828125	0.01678466796875	3837.84497731037
0.57525634765625	0.01690673828125	3837.88922731026
0.579681396484375	0.0170257568359375	3837.93347731015
0.5841064453125	0.0171417236328125	3837.97772731004
0.588531494140625	0.0172515869140625	3838.02197730993
0.59295654296875	0.01737060546875	3838.06622730981
0.597381591796875	0.0174835205078125	3838.1104773097
0.601806640625	0.0175994873046875	3838.15472730959
0.606231689453125	0.01771240234375	3838.19897730948
0.61065673828125	0.017822265625	3838.24322730937
0.615081787109375	0.0179290771484375	3838.28747730926
0.6195068359375	0.018035888671875	3838.33172730914
0.623931884765625	0.0181427001953125	3838.37597730903
0.62835693359375	0.0182525634765625	3838.42022730892
0.632781982421875	0.018353271484375	3838.46447730881
0.63720703125	0.01845703125	3838.5087273087
0.641632080078125	0.0185577392578125	3838.55297730859
0.64605712890625	0.018658447265625	3838.59722730847
0.650482177734375	0.0187591552734375	3838.64147730836
0.6549072265625	0.018853759765625	3838.68572730825
0.659332275390625	0.018951416015625	3838.72997730814
0.66375732421875	0.0190460205078125	3838.77422730803
0.668182373046875	0.019140625	3838.81847730792
0.672607421875	0.0192352294921875	3838.8627273078
0.677032470703125	0.0193267822265625	3838.90697730769
0.68145751953125	0.019415283203125	3838.95122730758
0.685882568359375	0.0195068359375	3838.99547730747
0.6903076171875	0.01959228515625	3839.03972730736
0.694732666015625	0.0196807861328125	3839.08397730724
0.69915771484375	0.0197662353515625	3839.12822730713
0.703582763671875	0.0198516845703125	3839.17247730702
0.7080078125	0.0199371337890625	3839.21672730691
0.712432861328125	0.0200225830078125	3839.2609773068
0.71685791015625	0.02010498046875	3839.30522730669
0.721282958984375	0.0201873779296875	3839.34947730657
0.7257080078125	0.0202667236328125	3839.39372730646
0.730133056640625	0.020343017578125	3839.43797730635
0.73455810546875	0.0204193115234375	3839.48222730624
0.738983154296875	0.02049560546875	3839.52647730613
0.743408203125	0.0205718994140625	3839.57072730602
0.747833251953125	0.0206451416015625	3839.6149773059
0.75225830078125	0.020721435546875	3839.65922730579
0.756683349609375	0.0207977294921875	3839.70347730568
0.7611083984375	0.0208709716796875	3839.74772730557
0.765533447265625	0.0209442138671875	3839.79197730546
0.76995849609375	0.0210174560546875	3839.83622730535
0.774383544921875	0.021087646484375	3839.88047730523
0.77880859375	0.0211578369140625	3839.92472730512
0.783233642578125	0.0212249755859375	3839.96897730501
0.78765869140625	0.021295166015625	3840.0132273049
0.792083740234375	0.0213623046875	3840.05747730479
0.7965087890625	0.0214263916015625	3840.10172730468
0.800933837890625	0.0214935302734375	3840.14597730456
0.80535888671875	0.0215606689453125	3840.19022730445
0.809783935546875	0.0216278076171875	3840.23447730434
0.814208984375	0.02169189453125	3840.27872730423
0.818634033203125	0.0217559814453125	3840.32297730412
0.82305908203125	0.021820068359375	3840.367227304
0.827484130859375	0.0218841552734375	3840.41147730389
0.8319091796875	0.0219482421875	3840.45572730378
0.836334228515625	0.02200927734375	3840.49997730367
0.84075927734375	0.0220703125	3840.54422730356
0.845184326171875	0.02213134765625	3840.58847730345
0.849609375	0.0221893310546875	3840.63272730333
0.854034423828125	0.0222503662109375	3840.67697730322
0.85845947265625	0.022314453125	3840.72122730311
0.862884521484375	0.0223724365234375	3840.765477303
0.8673095703125	0.0224334716796875	3840.80972730289
0.871734619140625	0.0224945068359375	3840.85397730278
0.87615966796875	0.02255859375	3840.89822730266
0.880584716796875	0.0226165771484375	3840.94247730255
0.885009765625	0.0226776123046875	3840.98672730244
0.889434814453125	0.0227325439453125	3841.03097730233
0.89385986328125	0.0227935791015625	3841.07522730222
0.898284912109375	0.0228515625	3841.11947730211
0.9027099609375	0.02291259765625	3841.16372730199
0.907135009765625	0.0229736328125	3841.20797730188
0.91156005859375	0.0230316162109375	3841.25222730177
0.915985107421875	0.023089599609375	3841.29647730166
0.92041015625	0.0231536865234375	3841.34072730155
0.924835205078125	0.0232177734375	3841.38497730144
0.92926025390625	0.02327880859375	3841.42922730132
0.933685302734375	0.0233367919921875	3841.47347730121
0.9381103515625	0.0234039306640625	3841.5177273011
0.942535400390625	0.0234649658203125	3841.56197730099
0.94696044921875	0.0235260009765625	3841.60622730088
0.951385498046875	0.0235870361328125	3841.65047730077
0.955810546875	0.0236480712890625	3841.69472730065
0.960235595703125	0.0237152099609375	3841.73897730054
0.96466064453125	0.023779296875	3841.78322730043
0.969085693359375	0.023846435546875	3841.82747730032
0.9735107421875	0.02391357421875	3841.87172730021
0.977935791015625	0.0239837646484375	3841.91597730009
0.98236083984375	0.024053955078125	3841.96022729998
0.986785888671875	0.0241241455078125	3842.00447729987
0.9912109375	0.0241943359375	3842.04872729976
