Potential applied (V)	WE(1).Current (A)	Time (s)
0.004425048828125	-0.0741607666015625	2579.08215548844
0.00885009765625	-0.0624481201171875	2579.52466048733
0.013275146484375	-0.053619384765625	2579.96716548621
0.0177001953125	-0.0465545654296875	2580.40967048509
0.022125244140625	-0.0407470703125	2580.85217548397
0.02655029296875	-0.035894775390625	2581.29468048286
0.030975341796875	-0.0317596435546875	2581.73718548174
0.035400390625	-0.0281982421875	2582.17969048062
0.039825439453125	-0.0251068115234375	2582.62219547951
0.04425048828125	-0.022418212890625	2583.06470047839
0.048675537109375	-0.020062255859375	2583.50720547727
0.0531005859375	-0.0179779052734375	2583.94971047615
0.057525634765625	-0.0161376953125	2584.39221547504
0.06195068359375	-0.0144989013671875	2584.83472047392
0.066375732421875	-0.013037109375	2585.2772254728
0.07080078125	-0.01173095703125	2585.71973047169
0.075225830078125	-0.0105621337890625	2586.16223547057
0.07965087890625	-0.00950927734375	2586.60474046945
0.084075927734375	-0.00855712890625	2587.04724546833
0.0885009765625	-0.007696533203125	2587.48975046722
0.092926025390625	-0.0069091796875	2587.9322554661
0.09735107421875	-0.0061981201171875	2588.37476046498
0.101776123046875	-0.005548095703125	2588.81726546386
0.106201171875	-0.0049554443359375	2589.25977046275
0.110626220703125	-0.00441070556640625	2589.70227546163
0.11505126953125	-0.003912353515625	2590.14478046051
0.119476318359375	-0.0034564208984375	2590.5872854594
0.1239013671875	-0.003035888671875	2591.02979045828
0.128326416015625	-0.00265960693359375	2591.47229545716
0.13275146484375	-0.00230194091796875	2591.91480045604
0.137176513671875	-0.00197052001953125	2592.35730545493
0.1416015625	-0.00166412353515625	2592.79981045381
0.146026611328125	-0.0013812255859375	2593.24231545269
0.15045166015625	-0.0011187744140625	2593.68482045158
0.154876708984375	-0.000875244140625	2594.12732545046
0.1593017578125	-0.0006494140625	2594.56983044934
0.163726806640625	-0.000439117431640625	2595.01233544822
0.16815185546875	-0.000243621826171875	2595.45484044711
0.172576904296875	-6.1676025390625E-05	2595.89734544599
0.177001953125	0.000107513427734375	2596.33985044487
0.181427001953125	0.0002652587890625	2596.78235544375
0.18585205078125	0.000412811279296875	2597.22486044264
0.190277099609375	0.000550689697265625	2597.66736544152
0.1947021484375	0.000680084228515625	2598.1098704404
0.199127197265625	0.00080078125	2598.55237543929
0.20355224609375	0.0009130859375	2598.99488043817
0.207977294921875	0.00101806640625	2599.43738543705
0.21240234375	0.00111663818359375	2599.87989043593
0.216827392578125	0.00120849609375	2600.32239543482
0.22125244140625	0.00129547119140625	2600.7649004337
0.225677490234375	0.0013775634765625	2601.20740543258
0.2301025390625	0.0014544677734375	2601.64991043147
0.234527587890625	0.0015264892578125	2602.09241543035
0.23895263671875	0.00159515380859375	2602.53492042923
0.243377685546875	0.00166046142578125	2602.97742542811
0.247802734375	0.0017218017578125	2603.419930427
0.252227783203125	0.00178009033203125	2603.86243542588
0.25665283203125	0.0018341064453125	2604.30494042476
0.261077880859375	0.00188568115234375	2604.74744542364
0.2655029296875	0.001934814453125	2605.18995042253
0.269927978515625	0.001981201171875	2605.63245542141
0.27435302734375	0.002025146484375	2606.07496042029
0.278778076171875	0.00206695556640625	2606.51746541918
0.283203125	0.0021063232421875	2606.95997041806
0.287628173828125	0.0021441650390625	2607.40247541694
0.29205322265625	0.002181396484375	2607.84498041582
0.296478271484375	0.0022161865234375	2608.28748541471
0.3009033203125	0.0022503662109375	2608.72999041359
0.305328369140625	0.00228240966796875	2609.17249541247
0.30975341796875	0.0023138427734375	2609.61500041136
0.314178466796875	0.00234649658203125	2610.05750541024
0.318603515625	0.002374267578125	2610.50001040912
0.323028564453125	0.00240081787109375	2610.942515408
0.32745361328125	0.00242645263671875	2611.38502040689
0.331878662109375	0.00245147705078125	2611.82752540577
0.3363037109375	0.0024755859375	2612.27003040465
0.340728759765625	0.002498779296875	2612.71253540354
0.34515380859375	0.002520751953125	2613.15504040242
0.349578857421875	0.0025421142578125	2613.5975454013
0.35400390625	0.00256103515625	2614.04005040018
0.358428955078125	0.00258148193359375	2614.48255539907
0.36285400390625	0.00260101318359375	2614.92506039795
0.367279052734375	0.0026202392578125	2615.36756539683
0.3717041015625	0.0026385498046875	2615.81007039571
0.376129150390625	0.0026556396484375	2616.2525753946
0.38055419921875	0.00267181396484375	2616.69508039348
0.384979248046875	0.0026885986328125	2617.13758539236
0.389404296875	0.00270416259765625	2617.58009039125
0.393829345703125	0.0027178955078125	2618.02259539013
0.39825439453125	0.00273223876953125	2618.46510038901
0.402679443359375	0.00274658203125	2618.90760538789
0.4071044921875	0.002760009765625	2619.35011038678
0.411529541015625	0.0027728271484375	2619.79261538566
0.41595458984375	0.0027850341796875	2620.23512038454
0.420379638671875	0.00279693603515625	2620.67762538343
0.4248046875	0.0028082275390625	2621.12013038231
0.429229736328125	0.00281890869140625	2621.56263538119
0.43365478515625	0.00282928466796875	2622.00514038007
0.438079833984375	0.00283966064453125	2622.44764537896
0.4425048828125	0.00284881591796875	2622.89015037784
0.446929931640625	0.002857666015625	2623.33265537672
0.45135498046875	0.0028668212890625	2623.7751603756
0.455780029296875	0.00287567138671875	2624.21766537449
0.460205078125	0.00288360595703125	2624.66017037337
0.464630126953125	0.0028912353515625	2625.10267537225
0.46905517578125	0.00289825439453125	2625.54518037114
0.473480224609375	0.00290557861328125	2625.98768537002
0.4779052734375	0.00291229248046875	2626.4301903689
0.482330322265625	0.0029193115234375	2626.87269536778
0.48675537109375	0.002926025390625	2627.31520036667
0.491180419921875	0.00293182373046875	2627.75770536555
0.49560546875	0.00293792724609375	2628.20021036443
0.500030517578125	0.0029437255859375	2628.64271536331
0.50445556640625	0.00294952392578125	2629.0852203622
0.508880615234375	0.00295501708984375	2629.52772536108
0.5133056640625	0.002960205078125	2629.97023035996
0.517730712890625	0.002965087890625	2630.41273535885
0.52215576171875	0.0029705810546875	2630.85524035773
0.526580810546875	0.00297607421875	2631.29774535661
0.531005859375	0.00298065185546875	2631.74025035549
0.535430908203125	0.00298583984375	2632.18275535438
0.53985595703125	0.00299041748046875	2632.62526035326
0.544281005859375	0.00299468994140625	2633.06776535214
0.5487060546875	0.00299835205078125	2633.51027035103
0.553131103515625	0.00300323486328125	2633.95277534991
0.55755615234375	0.0030078125	2634.39528034879
0.561981201171875	0.00301177978515625	2634.83778534767
0.56640625	0.003016357421875	2635.28029034656
0.570831298828125	0.0030206298828125	2635.72279534544
0.57525634765625	0.00302520751953125	2636.16530034432
0.579681396484375	0.00302947998046875	2636.60780534321
0.5841064453125	0.003033447265625	2637.05031034209
0.588531494140625	0.0030364990234375	2637.49281534097
0.59295654296875	0.00304107666015625	2637.93532033985
0.597381591796875	0.00304595947265625	2638.37782533874
0.601806640625	0.003050537109375	2638.82033033762
0.606231689453125	0.0030548095703125	2639.2628353365
0.61065673828125	0.0030596923828125	2639.70534033538
0.615081787109375	0.0030645751953125	2640.14784533427
0.6195068359375	0.00306884765625	2640.59035033315
0.623931884765625	0.00307464599609375	2641.03285533203
0.62835693359375	0.00308319091796875	2641.47536033092
0.632781982421875	0.003087158203125	2641.9178653298
0.63720703125	0.003092041015625	2642.36037032868
0.641632080078125	0.00309814453125	2642.80287532756
0.64605712890625	0.00310302734375	2643.24538032645
0.650482177734375	0.003109130859375	2643.68788532533
0.6549072265625	0.00311431884765625	2644.13039032421
0.659332275390625	0.0031207275390625	2644.5728953231
0.66375732421875	0.00312713623046875	2645.01540032198
0.668182373046875	0.00313446044921875	2645.45790532086
0.672607421875	0.00314239501953125	2645.90041031974
0.677032470703125	0.0031500244140625	2646.34291531863
0.68145751953125	0.0031573486328125	2646.78542031751
0.685882568359375	0.0031658935546875	2647.22792531639
0.6903076171875	0.00317474365234375	2647.67043031527
0.694732666015625	0.0031842041015625	2648.11293531416
0.69915771484375	0.00319366455078125	2648.55544031304
0.703582763671875	0.00320281982421875	2648.99794531192
0.7080078125	0.00321258544921875	2649.44045031081
0.712432861328125	0.0032244873046875	2649.88295530969
0.71685791015625	0.00323638916015625	2650.32546030857
0.721282958984375	0.00324859619140625	2650.76796530745
0.7257080078125	0.00326171875	2651.21047030634
0.730133056640625	0.00327423095703125	2651.65297530522
0.73455810546875	0.0032879638671875	2652.0954803041
0.738983154296875	0.00330352783203125	2652.53798530299
0.743408203125	0.0033172607421875	2652.98049030187
0.747833251953125	0.0033343505859375	2653.42299530075
0.75225830078125	0.003350830078125	2653.86550029963
0.756683349609375	0.003367919921875	2654.30800529852
0.7611083984375	0.003387451171875	2654.7505102974
0.765533447265625	0.00340789794921875	2655.19301529628
0.76995849609375	0.003428955078125	2655.63552029516
0.774383544921875	0.00345001220703125	2656.07802529405
0.77880859375	0.003472900390625	2656.52053029293
0.783233642578125	0.00349700927734375	2656.96303529181
0.78765869140625	0.00352294921875	2657.4055402907
0.792083740234375	0.0035491943359375	2657.84804528958
0.7965087890625	0.0035772705078125	2658.29055028846
0.800933837890625	0.00360504150390625	2658.73305528734
0.80535888671875	0.0036358642578125	2659.17556028623
0.809783935546875	0.003668212890625	2659.61806528511
0.814208984375	0.003702392578125	2660.06057028399
0.818634033203125	0.00373779296875	2660.50307528288
0.82305908203125	0.00377410888671875	2660.94558028176
0.827484130859375	0.00381195068359375	2661.38808528064
0.8319091796875	0.0038525390625	2661.83059027952
0.836334228515625	0.003895263671875	2662.27309527841
0.84075927734375	0.0039385986328125	2662.71560027729
0.845184326171875	0.003984375	2663.15810527617
0.849609375	0.00403076171875	2663.60061027505
0.854034423828125	0.004080810546875	2664.04311527394
0.85845947265625	0.00413299560546875	2664.48562027282
0.862884521484375	0.0041845703125	2664.9281252717
0.8673095703125	0.0042401123046875	2665.37063027059
0.871734619140625	0.00429656982421875	2665.81313526947
0.87615966796875	0.0043560791015625	2666.25564026835
0.880584716796875	0.0044171142578125	2666.69814526723
0.885009765625	0.00448028564453125	2667.14065026612
0.889434814453125	0.00454498291015625	2667.583155265
0.89385986328125	0.0046124267578125	2668.02566026388
0.898284912109375	0.0046807861328125	2668.46816526277
0.9027099609375	0.0047515869140625	2668.91067026165
0.907135009765625	0.00482574462890625	2669.35317526053
0.91156005859375	0.00490081787109375	2669.79568025941
0.915985107421875	0.00497772216796875	2670.2381852583
0.92041015625	0.0050567626953125	2670.68069025718
0.924835205078125	0.00513824462890625	2671.12319525606
0.92926025390625	0.0052215576171875	2671.56570025495
0.933685302734375	0.0053070068359375	2672.00820525383
0.9381103515625	0.00539703369140625	2672.45071025271
0.942535400390625	0.00548553466796875	2672.89321525159
0.94696044921875	0.00557647705078125	2673.33572025048
0.951385498046875	0.00566925048828125	2673.77822524936
0.955810546875	0.0057647705078125	2674.22073024824
0.960235595703125	0.0058612060546875	2674.66323524712
0.96466064453125	0.00595947265625	2675.10574024601
0.969085693359375	0.0060601806640625	2675.54824524489
0.9735107421875	0.00615234375	2675.99075024377
0.977935791015625	0.00625	2676.43325524266
0.98236083984375	0.006353759765625	2676.87576024154
0.986785888671875	0.0064605712890625	2677.31826524042
0.9912109375	0.0065673828125	2677.7607702393
0.995635986328125	0.0066802978515625	2678.20327523819
1.00006103515625	0.006793212890625	2678.64578023707
0.995635986328125	0.006134033203125	2679.08828523595
0.9912109375	0.0055511474609375	2679.53079023483
0.986785888671875	0.005023193359375	2679.97329523372
0.98236083984375	0.00454254150390625	2680.4158002326
0.977935791015625	0.0040972900390625	2680.85830523148
0.9735107421875	0.00368316650390625	2681.30081023037
0.969085693359375	0.00329315185546875	2681.74331522925
0.96466064453125	0.00292633056640625	2682.18582022813
0.960235595703125	0.00258270263671875	2682.62832522701
0.955810546875	0.00225616455078125	2683.0708302259
0.951385498046875	0.00194610595703125	2683.51333522478
0.94696044921875	0.0016510009765625	2683.95584022366
0.942535400390625	0.0013702392578125	2684.39834522255
0.9381103515625	0.001102294921875	2684.84085022143
0.933685302734375	0.00084503173828125	2685.28335522031
0.92926025390625	0.0006024169921875	2685.72586021919
0.924835205078125	0.00037060546875	2686.16836521808
0.92041015625	0.000149444580078125	2686.61087021696
0.915985107421875	-6.15234375E-05	2687.05337521584
0.91156005859375	-0.000263153076171875	2687.49588021473
0.907135009765625	-0.000455902099609375	2687.93838521361
0.9027099609375	-0.000640045166015625	2688.38089021249
0.898284912109375	-0.0008154296875	2688.82339521137
0.89385986328125	-0.0009832763671875	2689.26590021026
0.889434814453125	-0.00114349365234375	2689.70840520914
0.885009765625	-0.00129638671875	2690.15091020802
0.880584716796875	-0.001441650390625	2690.5934152069
0.87615966796875	-0.001580810546875	2691.03592020579
0.871734619140625	-0.00171356201171875	2691.47842520467
0.8673095703125	-0.001839599609375	2691.92093020355
0.862884521484375	-0.00196014404296875	2692.36343520244
0.85845947265625	-0.0020733642578125	2692.80594020132
0.854034423828125	-0.0021820068359375	2693.2484452002
0.849609375	-0.00228546142578125	2693.69095019908
0.845184326171875	-0.00238311767578125	2694.13345519797
0.84075927734375	-0.00247650146484375	2694.57596019685
0.836334228515625	-0.0025640869140625	2695.01846519573
0.8319091796875	-0.00264801025390625	2695.46097019462
0.827484130859375	-0.00272674560546875	2695.9034751935
0.82305908203125	-0.00280029296875	2696.34598019238
0.818634033203125	-0.00287017822265625	2696.78848519126
0.814208984375	-0.00293670654296875	2697.23099019015
0.809783935546875	-0.00299835205078125	2697.67349518903
0.80535888671875	-0.003056640625	2698.11600018791
0.800933837890625	-0.0031109619140625	2698.55850518679
0.7965087890625	-0.00316131591796875	2699.00101018568
0.792083740234375	-0.0032098388671875	2699.44351518456
0.78765869140625	-0.0032537841796875	2699.88602018344
0.783233642578125	-0.00329437255859375	2700.32852518233
0.77880859375	-0.0033319091796875	2700.77103018121
0.774383544921875	-0.00336761474609375	2701.21353518009
0.76995849609375	-0.003399658203125	2701.65604017897
0.765533447265625	-0.0034295654296875	2702.09854517786
0.7611083984375	-0.00345489501953125	2702.54105017674
0.756683349609375	-0.0034771728515625	2702.98355517562
0.75225830078125	-0.0034979248046875	2703.42606017451
0.747833251953125	-0.00351715087890625	2703.86856517339
0.743408203125	-0.00353363037109375	2704.31107017227
0.738983154296875	-0.00354583740234375	2704.75357517115
0.73455810546875	-0.00355804443359375	2705.19608017004
0.730133056640625	-0.00356719970703125	2705.63858516892
0.7257080078125	-0.0035748291015625	2706.0810901678
0.721282958984375	-0.00358062744140625	2706.52359516668
0.71685791015625	-0.003585205078125	2706.96610016557
0.712432861328125	-0.00358795166015625	2707.40860516445
0.7080078125	-0.00358917236328125	2707.85111016333
0.703582763671875	-0.0035882568359375	2708.29361516222
0.69915771484375	-0.00358612060546875	2708.7361201611
0.694732666015625	-0.003583984375	2709.17862515998
0.6903076171875	-0.00358062744140625	2709.62113015886
0.685882568359375	-0.0035760498046875	2710.06363515775
0.68145751953125	-0.003570556640625	2710.50614015663
0.677032470703125	-0.00356414794921875	2710.94864515551
0.672607421875	-0.00355743408203125	2711.3911501544
0.668182373046875	-0.00354949951171875	2711.83365515328
0.66375732421875	-0.00354156494140625	2712.27616015216
0.659332275390625	-0.00353302001953125	2712.71866515104
0.6549072265625	-0.00352386474609375	2713.16117014993
0.650482177734375	-0.003514404296875	2713.60367514881
0.64605712890625	-0.00350555419921875	2714.04618014769
0.641632080078125	-0.00349639892578125	2714.48868514657
0.63720703125	-0.00348724365234375	2714.93119014546
0.632781982421875	-0.00347686767578125	2715.37369514434
0.62835693359375	-0.00346771240234375	2715.81620014322
0.623931884765625	-0.0034625244140625	2716.25870514211
0.6195068359375	-0.00345184326171875	2716.70121014099
0.615081787109375	-0.0034423828125	2717.14371513987
0.61065673828125	-0.00343292236328125	2717.58622013875
0.606231689453125	-0.0034234619140625	2718.02872513764
0.601806640625	-0.00341461181640625	2718.47123013652
0.597381591796875	-0.00340667724609375	2718.9137351354
0.59295654296875	-0.00339874267578125	2719.35624013429
0.588531494140625	-0.00339141845703125	2719.79874513317
0.5841064453125	-0.00338226318359375	2720.24125013205
0.579681396484375	-0.003375244140625	2720.68375513093
0.57525634765625	-0.003369140625	2721.12626012982
0.570831298828125	-0.0033636474609375	2721.5687651287
0.56640625	-0.00335845947265625	2722.01127012758
0.561981201171875	-0.00335205078125	2722.45377512647
0.55755615234375	-0.00334747314453125	2722.89628012535
0.553131103515625	-0.0033428955078125	2723.33878512423
0.5487060546875	-0.00333984375	2723.78129012311
0.544281005859375	-0.00333526611328125	2724.223795122
0.53985595703125	-0.00333251953125	2724.66630012088
0.535430908203125	-0.00332977294921875	2725.10880511976
0.531005859375	-0.00332763671875	2725.55131011864
0.526580810546875	-0.00332611083984375	2725.99381511753
0.52215576171875	-0.00332489013671875	2726.43632011641
0.517730712890625	-0.00332366943359375	2726.87882511529
0.5133056640625	-0.0033233642578125	2727.32133011418
0.508880615234375	-0.00332275390625	2727.76383511306
0.50445556640625	-0.00332305908203125	2728.20634011194
0.500030517578125	-0.003323974609375	2728.64884511082
0.49560546875	-0.00332427978515625	2729.09135010971
0.491180419921875	-0.0033251953125	2729.53385510859
0.48675537109375	-0.003326416015625	2729.97636010747
0.482330322265625	-0.0033282470703125	2730.41886510636
0.4779052734375	-0.00333099365234375	2730.86137010524
0.473480224609375	-0.0033331298828125	2731.30387510412
0.46905517578125	-0.00333587646484375	2731.746380103
0.464630126953125	-0.00333740234375	2732.18888510189
0.460205078125	-0.00334075927734375	2732.63139010077
0.455780029296875	-0.0033441162109375	2733.07389509965
0.45135498046875	-0.00334686279296875	2733.51640009853
0.446929931640625	-0.0033502197265625	2733.95890509742
0.4425048828125	-0.003353271484375	2734.4014100963
0.438079833984375	-0.00335693359375	2734.84391509518
0.43365478515625	-0.003360595703125	2735.28642009407
0.429229736328125	-0.0033636474609375	2735.72892509295
0.4248046875	-0.00336761474609375	2736.17143009183
0.420379638671875	-0.00337127685546875	2736.61393509071
0.41595458984375	-0.00337493896484375	2737.0564400896
0.411529541015625	-0.00337890625	2737.49894508848
0.4071044921875	-0.00338287353515625	2737.94145008736
0.402679443359375	-0.0033868408203125	2738.38395508624
0.39825439453125	-0.00339019775390625	2738.82646008513
0.393829345703125	-0.00339385986328125	2739.26896508401
0.389404296875	-0.003397216796875	2739.71147008289
0.384979248046875	-0.00340179443359375	2740.15397508178
0.38055419921875	-0.00340606689453125	2740.59648008066
0.376129150390625	-0.00340972900390625	2741.03898507954
0.3717041015625	-0.00341400146484375	2741.48149007842
0.367279052734375	-0.00341888427734375	2741.92399507731
0.36285400390625	-0.00342376708984375	2742.36650007619
0.358428955078125	-0.0034283447265625	2742.80900507507
0.35400390625	-0.00343292236328125	2743.25151007396
0.349578857421875	-0.0034356689453125	2743.69401507284
0.34515380859375	-0.00344085693359375	2744.13652007172
0.340728759765625	-0.003446044921875	2744.5790250706
0.3363037109375	-0.003450927734375	2745.02153006949
0.331878662109375	-0.003455810546875	2745.46403506837
0.32745361328125	-0.0034613037109375	2745.90654006725
0.323028564453125	-0.00346649169921875	2746.34904506614
0.318603515625	-0.00347198486328125	2746.79155006502
0.314178466796875	-0.003477783203125	2747.2340550639
0.30975341796875	-0.003486328125	2747.67656006278
0.305328369140625	-0.00349151611328125	2748.11906506167
0.3009033203125	-0.00349700927734375	2748.56157006055
0.296478271484375	-0.00350311279296875	2749.00407505943
0.29205322265625	-0.00350921630859375	2749.44658005831
0.287628173828125	-0.003515625	2749.8890850572
0.283203125	-0.00352264404296875	2750.33159005608
0.278778076171875	-0.00352874755859375	2750.77409505496
0.27435302734375	-0.0035357666015625	2751.21660005385
0.269927978515625	-0.0035430908203125	2751.65910505273
0.2655029296875	-0.00355010986328125	2752.10161005161
0.261077880859375	-0.00355712890625	2752.54411505049
0.25665283203125	-0.003564453125	2752.98662004938
0.252227783203125	-0.00357177734375	2753.42912504826
0.247802734375	-0.003580322265625	2753.87163004714
0.243377685546875	-0.0035888671875	2754.31413504603
0.23895263671875	-0.00359649658203125	2754.75664004491
0.234527587890625	-0.00360443115234375	2755.19914504379
0.2301025390625	-0.00361175537109375	2755.64165004267
0.225677490234375	-0.00362030029296875	2756.08415504156
0.22125244140625	-0.00362945556640625	2756.52666004044
0.216827392578125	-0.00363861083984375	2756.96916503932
0.21240234375	-0.0036474609375	2757.4116700382
0.207977294921875	-0.0036566162109375	2757.85417503709
0.20355224609375	-0.003665771484375	2758.29668003597
0.199127197265625	-0.00367584228515625	2758.73918503485
0.1947021484375	-0.00368560791015625	2759.18169003374
0.190277099609375	-0.0036956787109375	2759.62419503262
0.18585205078125	-0.0037054443359375	2760.0667000315
0.181427001953125	-0.0037158203125	2760.50920503038
0.177001953125	-0.003726806640625	2760.95171002927
0.172576904296875	-0.00373779296875	2761.39421502815
0.16815185546875	-0.00374847412109375	2761.83672002703
0.163726806640625	-0.003759765625	2762.27922502592
0.1593017578125	-0.0037701416015625	2762.7217300248
0.154876708984375	-0.00378143310546875	2763.16423502368
0.15045166015625	-0.0037939453125	2763.60674002256
0.146026611328125	-0.00380645751953125	2764.04924502145
0.1416015625	-0.003819580078125	2764.49175002033
0.137176513671875	-0.00383209228515625	2764.93425501921
0.13275146484375	-0.00384521484375	2765.37676001809
0.128326416015625	-0.00385894775390625	2765.81926501698
0.1239013671875	-0.00387359619140625	2766.26177001586
0.119476318359375	-0.00388763427734375	2766.70427501474
0.11505126953125	-0.00389984130859375	2767.14678001363
0.110626220703125	-0.00391448974609375	2767.58928501251
0.106201171875	-0.00393096923828125	2768.03179001139
0.101776123046875	-0.00394744873046875	2768.47429501027
0.09735107421875	-0.0039642333984375	2768.91680000916
0.092926025390625	-0.00398040771484375	2769.35930500804
0.0885009765625	-0.00399749755859375	2769.80181000692
0.084075927734375	-0.0040155029296875	2770.24431500581
0.07965087890625	-0.00403350830078125	2770.68682000469
0.075225830078125	-0.00405120849609375	2771.12932500357
0.07080078125	-0.00407073974609375	2771.57183000245
0.066375732421875	-0.00408966064453125	2772.01433500134
0.06195068359375	-0.00410980224609375	2772.45684000022
0.057525634765625	-0.00412933349609375	2772.8993449991
0.0531005859375	-0.00414947509765625	2773.34184999798
0.048675537109375	-0.004169921875	2773.78435499687
0.04425048828125	-0.00419158935546875	2774.22685999575
0.039825439453125	-0.0042120361328125	2774.66936499463
0.035400390625	-0.00423309326171875	2775.11186999352
0.030975341796875	-0.00425537109375	2775.5543749924
0.02655029296875	-0.00427642822265625	2775.99687999128
0.022125244140625	-0.004298095703125	2776.43938499016
0.0177001953125	-0.00431976318359375	2776.88188998905
0.013275146484375	-0.00434234619140625	2777.32439498793
0.00885009765625	-0.0043646240234375	2777.76689998681
0.004425048828125	-0.00438720703125	2778.2094049857
0	-0.00440948486328125	2778.65190998458
0.004425048828125	-0.00371978759765625	2779.09441498346
0.00885009765625	-0.00313568115234375	2779.53691998234
0.013275146484375	-0.002626953125	2779.97942498123
0.0177001953125	-0.002176513671875	2780.42192998011
0.022125244140625	-0.0017742919921875	2780.86443497899
0.02655029296875	-0.001412353515625	2781.30693997788
0.030975341796875	-0.00108551025390625	2781.74944497676
0.035400390625	-0.00078826904296875	2782.19194997564
0.039825439453125	-0.000517578125	2782.63445497452
0.04425048828125	-0.000269866943359375	2783.07695997341
0.048675537109375	-4.2413330078125E-05	2783.51946497229
0.0531005859375	0.000166168212890625	2783.96196997117
0.057525634765625	0.000358856201171875	2784.40447497005
0.06195068359375	0.000535888671875	2784.84697996894
0.066375732421875	0.00070037841796875	2785.28948496782
0.07080078125	0.00085174560546875	2785.7319899667
0.075225830078125	0.0009912109375	2786.17449496559
0.07965087890625	0.00111968994140625	2786.61699996447
0.084075927734375	0.001240234375	2787.05950496335
0.0885009765625	0.00135009765625	2787.50200996223
0.092926025390625	0.0014520263671875	2787.94451496112
0.09735107421875	0.00154754638671875	2788.38701996
0.101776123046875	0.0016375732421875	2788.82952495888
0.106201171875	0.00172088623046875	2789.27202995776
0.110626220703125	0.00179840087890625	2789.71453495665
0.11505126953125	0.00187103271484375	2790.15703995553
0.119476318359375	0.0019366455078125	2790.59954495441
0.1239013671875	0.00200042724609375	2791.0420499533
0.128326416015625	0.002059326171875	2791.48455495218
0.13275146484375	0.00211456298828125	2791.92705995106
0.137176513671875	0.0021661376953125	2792.36956494994
0.1416015625	0.00221435546875	2792.81206994883
0.146026611328125	0.00225921630859375	2793.25457494771
0.15045166015625	0.0023016357421875	2793.69707994659
0.154876708984375	0.0023419189453125	2794.13958494548
0.1593017578125	0.0023779296875	2794.58208994436
0.163726806640625	0.002413330078125	2795.02459494324
0.16815185546875	0.0024462890625	2795.46709994212
0.172576904296875	0.00247802734375	2795.90960494101
0.177001953125	0.00250701904296875	2796.35210993989
0.181427001953125	0.00253509521484375	2796.79461493877
0.18585205078125	0.0025616455078125	2797.23711993766
0.190277099609375	0.00258636474609375	2797.67962493654
0.1947021484375	0.00261016845703125	2798.12212993542
0.199127197265625	0.00263275146484375	2798.5646349343
0.20355224609375	0.00265411376953125	2799.00713993319
0.207977294921875	0.0026739501953125	2799.44964493207
0.21240234375	0.00269439697265625	2799.89214993095
0.216827392578125	0.0027142333984375	2800.33465492983
0.22125244140625	0.0027325439453125	2800.77715992872
0.225677490234375	0.0027496337890625	2801.2196649276
0.2301025390625	0.00276611328125	2801.66216992648
0.234527587890625	0.00278167724609375	2802.10467492537
0.23895263671875	0.00279815673828125	2802.54717992425
0.243377685546875	0.00281341552734375	2802.98968492313
0.247802734375	0.00282806396484375	2803.43218992201
0.252227783203125	0.0028424072265625	2803.8746949209
0.25665283203125	0.0028564453125	2804.31719991978
0.261077880859375	0.00287200927734375	2804.75970491866
0.2655029296875	0.00288604736328125	2805.20220991755
0.269927978515625	0.002899169921875	2805.64471491643
0.27435302734375	0.0029107666015625	2806.08721991531
0.278778076171875	0.00292327880859375	2806.52972491419
0.283203125	0.00293548583984375	2806.97222991308
0.287628173828125	0.002947998046875	2807.41473491196
0.29205322265625	0.002960205078125	2807.85723991084
0.296478271484375	0.00297149658203125	2808.29974490972
0.3009033203125	0.0029827880859375	2808.74224990861
0.305328369140625	0.002994384765625	2809.18475490749
0.30975341796875	0.00300689697265625	2809.62725990637
0.314178466796875	0.00302093505859375	2810.06976490526
0.318603515625	0.00303131103515625	2810.51226990414
0.323028564453125	0.00304168701171875	2810.95477490302
0.32745361328125	0.00305206298828125	2811.3972799019
0.331878662109375	0.0030633544921875	2811.83978490079
0.3363037109375	0.00307464599609375	2812.28228989967
0.340728759765625	0.003084716796875	2812.72479489855
0.34515380859375	0.0030950927734375	2813.16729989744
0.349578857421875	0.00310577392578125	2813.60980489632
0.35400390625	0.0031146240234375	2814.0523098952
0.358428955078125	0.0031256103515625	2814.49481489408
0.36285400390625	0.00313507080078125	2814.93731989297
0.367279052734375	0.00314453125	2815.37982489185
0.3717041015625	0.00315460205078125	2815.82232989073
0.376129150390625	0.0031640625	2816.26483488961
0.38055419921875	0.0031744384765625	2816.7073398885
0.384979248046875	0.0031829833984375	2817.14984488738
0.389404296875	0.003192138671875	2817.59234988626
0.393829345703125	0.0032000732421875	2818.03485488515
0.39825439453125	0.0032086181640625	2818.47735988403
0.402679443359375	0.00321685791015625	2818.91986488291
0.4071044921875	0.0032244873046875	2819.36236988179
0.411529541015625	0.003231201171875	2819.80487488068
0.41595458984375	0.003238525390625	2820.24737987956
0.420379638671875	0.003245849609375	2820.68988487844
0.4248046875	0.00325286865234375	2821.13238987733
0.429229736328125	0.0032598876953125	2821.57489487621
0.43365478515625	0.00326568603515625	2822.01739987509
0.438079833984375	0.00327117919921875	2822.45990487397
0.4425048828125	0.0032769775390625	2822.90240987286
0.446929931640625	0.003282470703125	2823.34491487174
0.45135498046875	0.003287353515625	2823.78741987062
0.455780029296875	0.003292236328125	2824.2299248695
0.460205078125	0.0032958984375	2824.67242986839
0.464630126953125	0.00330047607421875	2825.11493486727
0.46905517578125	0.003304443359375	2825.55743986615
0.473480224609375	0.00330902099609375	2825.99994486504
0.4779052734375	0.0033123779296875	2826.44244986392
0.482330322265625	0.003316650390625	2826.8849548628
0.48675537109375	0.00332061767578125	2827.32745986168
0.491180419921875	0.003323974609375	2827.76996486057
0.49560546875	0.00332794189453125	2828.21246985945
0.500030517578125	0.00333099365234375	2828.65497485833
0.50445556640625	0.003333740234375	2829.09747985722
0.508880615234375	0.00333587646484375	2829.5399848561
0.5133056640625	0.0033392333984375	2829.98248985498
0.517730712890625	0.0033416748046875	2830.42499485386
0.52215576171875	0.00334442138671875	2830.86749985275
0.526580810546875	0.00334716796875	2831.31000485163
0.531005859375	0.0033489990234375	2831.75250985051
0.535430908203125	0.00335113525390625	2832.1950148494
0.53985595703125	0.00335357666015625	2832.63751984828
0.544281005859375	0.00335479736328125	2833.08002484716
0.5487060546875	0.00335540771484375	2833.52252984604
0.553131103515625	0.00335662841796875	2833.96503484493
0.55755615234375	0.003358154296875	2834.40753984381
0.561981201171875	0.00336029052734375	2834.85004484269
0.56640625	0.00336151123046875	2835.29254984157
0.570831298828125	0.0033624267578125	2835.73505484046
0.57525634765625	0.0033642578125	2836.17755983934
0.579681396484375	0.00336517333984375	2836.62006483822
0.5841064453125	0.00336639404296875	2837.06256983711
0.588531494140625	0.00336669921875	2837.50507483599
0.59295654296875	0.003367919921875	2837.94757983487
0.597381591796875	0.0033697509765625	2838.39008483375
0.601806640625	0.00337188720703125	2838.83258983264
0.606231689453125	0.0033740234375	2839.27509483152
0.61065673828125	0.0033758544921875	2839.7175998304
0.615081787109375	0.00337738037109375	2840.16010482929
0.6195068359375	0.00337982177734375	2840.60260982817
0.623931884765625	0.00338287353515625	2841.04511482705
0.62835693359375	0.00338897705078125	2841.48761982593
0.632781982421875	0.00339202880859375	2841.93012482482
0.63720703125	0.0033941650390625	2842.3726298237
0.641632080078125	0.00339691162109375	2842.81513482258
0.64605712890625	0.003399658203125	2843.25763982146
0.650482177734375	0.00340362548828125	2843.70014482035
0.6549072265625	0.00340728759765625	2844.14264981923
0.659332275390625	0.0034112548828125	2844.58515481811
0.66375732421875	0.00341583251953125	2845.027659817
0.668182373046875	0.00342071533203125	2845.47016481588
0.672607421875	0.0034259033203125	2845.91266981476
0.677032470703125	0.00343231201171875	2846.35517481364
0.68145751953125	0.00343841552734375	2846.79767981253
0.685882568359375	0.00344451904296875	2847.24018481141
0.6903076171875	0.003450927734375	2847.68268981029
0.694732666015625	0.00345916748046875	2848.12519480917
0.69915771484375	0.0034661865234375	2848.56769980806
0.703582763671875	0.00347381591796875	2849.01020480694
0.7080078125	0.00348236083984375	2849.45270980582
0.712432861328125	0.0034918212890625	2849.89521480471
0.71685791015625	0.00350189208984375	2850.33771980359
0.721282958984375	0.0035125732421875	2850.78022480247
0.7257080078125	0.0035235595703125	2851.22272980135
0.730133056640625	0.00353485107421875	2851.66523480024
0.73455810546875	0.00354644775390625	2852.10773979912
0.738983154296875	0.0035595703125	2852.550244798
0.743408203125	0.00357086181640625	2852.99274979689
0.747833251953125	0.0035858154296875	2853.43525479577
0.75225830078125	0.003599853515625	2853.87775979465
0.756683349609375	0.00361541748046875	2854.32026479353
0.7611083984375	0.003631591796875	2854.76276979242
0.765533447265625	0.0036492919921875	2855.2052747913
0.76995849609375	0.003668212890625	2855.64777979018
0.774383544921875	0.00368743896484375	2856.09028478907
0.77880859375	0.00370758056640625	2856.53278978795
0.783233642578125	0.00372802734375	2856.97529478683
0.78765869140625	0.00375030517578125	2857.41779978571
0.792083740234375	0.0037738037109375	2857.8603047846
0.7965087890625	0.00379913330078125	2858.30280978348
0.800933837890625	0.00382537841796875	2858.74531478236
0.80535888671875	0.0038519287109375	2859.18781978124
0.809783935546875	0.0038800048828125	2859.63032478013
0.814208984375	0.00391021728515625	2860.07282977901
0.818634033203125	0.00394195556640625	2860.51533477789
0.82305908203125	0.0039752197265625	2860.95783977678
0.827484130859375	0.0040093994140625	2861.40034477566
0.8319091796875	0.00404541015625	2861.84284977454
0.836334228515625	0.0040826416015625	2862.28535477342
0.84075927734375	0.00412322998046875	2862.72785977231
0.845184326171875	0.0041644287109375	2863.17036477119
0.849609375	0.004207763671875	2863.61286977007
0.854034423828125	0.004251708984375	2864.05537476896
0.85845947265625	0.00429840087890625	2864.49787976784
0.862884521484375	0.0043463134765625	2864.94038476672
0.8673095703125	0.00439849853515625	2865.3828897656
0.871734619140625	0.00445098876953125	2865.82539476449
0.87615966796875	0.00450531005859375	2866.26789976337
0.880584716796875	0.00456146240234375	2866.71040476225
0.885009765625	0.00462005615234375	2867.15290976113
0.889434814453125	0.004681396484375	2867.59541476002
0.89385986328125	0.004744873046875	2868.0379197589
0.898284912109375	0.00480865478515625	2868.48042475778
0.9027099609375	0.004874267578125	2868.92292975667
0.907135009765625	0.00494293212890625	2869.36543475555
0.91156005859375	0.00501434326171875	2869.80793975443
0.915985107421875	0.00508758544921875	2870.25044475331
0.92041015625	0.00516143798828125	2870.6929497522
0.924835205078125	0.00523773193359375	2871.13545475108
0.92926025390625	0.00531646728515625	2871.57795974996
0.933685302734375	0.00539764404296875	2872.02046474885
0.9381103515625	0.0054827880859375	2872.46296974773
0.942535400390625	0.0055670166015625	2872.90547474661
0.94696044921875	0.00565277099609375	2873.34797974549
0.951385498046875	0.00574127197265625	2873.79048474438
0.955810546875	0.00583099365234375	2874.23298974326
0.960235595703125	0.0059228515625	2874.67549474214
0.96466064453125	0.00601715087890625	2875.11799974102
0.969085693359375	0.0061004638671875	2875.56050473991
0.9735107421875	0.006195068359375	2876.00300973879
0.977935791015625	0.0062896728515625	2876.44551473767
0.98236083984375	0.006390380859375	2876.88801973656
0.986785888671875	0.0064910888671875	2877.33052473544
0.9912109375	0.0065948486328125	2877.77302973432
0.995635986328125	0.0066986083984375	2878.2155347332
1.00006103515625	0.006805419921875	2878.65803973209
0.995635986328125	0.006146240234375	2879.10054473097
0.9912109375	0.0055633544921875	2879.54304972985
0.986785888671875	0.0050384521484375	2879.98555472874
0.98236083984375	0.0045550537109375	2880.42805972762
0.977935791015625	0.00410888671875	2880.8705647265
0.9735107421875	0.0036956787109375	2881.31306972538
0.969085693359375	0.003306884765625	2881.75557472427
0.96466064453125	0.00294158935546875	2882.19807972315
0.960235595703125	0.00259857177734375	2882.64058472203
0.955810546875	0.00227264404296875	2883.08308972091
0.951385498046875	0.0019635009765625	2883.5255947198
0.94696044921875	0.00166961669921875	2883.96809971868
0.942535400390625	0.00139068603515625	2884.41060471756
0.9381103515625	0.001124267578125	2884.85310971645
0.933685302734375	0.0008685302734375	2885.29561471533
0.92926025390625	0.00062774658203125	2885.73811971421
0.924835205078125	0.0003975830078125	2886.18062471309
0.92041015625	0.000177703857421875	2886.62312971198
0.915985107421875	-3.09539794921875E-05	2887.06563471086
0.91156005859375	-0.000231353759765625	2887.50813970974
0.907135009765625	-0.000422210693359375	2887.95064470863
0.9027099609375	-0.000604766845703125	2888.39314970751
0.898284912109375	-0.0007781982421875	2888.83565470639
0.89385986328125	-0.0009442138671875	2889.27815970527
0.889434814453125	-0.00110198974609375	2889.72066470416
0.885009765625	-0.0012530517578125	2890.16316970304
0.880584716796875	-0.00139678955078125	2890.60567470192
0.87615966796875	-0.00153411865234375	2891.04817970081
0.871734619140625	-0.0016650390625	2891.49068469969
0.8673095703125	-0.00178924560546875	2891.93318969857
0.862884521484375	-0.00190765380859375	2892.37569469745
0.85845947265625	-0.00201873779296875	2892.81819969634
0.854034423828125	-0.00212554931640625	2893.26070469522
0.849609375	-0.0022271728515625	2893.7032096941
0.845184326171875	-0.00232330322265625	2894.14571469298
0.84075927734375	-0.0024139404296875	2894.58821969187
0.836334228515625	-0.00250030517578125	2895.03072469075
0.8319091796875	-0.00258209228515625	2895.47322968963
0.827484130859375	-0.0026593017578125	2895.91573468852
0.82305908203125	-0.00273223876953125	2896.3582396874
0.818634033203125	-0.00280059814453125	2896.80074468628
0.814208984375	-0.0028643798828125	2897.24324968516
0.809783935546875	-0.00292449951171875	2897.68575468405
0.80535888671875	-0.00298187255859375	2898.12825968293
0.800933837890625	-0.00303558349609375	2898.57076468181
0.7965087890625	-0.00308502197265625	2899.01326968069
0.792083740234375	-0.00313079833984375	2899.45577467958
0.78765869140625	-0.003173828125	2899.89827967846
0.783233642578125	-0.003214111328125	2900.34078467734
0.77880859375	-0.003250732421875	2900.78328967623
0.774383544921875	-0.00328521728515625	2901.22579467511
0.76995849609375	-0.00331573486328125	2901.66829967399
0.765533447265625	-0.003343505859375	2902.11080467287
0.7611083984375	-0.00336822509765625	2902.55330967176
0.756683349609375	-0.00339202880859375	2902.99581467064
0.75225830078125	-0.0034130859375	2903.43831966952
0.747833251953125	-0.00343017578125	2903.88082466841
0.743408203125	-0.00344512939453125	2904.32332966729
0.738983154296875	-0.00345733642578125	2904.76583466617
0.73455810546875	-0.00346954345703125	2905.20833966505
0.730133056640625	-0.00347900390625	2905.65084466394
0.7257080078125	-0.00348663330078125	2906.09334966282
0.721282958984375	-0.003492431640625	2906.5358546617
0.71685791015625	-0.00349639892578125	2906.97835966059
0.712432861328125	-0.003499755859375	2907.42086465947
0.7080078125	-0.0035015869140625	2907.86336965835
0.703582763671875	-0.00350128173828125	2908.30587465723
0.69915771484375	-0.00349884033203125	2908.74837965612
0.694732666015625	-0.00349639892578125	2909.190884655
0.6903076171875	-0.00349395751953125	2909.63338965388
0.685882568359375	-0.00349029541015625	2910.07589465276
0.68145751953125	-0.00348541259765625	2910.51839965165
0.677032470703125	-0.00347900390625	2910.96090465053
0.672607421875	-0.003472900390625	2911.40340964941
0.668182373046875	-0.0034661865234375	2911.8459146483
0.66375732421875	-0.00345947265625	2912.28841964718
0.659332275390625	-0.00345245361328125	2912.73092464606
0.6549072265625	-0.0034442138671875	2913.17342964494
0.650482177734375	-0.00343597412109375	2913.61593464383
0.64605712890625	-0.00342803955078125	2914.05843964271
0.641632080078125	-0.0034197998046875	2914.50094464159
0.63720703125	-0.00341156005859375	2914.94344964048
0.632781982421875	-0.00340240478515625	2915.38595463936
0.62835693359375	-0.00339385986328125	2915.82845963824
0.623931884765625	-0.00338897705078125	2916.27096463712
0.6195068359375	-0.0033807373046875	2916.71346963601
0.615081787109375	-0.003372802734375	2917.15597463489
0.61065673828125	-0.00336517333984375	2917.59847963377
0.606231689453125	-0.00335662841796875	2918.04098463265
0.601806640625	-0.003348388671875	2918.48348963154
0.597381591796875	-0.0033416748046875	2918.92599463042
0.59295654296875	-0.00333526611328125	2919.3684996293
0.588531494140625	-0.00332916259765625	2919.81100462819
0.5841064453125	-0.0033209228515625	2920.25350962707
0.579681396484375	-0.00331512451171875	2920.69601462595
0.57525634765625	-0.00330963134765625	2921.13851962483
0.570831298828125	-0.00330535888671875	2921.58102462372
0.56640625	-0.00330169677734375	2922.0235296226
0.561981201171875	-0.003297119140625	2922.46603462148
0.55755615234375	-0.0032928466796875	2922.90853962037
0.553131103515625	-0.00328948974609375	2923.35104461925
0.5487060546875	-0.00328704833984375	2923.79354961813
0.544281005859375	-0.00328399658203125	2924.23605461701
0.53985595703125	-0.00328216552734375	2924.6785596159
0.535430908203125	-0.00328033447265625	2925.12106461478
0.531005859375	-0.0032794189453125	2925.56356961366
0.526580810546875	-0.0032781982421875	2926.00607461254
0.52215576171875	-0.00327850341796875	2926.44857961143
0.517730712890625	-0.00327880859375	2926.89108461031
0.5133056640625	-0.00327880859375	2927.33358960919
0.508880615234375	-0.0032794189453125	2927.77609460808
0.50445556640625	-0.00328033447265625	2928.21859960696
0.500030517578125	-0.0032818603515625	2928.66110460584
0.49560546875	-0.0032830810546875	2929.10360960472
0.491180419921875	-0.0032843017578125	2929.54611460361
0.48675537109375	-0.00328643798828125	2929.98861960249
0.482330322265625	-0.00328887939453125	2930.43112460137
0.4779052734375	-0.00329193115234375	2930.87362960026
0.473480224609375	-0.00329559326171875	2931.31613459914
0.46905517578125	-0.00329864501953125	2931.75863959802
0.464630126953125	-0.00330047607421875	2932.2011445969
0.460205078125	-0.00330413818359375	2932.64364959579
0.455780029296875	-0.00330810546875	2933.08615459467
0.45135498046875	-0.0033123779296875	2933.52865959355
0.446929931640625	-0.00331634521484375	2933.97116459243
0.4425048828125	-0.00332000732421875	2934.41366959132
0.438079833984375	-0.00332366943359375	2934.8561745902
0.43365478515625	-0.00332794189453125	2935.29867958908
0.429229736328125	-0.00333160400390625	2935.74118458797
0.4248046875	-0.003336181640625	2936.18368958685
0.420379638671875	-0.00334014892578125	2936.62619458573
0.41595458984375	-0.003343505859375	2937.06869958461
0.411529541015625	-0.00334808349609375	2937.5112045835
0.4071044921875	-0.00335205078125	2937.95370958238
0.402679443359375	-0.00335662841796875	2938.39621458126
0.39825439453125	-0.003360595703125	2938.83871958015
0.393829345703125	-0.00336456298828125	2939.28122457903
0.389404296875	-0.0033673095703125	2939.72372957791
0.384979248046875	-0.0033721923828125	2940.16623457679
0.38055419921875	-0.0033770751953125	2940.60873957568
0.376129150390625	-0.00338104248046875	2941.05124457456
0.3717041015625	-0.00338531494140625	2941.49374957344
0.367279052734375	-0.0033892822265625	2941.93625457233
0.36285400390625	-0.0033941650390625	2942.37875957121
0.358428955078125	-0.0033984375	2942.82126457009
0.35400390625	-0.0034033203125	2943.26376956897
0.349578857421875	-0.00340576171875	2943.70627456786
0.34515380859375	-0.00341033935546875	2944.14877956674
0.340728759765625	-0.00341522216796875	2944.59128456562
0.3363037109375	-0.0034210205078125	2945.0337895645
0.331878662109375	-0.00342620849609375	2945.47629456339
0.32745361328125	-0.00343170166015625	2945.91879956227
0.323028564453125	-0.0034368896484375	2946.36130456115
0.318603515625	-0.0034417724609375	2946.80380956004
0.314178466796875	-0.0034478759765625	2947.24631455892
0.30975341796875	-0.00345611572265625	2947.6888195578
0.305328369140625	-0.00346160888671875	2948.13132455668
0.3009033203125	-0.00346710205078125	2948.57382955557
0.296478271484375	-0.003472900390625	2949.01633455445
0.29205322265625	-0.00347869873046875	2949.45883955333
0.287628173828125	-0.00348480224609375	2949.90134455222
0.283203125	-0.00349151611328125	2950.3438495511
0.278778076171875	-0.0034979248046875	2950.78635454998
0.27435302734375	-0.00350341796875	2951.22885954886
0.269927978515625	-0.00350982666015625	2951.67136454775
0.2655029296875	-0.0035174560546875	2952.11386954663
0.261077880859375	-0.003524169921875	2952.55637454551
0.25665283203125	-0.003531494140625	2952.99887954439
0.252227783203125	-0.00353790283203125	2953.44138454328
0.247802734375	-0.00354522705078125	2953.88388954216
0.243377685546875	-0.0035528564453125	2954.32639454104
0.23895263671875	-0.00356109619140625	2954.76889953993
0.234527587890625	-0.0035693359375	2955.21140453881
0.2301025390625	-0.0035760498046875	2955.65390953769
0.225677490234375	-0.003583984375	2956.09641453657
0.22125244140625	-0.00359222412109375	2956.53891953546
0.216827392578125	-0.00360076904296875	2956.98142453434
0.21240234375	-0.003609619140625	2957.42392953322
0.207977294921875	-0.00361846923828125	2957.8664345321
0.20355224609375	-0.003626708984375	2958.30893953099
0.199127197265625	-0.00363555908203125	2958.75144452987
0.1947021484375	-0.0036444091796875	2959.19394952875
0.190277099609375	-0.00365447998046875	2959.63645452764
0.18585205078125	-0.0036639404296875	2960.07895952652
0.181427001953125	-0.00367340087890625	2960.5214645254
0.177001953125	-0.00368255615234375	2960.96396952428
0.172576904296875	-0.00369293212890625	2961.40647452317
0.16815185546875	-0.00370361328125	2961.84897952205
0.163726806640625	-0.003714599609375	2962.29148452093
0.1593017578125	-0.00372528076171875	2962.73398951982
0.154876708984375	-0.00373504638671875	2963.1764945187
0.15045166015625	-0.0037457275390625	2963.61899951758
0.146026611328125	-0.00375732421875	2964.06150451646
0.1416015625	-0.00376953125	2964.50400951535
0.137176513671875	-0.00378173828125	2964.94651451423
0.13275146484375	-0.00379425048828125	2965.38901951311
0.128326416015625	-0.00380645751953125	2965.831524512
0.1239013671875	-0.003819580078125	2966.27402951088
0.119476318359375	-0.0038336181640625	2966.71653450976
0.11505126953125	-0.0038458251953125	2967.15903950864
0.110626220703125	-0.00385986328125	2967.60154450753
0.106201171875	-0.00387451171875	2968.04404950641
0.101776123046875	-0.00388916015625	2968.48655450529
0.09735107421875	-0.003905029296875	2968.92905950417
0.092926025390625	-0.00392059326171875	2969.37156450306
0.0885009765625	-0.00393646240234375	2969.81406950194
0.084075927734375	-0.00395233154296875	2970.25657450082
0.07965087890625	-0.00396942138671875	2970.69907949971
0.075225830078125	-0.0039849853515625	2971.14158449859
0.07080078125	-0.00400299072265625	2971.58408949747
0.066375732421875	-0.00402069091796875	2972.02659449635
0.06195068359375	-0.0040380859375	2972.46909949524
0.057525634765625	-0.00405609130859375	2972.91160449412
0.0531005859375	-0.00407470703125	2973.354109493
0.048675537109375	-0.00409332275390625	2973.79661449189
0.04425048828125	-0.0041131591796875	2974.23911949077
0.039825439453125	-0.00413330078125	2974.68162448965
0.035400390625	-0.0041522216796875	2975.12412948853
0.030975341796875	-0.00417205810546875	2975.56663448742
0.02655029296875	-0.0041925048828125	2976.0091394863
0.022125244140625	-0.0042138671875	2976.45164448518
0.0177001953125	-0.00423492431640625	2976.89414948406
0.013275146484375	-0.00425506591796875	2977.33665448295
0.00885009765625	-0.004276123046875	2977.77915948183
0.004425048828125	-0.00429840087890625	2978.22166448071
0	-0.00432098388671875	2978.6641694796
0.004425048828125	-0.00363433837890625	2979.10667447848
0.00885009765625	-0.0030517578125	2979.54917947736
0.013275146484375	-0.0025445556640625	2979.99168447624
0.0177001953125	-0.0020965576171875	2980.43418947513
0.022125244140625	-0.00169708251953125	2980.87669447401
0.02655029296875	-0.001337890625	2981.31919947289
0.030975341796875	-0.00101348876953125	2981.76170447178
0.035400390625	-0.000718994140625	2982.20420947066
0.039825439453125	-0.00045074462890625	2982.64671446954
0.04425048828125	-0.000205413818359375	2983.08921946842
0.048675537109375	1.9439697265625E-05	2983.53172446731
0.0531005859375	0.00022564697265625	2983.97422946619
0.057525634765625	0.000415283203125	2984.41673446507
0.06195068359375	0.000590576171875	2984.85923946395
0.066375732421875	0.0007528076171875	2985.30174446284
0.07080078125	0.0009014892578125	2985.74424946172
0.075225830078125	0.00103973388671875	2986.1867544606
0.07965087890625	0.001165771484375	2986.62925945949
0.084075927734375	0.0012835693359375	2987.07176445837
0.0885009765625	0.0013922119140625	2987.51426945725
0.092926025390625	0.0014923095703125	2987.95677445613
0.09735107421875	0.0015869140625	2988.39927945502
0.101776123046875	0.00167510986328125	2988.8417844539
0.106201171875	0.00175628662109375	2989.28428945278
0.110626220703125	0.0018328857421875	2989.72679445167
0.11505126953125	0.0019036865234375	2990.16929945055
0.119476318359375	0.0019683837890625	2990.61180444943
0.1239013671875	0.00203033447265625	2991.05430944831
0.128326416015625	0.00208740234375	2991.4968144472
0.13275146484375	0.00214080810546875	2991.93931944608
0.137176513671875	0.00219146728515625	2992.38182444496
0.1416015625	0.00223785400390625	2992.82432944384
0.146026611328125	0.00228179931640625	2993.26683444273
0.15045166015625	0.00232269287109375	2993.70933944161
0.154876708984375	0.00236053466796875	2994.15184444049
0.1593017578125	0.00239654541015625	2994.59434943938
0.163726806640625	0.00243011474609375	2995.03685443826
0.16815185546875	0.00246246337890625	2995.47935943714
0.172576904296875	0.00249298095703125	2995.92186443602
0.177001953125	0.00252105712890625	2996.36436943491
0.181427001953125	0.00254791259765625	2996.80687443379
0.18585205078125	0.0025726318359375	2997.24937943267
0.190277099609375	0.00259674072265625	2997.69188443156
0.1947021484375	0.00261962890625	2998.13438943044
0.199127197265625	0.00264129638671875	2998.57689442932
0.20355224609375	0.00266143798828125	2999.0193994282
0.207977294921875	0.0026806640625	2999.46190442709
0.21240234375	0.0026995849609375	2999.90440942597
0.216827392578125	0.0027178955078125	3000.34691442485
0.22125244140625	0.002735595703125	3000.78941942374
0.225677490234375	0.0027520751953125	3001.23192442262
0.2301025390625	0.00276763916015625	3001.6744294215
0.234527587890625	0.002781982421875	3002.11693442038
0.23895263671875	0.00279754638671875	3002.55943941927
0.243377685546875	0.0028125	3003.00194441815
0.247802734375	0.00282684326171875	3003.44444941703
0.252227783203125	0.0028399658203125	3003.88695441591
0.25665283203125	0.002852783203125	3004.3294594148
0.261077880859375	0.0028668212890625	3004.77196441368
0.2655029296875	0.002880859375	3005.21446941256
0.269927978515625	0.00289306640625	3005.65697441145
0.27435302734375	0.0029046630859375	3006.09947941033
0.278778076171875	0.002916259765625	3006.54198440921
0.283203125	0.00292724609375	3006.98448940809
0.287628173828125	0.00293914794921875	3007.42699440698
0.29205322265625	0.00295074462890625	3007.86949940586
0.296478271484375	0.00296142578125	3008.31200440474
0.3009033203125	0.00297119140625	3008.75450940362
0.305328369140625	0.0029815673828125	3009.19701440251
0.30975341796875	0.00299407958984375	3009.63951940139
0.314178466796875	0.0030072021484375	3010.08202440027
0.318603515625	0.0030169677734375	3010.52452939916
0.323028564453125	0.00302703857421875	3010.96703439804
0.32745361328125	0.00303680419921875	3011.40953939692
0.331878662109375	0.00304718017578125	3011.8520443958
0.3363037109375	0.00305694580078125	3012.29454939469
0.340728759765625	0.0030670166015625	3012.73705439357
0.34515380859375	0.00307708740234375	3013.17955939245
0.349578857421875	0.00308624267578125	3013.62206439134
0.35400390625	0.00309417724609375	3014.06456939022
0.358428955078125	0.00310394287109375	3014.5070743891
0.36285400390625	0.00311370849609375	3014.94957938798
0.367279052734375	0.00312347412109375	3015.39208438687
0.3717041015625	0.00313201904296875	3015.83458938575
0.376129150390625	0.0031402587890625	3016.27709438463
0.38055419921875	0.0031494140625	3016.71959938352
0.384979248046875	0.003157958984375	3017.1621043824
0.389404296875	0.0031671142578125	3017.60460938128
0.393829345703125	0.00317474365234375	3018.04711438016
0.39825439453125	0.0031817626953125	3018.48961937905
0.402679443359375	0.003189697265625	3018.93212437793
0.4071044921875	0.003197021484375	3019.37462937681
0.411529541015625	0.0032049560546875	3019.81713437569
0.41595458984375	0.00321197509765625	3020.25963937458
0.420379638671875	0.00321807861328125	3020.70214437346
0.4248046875	0.0032244873046875	3021.14464937234
0.429229736328125	0.0032305908203125	3021.58715437123
0.43365478515625	0.003236083984375	3022.02965937011
0.438079833984375	0.00324188232421875	3022.47216436899
0.4425048828125	0.0032464599609375	3022.91466936787
0.446929931640625	0.00325164794921875	3023.35717436676
0.45135498046875	0.00325592041015625	3023.79967936564
0.455780029296875	0.0032611083984375	3024.24218436452
0.460205078125	0.003265380859375	3024.68468936341
0.464630126953125	0.0032696533203125	3025.12719436229
0.46905517578125	0.003272705078125	3025.56969936117
0.473480224609375	0.0032757568359375	3026.01220436005
0.4779052734375	0.00328033447265625	3026.45470935894
0.482330322265625	0.0032843017578125	3026.89721435782
0.48675537109375	0.00328765869140625	3027.3397193567
0.491180419921875	0.003291015625	3027.78222435558
0.49560546875	0.0032940673828125	3028.22472935447
0.500030517578125	0.00329681396484375	3028.66723435335
0.50445556640625	0.00329986572265625	3029.10973935223
0.508880615234375	0.0033026123046875	3029.55224435112
0.5133056640625	0.00330535888671875	3029.99474935
0.517730712890625	0.00330780029296875	3030.43725434888
0.52215576171875	0.00330963134765625	3030.87975934776
0.526580810546875	0.0033123779296875	3031.32226434665
0.531005859375	0.00331512451171875	3031.76476934553
0.535430908203125	0.00331695556640625	3032.20727434441
0.53985595703125	0.0033184814453125	3032.6497793433
0.544281005859375	0.00331939697265625	3033.09228434218
0.5487060546875	0.00332000732421875	3033.53478934106
0.553131103515625	0.00332275390625	3033.97729433994
0.55755615234375	0.00332366943359375	3034.41979933883
0.561981201171875	0.0033251953125	3034.86230433771
0.56640625	0.00332550048828125	3035.30480933659
0.570831298828125	0.0033270263671875	3035.74731433547
0.57525634765625	0.00332916259765625	3036.18981933436
0.579681396484375	0.00333038330078125	3036.63232433324
0.5841064453125	0.00333160400390625	3037.07482933212
0.588531494140625	0.00333160400390625	3037.51733433101
0.59295654296875	0.0033331298828125	3037.95983932989
0.597381591796875	0.0033343505859375	3038.40234432877
0.601806640625	0.0033367919921875	3038.84484932765
0.606231689453125	0.00333892822265625	3039.28735432654
0.61065673828125	0.00334075927734375	3039.72985932542
0.615081787109375	0.00334259033203125	3040.1723643243
0.6195068359375	0.00334442138671875	3040.61486932319
0.623931884765625	0.00334747314453125	3041.05737432207
0.62835693359375	0.0033538818359375	3041.49987932095
0.632781982421875	0.00335662841796875	3041.94238431983
0.63720703125	0.00335845947265625	3042.38488931872
0.641632080078125	0.00336151123046875	3042.8273943176
0.64605712890625	0.00336456298828125	3043.26989931648
0.650482177734375	0.00336822509765625	3043.71240431536
0.6549072265625	0.00337249755859375	3044.15490931425
0.659332275390625	0.00337615966796875	3044.59741431313
0.66375732421875	0.00338043212890625	3045.03991931201
0.668182373046875	0.00338531494140625	3045.4824243109
0.672607421875	0.00339080810546875	3045.92492930978
0.677032470703125	0.0033966064453125	3046.36743430866
0.68145751953125	0.00340240478515625	3046.80993930754
0.685882568359375	0.00340789794921875	3047.25244430643
0.6903076171875	0.0034149169921875	3047.69494930531
0.694732666015625	0.0034222412109375	3048.13745430419
0.69915771484375	0.00342926025390625	3048.57995930308
0.703582763671875	0.0034368896484375	3049.02246430196
0.7080078125	0.00344482421875	3049.46496930084
0.712432861328125	0.003453369140625	3049.90747429972
0.71685791015625	0.0034625244140625	3050.34997929861
0.721282958984375	0.0034735107421875	3050.79248429749
0.7257080078125	0.00348358154296875	3051.23498929637
0.730133056640625	0.003494873046875	3051.67749429526
0.73455810546875	0.0035064697265625	3052.11999929414
0.738983154296875	0.003519287109375	3052.56250429302
0.743408203125	0.0035302734375	3053.0050092919
0.747833251953125	0.00354461669921875	3053.44751429079
0.75225830078125	0.0035589599609375	3053.89001928967
0.756683349609375	0.00357391357421875	3054.33252428855
0.7611083984375	0.0035894775390625	3054.77502928743
0.765533447265625	0.00360626220703125	3055.21753428632
0.76995849609375	0.003624267578125	3055.6600392852
0.774383544921875	0.00364349365234375	3056.10254428408
0.77880859375	0.0036627197265625	3056.54504928297
0.783233642578125	0.0036822509765625	3056.98755428185
0.78765869140625	0.00370391845703125	3057.43005928073
0.792083740234375	0.003726806640625	3057.87256427961
0.7965087890625	0.00375091552734375	3058.3150692785
0.800933837890625	0.00377593994140625	3058.75757427738
0.80535888671875	0.0038018798828125	3059.20007927626
0.809783935546875	0.00382904052734375	3059.64258427515
0.814208984375	0.0038580322265625	3060.08508927403
0.818634033203125	0.00388946533203125	3060.52759427291
0.82305908203125	0.0039208984375	3060.97009927179
0.827484130859375	0.0039532470703125	3061.41260427068
0.8319091796875	0.0039886474609375	3061.85510926956
0.836334228515625	0.00402496337890625	3062.29761426844
0.84075927734375	0.00406341552734375	3062.74011926732
0.845184326171875	0.00410430908203125	3063.18262426621
0.849609375	0.00414581298828125	3063.62512926509
0.854034423828125	0.00418853759765625	3064.06763426397
0.85845947265625	0.00423370361328125	3064.51013926286
0.862884521484375	0.0042803955078125	3064.95264426174
0.8673095703125	0.00432952880859375	3065.39514926062
0.871734619140625	0.00438079833984375	3065.8376542595
0.87615966796875	0.00443328857421875	3066.28015925839
0.880584716796875	0.004488525390625	3066.72266425727
0.885009765625	0.00454437255859375	3067.16516925615
0.889434814453125	0.00460357666015625	3067.60767425503
0.89385986328125	0.00466400146484375	3068.05017925392
0.898284912109375	0.0047271728515625	3068.4926842528
0.9027099609375	0.00479095458984375	3068.93518925168
0.907135009765625	0.00485687255859375	3069.37769425057
0.91156005859375	0.00492645263671875	3069.82019924945
0.915985107421875	0.00499755859375	3070.26270424833
0.92041015625	0.00507049560546875	3070.70520924721
0.924835205078125	0.0051446533203125	3071.1477142461
0.92926025390625	0.00522003173828125	3071.59021924498
0.933685302734375	0.00529815673828125	3072.03272424386
0.9381103515625	0.00538177490234375	3072.47522924275
0.942535400390625	0.0054638671875	3072.91773424163
0.94696044921875	0.0055474853515625	3073.36023924051
0.951385498046875	0.00563262939453125	3073.80274423939
0.955810546875	0.005718994140625	3074.24524923828
0.960235595703125	0.005809326171875	3074.68775423716
0.96466064453125	0.00590087890625	3075.13025923604
0.969085693359375	0.00599334716796875	3075.57276423493
0.9735107421875	0.006087646484375	3076.01526923381
0.977935791015625	0.006170654296875	3076.45777423269
0.98236083984375	0.0062652587890625	3076.90027923157
0.986785888671875	0.0063629150390625	3077.34278423046
0.9912109375	0.006463623046875	3077.78528922934
0.995635986328125	0.0065643310546875	3078.22779422822
1.00006103515625	0.0066680908203125	3078.6702992271
0.995635986328125	0.0060089111328125	3079.11280422599
0.9912109375	0.0054290771484375	3079.55530922487
0.986785888671875	0.0049053955078125	3079.99781422375
0.98236083984375	0.0044268798828125	3080.44031922264
0.977935791015625	0.00398468017578125	3080.88282422152
0.9735107421875	0.00357574462890625	3081.3253292204
0.969085693359375	0.00319061279296875	3081.76783421928
0.96466064453125	0.00283203125	3082.21033921817
0.960235595703125	0.0024920654296875	3082.65284421705
0.955810546875	0.00217010498046875	3083.09534921593
0.951385498046875	0.001865234375	3083.53785421482
0.94696044921875	0.001575927734375	3083.9803592137
0.942535400390625	0.00130096435546875	3084.42286421258
0.9381103515625	0.00103973388671875	3084.86536921146
0.933685302734375	0.00078857421875	3085.30787421035
0.92926025390625	0.00055206298828125	3085.75037920923
0.924835205078125	0.0003267822265625	3086.19288420811
0.92041015625	0.000111968994140625	3086.63538920699
0.915985107421875	-9.28955078125E-05	3087.07789420588
0.91156005859375	-0.00028851318359375	3087.52039920476
0.907135009765625	-0.00047503662109375	3087.96290420364
0.9027099609375	-0.00065289306640625	3088.40540920253
0.898284912109375	-0.00082183837890625	3088.84791420141
0.89385986328125	-0.00098388671875	3089.29041920029
0.889434814453125	-0.00113800048828125	3089.73292419917
0.885009765625	-0.00128509521484375	3090.17542919806
0.880584716796875	-0.00142486572265625	3090.61793419694
0.87615966796875	-0.0015582275390625	3091.06043919582
0.871734619140625	-0.00168548583984375	3091.50294419471
0.8673095703125	-0.00180633544921875	3091.94544919359
0.862884521484375	-0.00192138671875	3092.38795419247
0.85845947265625	-0.00202911376953125	3092.83045919135
0.854034423828125	-0.00213226318359375	3093.27296419024
0.849609375	-0.0022308349609375	3093.71546918912
0.845184326171875	-0.00232421875	3094.157974188
0.84075927734375	-0.00241180419921875	3094.60047918688
0.836334228515625	-0.0024957275390625	3095.04298418577
0.8319091796875	-0.00257415771484375	3095.48548918465
0.827484130859375	-0.0026483154296875	3095.92799418353
0.82305908203125	-0.00271820068359375	3096.37049918242
0.818634033203125	-0.0027838134765625	3096.8130041813
0.814208984375	-0.00284576416015625	3097.25550918018
0.809783935546875	-0.00290313720703125	3097.69801417906
0.80535888671875	-0.0029583740234375	3098.14051917795
0.800933837890625	-0.003009033203125	3098.58302417683
0.7965087890625	-0.00305633544921875	3099.02552917571
0.792083740234375	-0.00310150146484375	3099.4680341746
0.78765869140625	-0.00314239501953125	3099.91053917348
0.783233642578125	-0.00318084716796875	3100.35304417236
0.77880859375	-0.00321563720703125	3100.79554917124
0.774383544921875	-0.0032489013671875	3101.23805417013
0.76995849609375	-0.0032794189453125	3101.68055916901
0.765533447265625	-0.0033074951171875	3102.12306416789
0.7611083984375	-0.0033319091796875	3102.56556916677
0.756683349609375	-0.00335235595703125	3103.00807416566
0.75225830078125	-0.0033709716796875	3103.45057916454
0.747833251953125	-0.0033892822265625	3103.89308416342
0.743408203125	-0.003404541015625	3104.33558916231
0.738983154296875	-0.00341583251953125	3104.77809416119
0.73455810546875	-0.0034271240234375	3105.22059916007
0.730133056640625	-0.003436279296875	3105.66310415895
0.7257080078125	-0.003443603515625	3106.10560915784
0.721282958984375	-0.00344940185546875	3106.54811415672
0.71685791015625	-0.00345367431640625	3106.9906191556
0.712432861328125	-0.00345550537109375	3107.43312415449
0.7080078125	-0.00345703125	3107.87562915337
0.703582763671875	-0.003458251953125	3108.31813415225
0.69915771484375	-0.00345611572265625	3108.76063915113
0.694732666015625	-0.00345489501953125	3109.20314415002
0.6903076171875	-0.0034521484375	3109.6456491489
0.685882568359375	-0.003448486328125	3110.08815414778
0.68145751953125	-0.00344451904296875	3110.53065914667
0.677032470703125	-0.00343963623046875	3110.97316414555
0.672607421875	-0.003433837890625	3111.41566914443
0.668182373046875	-0.003427734375	3111.85817414331
0.66375732421875	-0.00342041015625	3112.3006791422
0.659332275390625	-0.00341400146484375	3112.74318414108
0.6549072265625	-0.00340667724609375	3113.18568913996
0.650482177734375	-0.00339935302734375	3113.62819413884
0.64605712890625	-0.0033917236328125	3114.07069913773
0.641632080078125	-0.00338409423828125	3114.51320413661
0.63720703125	-0.00337646484375	3114.95570913549
0.632781982421875	-0.0033685302734375	3115.39821413438
0.62835693359375	-0.00336090087890625	3115.84071913326
0.623931884765625	-0.00335662841796875	3116.28322413214
0.6195068359375	-0.003348388671875	3116.72572913102
0.615081787109375	-0.0033404541015625	3117.16823412991
0.61065673828125	-0.00333282470703125	3117.61073912879
0.606231689453125	-0.0033258056640625	3118.05324412767
0.601806640625	-0.00331939697265625	3118.49574912655
0.597381591796875	-0.00331207275390625	3118.93825412544
0.59295654296875	-0.00330596923828125	3119.38075912432
0.588531494140625	-0.00330047607421875	3119.8232641232
0.5841064453125	-0.00329315185546875	3120.26576912209
0.579681396484375	-0.00328887939453125	3120.70827412097
0.57525634765625	-0.00328399658203125	3121.15077911985
0.570831298828125	-0.0032794189453125	3121.59328411873
0.56640625	-0.00327545166015625	3122.03578911762
0.561981201171875	-0.00327239990234375	3122.4782941165
0.55755615234375	-0.0032696533203125	3122.92079911538
0.553131103515625	-0.0032666015625	3123.36330411427
0.5487060546875	-0.00326385498046875	3123.80580911315
0.544281005859375	-0.00326080322265625	3124.24831411203
0.53985595703125	-0.0032598876953125	3124.69081911091
0.535430908203125	-0.00325927734375	3125.1333241098
0.531005859375	-0.0032586669921875	3125.57582910868
0.526580810546875	-0.00325836181640625	3126.01833410756
0.52215576171875	-0.00325775146484375	3126.46083910645
0.517730712890625	-0.00325836181640625	3126.90334410533
0.5133056640625	-0.00325958251953125	3127.34584910421
0.508880615234375	-0.0032611083984375	3127.78835410309
0.50445556640625	-0.00326171875	3128.23085910198
0.500030517578125	-0.003262939453125	3128.67336410086
0.49560546875	-0.0032647705078125	3129.11586909974
0.491180419921875	-0.00326690673828125	3129.55837409862
0.48675537109375	-0.003270263671875	3130.00087909751
0.482330322265625	-0.00327301025390625	3130.44338409639
0.4779052734375	-0.00327545166015625	3130.88588909527
0.473480224609375	-0.0032781982421875	3131.32839409416
0.46905517578125	-0.00328155517578125	3131.77089909304
0.464630126953125	-0.003284912109375	3132.21340409192
0.460205078125	-0.00328887939453125	3132.6559090908
0.455780029296875	-0.003292236328125	3133.09841408969
0.45135498046875	-0.0032958984375	3133.54091908857
0.446929931640625	-0.003299560546875	3133.98342408745
0.4425048828125	-0.003304443359375	3134.42592908634
0.438079833984375	-0.0033087158203125	3134.86843408522
0.43365478515625	-0.00331268310546875	3135.3109390841
0.429229736328125	-0.00331634521484375	3135.75344408298
0.4248046875	-0.00332061767578125	3136.19594908187
0.420379638671875	-0.0033245849609375	3136.63845408075
0.41595458984375	-0.00332916259765625	3137.08095907963
0.411529541015625	-0.003333740234375	3137.52346407851
0.4071044921875	-0.0033367919921875	3137.9659690774
0.402679443359375	-0.00334075927734375	3138.40847407628
0.39825439453125	-0.0033453369140625	3138.85097907516
0.393829345703125	-0.0033502197265625	3139.29348407405
0.389404296875	-0.003353271484375	3139.73598907293
0.384979248046875	-0.00335723876953125	3140.17849407181
0.38055419921875	-0.00336151123046875	3140.62099907069
0.376129150390625	-0.00336517333984375	3141.06350406958
0.3717041015625	-0.00337005615234375	3141.50600906846
0.367279052734375	-0.00337432861328125	3141.94851406734
0.36285400390625	-0.00337860107421875	3142.39101906623
0.358428955078125	-0.00338226318359375	3142.83352406511
0.35400390625	-0.0033868408203125	3143.27602906399
0.349578857421875	-0.00338958740234375	3143.71853406287
0.34515380859375	-0.00339508056640625	3144.16103906176
0.340728759765625	-0.00339996337890625	3144.60354406064
0.3363037109375	-0.00340484619140625	3145.04604905952
0.331878662109375	-0.003409423828125	3145.4885540584
0.32745361328125	-0.00341461181640625	3145.93105905729
0.323028564453125	-0.00341949462890625	3146.37356405617
0.318603515625	-0.00342498779296875	3146.81606905505
0.314178466796875	-0.00343017578125	3147.25857405394
0.30975341796875	-0.0034375	3147.70107905282
0.305328369140625	-0.00344207763671875	3148.1435840517
0.3009033203125	-0.00344696044921875	3148.58608905058
0.296478271484375	-0.00345306396484375	3149.02859404947
0.29205322265625	-0.00345855712890625	3149.47109904835
0.287628173828125	-0.00346466064453125	3149.91360404723
0.283203125	-0.003470458984375	3150.35610904612
0.278778076171875	-0.00347625732421875	3150.798614045
0.27435302734375	-0.00348297119140625	3151.24111904388
0.269927978515625	-0.00348907470703125	3151.68362404276
0.2655029296875	-0.00349578857421875	3152.12612904165
0.261077880859375	-0.003502197265625	3152.56863404053
0.25665283203125	-0.00350921630859375	3153.01113903941
0.252227783203125	-0.0035162353515625	3153.45364403829
0.247802734375	-0.0035235595703125	3153.89614903718
0.243377685546875	-0.0035308837890625	3154.33865403606
0.23895263671875	-0.0035382080078125	3154.78115903494
0.234527587890625	-0.003544921875	3155.22366403383
0.2301025390625	-0.00355255126953125	3155.66616903271
0.225677490234375	-0.00356109619140625	3156.10867403159
0.22125244140625	-0.0035687255859375	3156.55117903047
0.216827392578125	-0.00357696533203125	3156.99368402936
0.21240234375	-0.0035858154296875	3157.43618902824
0.207977294921875	-0.00359405517578125	3157.87869402712
0.20355224609375	-0.00360260009765625	3158.32119902601
0.199127197265625	-0.00361083984375	3158.76370402489
0.1947021484375	-0.0036199951171875	3159.20620902377
0.190277099609375	-0.00362945556640625	3159.64871402265
0.18585205078125	-0.00363800048828125	3160.09121902154
0.181427001953125	-0.00364715576171875	3160.53372402042
0.177001953125	-0.00365753173828125	3160.9762290193
0.172576904296875	-0.00366729736328125	3161.41873401819
0.16815185546875	-0.00367706298828125	3161.86123901707
0.163726806640625	-0.0036871337890625	3162.30374401595
0.1593017578125	-0.00369720458984375	3162.74624901483
0.154876708984375	-0.00370819091796875	3163.18875401372
0.15045166015625	-0.00371978759765625	3163.6312590126
0.146026611328125	-0.00373046875	3164.07376401148
0.1416015625	-0.0037420654296875	3164.51626901036
0.137176513671875	-0.00375396728515625	3164.95877400925
0.13275146484375	-0.00376678466796875	3165.40127900813
0.128326416015625	-0.00377960205078125	3165.84378400701
0.1239013671875	-0.00379241943359375	3166.2862890059
0.119476318359375	-0.00380584716796875	3166.72879400478
0.11505126953125	-0.0038165283203125	3167.17129900366
0.110626220703125	-0.00383087158203125	3167.61380400254
0.106201171875	-0.00384552001953125	3168.05630900143
0.101776123046875	-0.003861083984375	3168.49881400031
0.09735107421875	-0.0038763427734375	3168.94131899919
0.092926025390625	-0.00389190673828125	3169.38382399808
0.0885009765625	-0.003907470703125	3169.82632899696
0.084075927734375	-0.0039227294921875	3170.26883399584
0.07965087890625	-0.00393951416015625	3170.71133899472
0.075225830078125	-0.00395599365234375	3171.15384399361
0.07080078125	-0.0039727783203125	3171.59634899249
0.066375732421875	-0.00399078369140625	3172.03885399137
0.06195068359375	-0.00400787353515625	3172.48135899025
0.057525634765625	-0.00402557373046875	3172.92386398914
0.0531005859375	-0.0040447998046875	3173.36636898802
0.048675537109375	-0.00406341552734375	3173.8088739869
0.04425048828125	-0.0040826416015625	3174.25137898579
0.039825439453125	-0.00410186767578125	3174.69388398467
0.035400390625	-0.0041204833984375	3175.13638898355
0.030975341796875	-0.00414093017578125	3175.57889398243
0.02655029296875	-0.00416107177734375	3176.02139898132
0.022125244140625	-0.0041815185546875	3176.4639039802
0.0177001953125	-0.0042022705078125	3176.90640897908
0.013275146484375	-0.00422332763671875	3177.34891397796
0.00885009765625	-0.004244384765625	3177.79141897685
0.004425048828125	-0.0042681884765625	3178.23392397573
0	-0.0042913818359375	3178.67642897461
0.004425048828125	-0.0036053466796875	3179.1189339735
0.00885009765625	-0.00302337646484375	3179.56143897238
0.013275146484375	-0.0025177001953125	3180.00394397126
0.0177001953125	-0.0020709228515625	3180.44644897014
0.022125244140625	-0.00167236328125	3180.88895396903
0.02655029296875	-0.001314697265625	3181.33145896791
0.030975341796875	-0.00099090576171875	3181.77396396679
0.035400390625	-0.00069671630859375	3182.21646896568
0.039825439453125	-0.0004290771484375	3182.65897396456
0.04425048828125	-0.000184783935546875	3183.10147896344
0.048675537109375	3.922119140625E-05	3183.54398396232
0.0531005859375	0.0002447509765625	3183.98648896121
0.057525634765625	0.00043408203125	3184.42899396009
0.06195068359375	0.0006082763671875	3184.87149895897
0.066375732421875	0.00076995849609375	3185.31400395786
0.07080078125	0.00091827392578125	3185.75650895674
0.075225830078125	0.00105560302734375	3186.19901395562
0.07965087890625	0.0011810302734375	3186.6415189545
0.084075927734375	0.001298828125	3187.08402395339
0.0885009765625	0.00140655517578125	3187.52652895227
0.092926025390625	0.00150665283203125	3187.96903395115
0.09735107421875	0.00160064697265625	3188.41153895003
0.101776123046875	0.00168731689453125	3188.85404394892
0.106201171875	0.0017681884765625	3189.2965489478
0.110626220703125	0.0018438720703125	3189.73905394668
0.11505126953125	0.0019140625	3190.18155894557
0.119476318359375	0.001978759765625	3190.62406394445
0.1239013671875	0.00204010009765625	3191.06656894333
0.128326416015625	0.00209747314453125	3191.50907394221
0.13275146484375	0.00214996337890625	3191.9515789411
0.137176513671875	0.00220001220703125	3192.39408393998
0.1416015625	0.00224639892578125	3192.83658893886
0.146026611328125	0.00228973388671875	3193.27909393775
0.15045166015625	0.002330322265625	3193.72159893663
0.154876708984375	0.0023681640625	3194.16410393551
0.1593017578125	0.0024029541015625	3194.60660893439
0.163726806640625	0.00243682861328125	3195.04911393328
0.16815185546875	0.00246826171875	3195.49161893216
0.172576904296875	0.00249786376953125	3195.93412393104
0.177001953125	0.00252532958984375	3196.37662892992
0.181427001953125	0.0025518798828125	3196.81913392881
0.18585205078125	0.00257659912109375	3197.26163892769
0.190277099609375	0.00260040283203125	3197.70414392657
0.1947021484375	0.0026226806640625	3198.14664892546
0.199127197265625	0.00264373779296875	3198.58915392434
0.20355224609375	0.00266326904296875	3199.03165892322
0.207977294921875	0.00268310546875	3199.4741639221
0.21240234375	0.00270111083984375	3199.91666892099
0.216827392578125	0.002718505859375	3200.35917391987
0.22125244140625	0.0027349853515625	3200.80167891875
0.225677490234375	0.0027508544921875	3201.24418391764
0.2301025390625	0.00276641845703125	3201.68668891652
0.234527587890625	0.00278076171875	3202.1291939154
0.23895263671875	0.0027947998046875	3202.57169891428
0.243377685546875	0.0028094482421875	3203.01420391317
0.247802734375	0.00282318115234375	3203.45670891205
0.252227783203125	0.00283599853515625	3203.89921391093
0.25665283203125	0.00284820556640625	3204.34171890981
0.261077880859375	0.0028619384765625	3204.7842239087
0.2655029296875	0.0028753662109375	3205.22672890758
0.269927978515625	0.0028875732421875	3205.66923390646
0.27435302734375	0.00289825439453125	3206.11173890535
0.278778076171875	0.00290924072265625	3206.55424390423
0.283203125	0.0029205322265625	3206.99674890311
0.287628173828125	0.0029315185546875	3207.43925390199
0.29205322265625	0.00294189453125	3207.88175890088
0.296478271484375	0.00295166015625	3208.32426389976
0.3009033203125	0.0029620361328125	3208.76676889864
0.305328369140625	0.0029718017578125	3209.20927389753
0.30975341796875	0.00298248291015625	3209.65177889641
0.314178466796875	0.00299591064453125	3210.09428389529
0.318603515625	0.0030047607421875	3210.53678889417
0.323028564453125	0.0030133056640625	3210.97929389306
0.32745361328125	0.003023681640625	3211.42179889194
0.331878662109375	0.0030328369140625	3211.86430389082
0.3363037109375	0.00304229736328125	3212.3068088897
0.340728759765625	0.00305145263671875	3212.74931388859
0.34515380859375	0.0030609130859375	3213.19181888747
0.349578857421875	0.00307037353515625	3213.63432388635
0.35400390625	0.00307769775390625	3214.07682888524
0.358428955078125	0.003087158203125	3214.51933388412
0.36285400390625	0.00309600830078125	3214.961838883
0.367279052734375	0.003104248046875	3215.40434388188
0.3717041015625	0.00311309814453125	3215.84684888077
0.376129150390625	0.00312225341796875	3216.28935387965
0.38055419921875	0.00313079833984375	3216.73185887853
0.384979248046875	0.0031378173828125	3217.17436387742
0.389404296875	0.0031451416015625	3217.6168688763
0.393829345703125	0.00315216064453125	3218.05937387518
0.39825439453125	0.00315948486328125	3218.50187887406
0.402679443359375	0.003167724609375	3218.94438387295
0.4071044921875	0.00317413330078125	3219.38688887183
0.411529541015625	0.00318084716796875	3219.82939387071
0.41595458984375	0.00318756103515625	3220.2718988696
0.420379638671875	0.0031939697265625	3220.71440386848
0.4248046875	0.00319976806640625	3221.15690886736
0.429229736328125	0.00320556640625	3221.59941386624
0.43365478515625	0.00321075439453125	3222.04191886513
0.438079833984375	0.00321533203125	3222.48442386401
0.4425048828125	0.00322021484375	3222.92692886289
0.446929931640625	0.00322479248046875	3223.36943386177
0.45135498046875	0.00322967529296875	3223.81193886066
0.455780029296875	0.00323394775390625	3224.25444385954
0.460205078125	0.00323699951171875	3224.69694885842
0.464630126953125	0.00324188232421875	3225.13945385731
0.46905517578125	0.003245849609375	3225.58195885619
0.473480224609375	0.00324920654296875	3226.02446385507
0.4779052734375	0.0032525634765625	3226.46696885395
0.482330322265625	0.003255615234375	3226.90947385284
0.48675537109375	0.003258056640625	3227.35197885172
0.491180419921875	0.00326171875	3227.7944838506
0.49560546875	0.003265380859375	3228.23698884948
0.500030517578125	0.00326812744140625	3228.67949384837
0.50445556640625	0.00327117919921875	3229.12199884725
0.508880615234375	0.003272705078125	3229.56450384613
0.5133056640625	0.00327484130859375	3230.00700884502
0.517730712890625	0.00327728271484375	3230.4495138439
0.52215576171875	0.003280029296875	3230.89201884278
0.526580810546875	0.00328155517578125	3231.33452384166
0.531005859375	0.0032830810546875	3231.77702884055
0.535430908203125	0.003284912109375	3232.21953383943
0.53985595703125	0.0032867431640625	3232.66203883831
0.544281005859375	0.0032891845703125	3233.1045438372
0.5487060546875	0.00329071044921875	3233.54704883608
0.553131103515625	0.0032916259765625	3233.98955383496
0.55755615234375	0.0032928466796875	3234.43205883384
0.561981201171875	0.00329437255859375	3234.87456383273
0.56640625	0.0032952880859375	3235.31706883161
0.570831298828125	0.003297119140625	3235.75957383049
0.57525634765625	0.00329833984375	3236.20207882938
0.579681396484375	0.00329864501953125	3236.64458382826
0.5841064453125	0.0033001708984375	3237.08708882714
0.588531494140625	0.0033001708984375	3237.52959382602
0.59295654296875	0.00330230712890625	3237.97209882491
0.597381591796875	0.0033038330078125	3238.41460382379
0.601806640625	0.0033050537109375	3238.85710882267
0.606231689453125	0.003306884765625	3239.29961382155
0.61065673828125	0.0033087158203125	3239.74211882044
0.615081787109375	0.00331146240234375	3240.18462381932
0.6195068359375	0.003314208984375	3240.6271288182
0.623931884765625	0.0033160400390625	3241.06963381709
0.62835693359375	0.00332183837890625	3241.51213881597
0.632781982421875	0.003323974609375	3241.95464381485
0.63720703125	0.003326416015625	3242.39714881373
0.641632080078125	0.00332977294921875	3242.83965381262
0.64605712890625	0.00333282470703125	3243.2821588115
0.650482177734375	0.00333587646484375	3243.72466381038
0.6549072265625	0.00333984375	3244.16716880927
0.659332275390625	0.00334381103515625	3244.60967380815
0.66375732421875	0.00334869384765625	3245.05217880703
0.668182373046875	0.003353271484375	3245.49468380591
0.672607421875	0.00335784912109375	3245.9371888048
0.677032470703125	0.003363037109375	3246.37969380368
0.68145751953125	0.0033685302734375	3246.82219880256
0.685882568359375	0.0033746337890625	3247.26470380144
0.6903076171875	0.00338165283203125	3247.70720880033
0.694732666015625	0.00338897705078125	3248.14971379921
0.69915771484375	0.00339508056640625	3248.59221879809
0.703582763671875	0.00340240478515625	3249.03472379698
0.7080078125	0.00341033935546875	3249.47722879586
0.712432861328125	0.0034197998046875	3249.91973379474
0.71685791015625	0.00342987060546875	3250.36223879362
0.721282958984375	0.00343963623046875	3250.80474379251
0.7257080078125	0.00344970703125	3251.24724879139
0.730133056640625	0.00346038818359375	3251.68975379027
0.73455810546875	0.00347137451171875	3252.13225878916
0.738983154296875	0.00348388671875	3252.57476378804
0.743408203125	0.0034942626953125	3253.01726878692
0.747833251953125	0.00350799560546875	3253.4597737858
0.75225830078125	0.0035211181640625	3253.90227878469
0.756683349609375	0.00353729248046875	3254.34478378357
0.7611083984375	0.00355255126953125	3254.78728878245
0.765533447265625	0.00356964111328125	3255.22979378133
0.76995849609375	0.00358642578125	3255.67229878022
0.774383544921875	0.00360321044921875	3256.1148037791
0.77880859375	0.0036224365234375	3256.55730877798
0.783233642578125	0.0036419677734375	3256.99981377687
0.78765869140625	0.00366363525390625	3257.44231877575
0.792083740234375	0.0036846923828125	3257.88482377463
0.7965087890625	0.00370758056640625	3258.32732877351
0.800933837890625	0.0037322998046875	3258.7698337724
0.80535888671875	0.0037579345703125	3259.21233877128
0.809783935546875	0.0037847900390625	3259.65484377016
0.814208984375	0.00381378173828125	3260.09734876905
0.818634033203125	0.00384185791015625	3260.53985376793
0.82305908203125	0.0038726806640625	3260.98235876681
0.827484130859375	0.003905029296875	3261.42486376569
0.8319091796875	0.0039398193359375	3261.86736876458
0.836334228515625	0.00397552490234375	3262.30987376346
0.84075927734375	0.00401214599609375	3262.75237876234
0.845184326171875	0.00405059814453125	3263.19488376122
0.849609375	0.0040911865234375	3263.63738876011
0.854034423828125	0.00413421630859375	3264.07989375899
0.85845947265625	0.00417816162109375	3264.52239875787
0.862884521484375	0.0042230224609375	3264.96490375676
0.8673095703125	0.0042706298828125	3265.40740875564
0.871734619140625	0.004320068359375	3265.84991375452
0.87615966796875	0.0043719482421875	3266.2924187534
0.880584716796875	0.00442596435546875	3266.73492375229
0.885009765625	0.0044805908203125	3267.17742875117
0.889434814453125	0.0045361328125	3267.61993375005
0.89385986328125	0.004595947265625	3268.06243874894
0.898284912109375	0.00465728759765625	3268.50494374782
0.9027099609375	0.00471954345703125	3268.9474487467
0.907135009765625	0.00478424072265625	3269.38995374558
0.91156005859375	0.0048504638671875	3269.83245874447
0.915985107421875	0.0049188232421875	3270.27496374335
0.92041015625	0.004990234375	3270.71746874223
0.924835205078125	0.0050634765625	3271.15997374112
0.92926025390625	0.00513824462890625	3271.60247874
0.933685302734375	0.00521331787109375	3272.04498373888
0.9381103515625	0.005294189453125	3272.48748873776
0.942535400390625	0.00537384033203125	3272.92999373665
0.94696044921875	0.00545623779296875	3273.37249873553
0.951385498046875	0.00553863525390625	3273.81500373441
0.955810546875	0.00562530517578125	3274.25750873329
0.960235595703125	0.00571075439453125	3274.70001373218
0.96466064453125	0.00579833984375	3275.14251873106
0.969085693359375	0.00589080810546875	3275.58502372994
0.9735107421875	0.00598358154296875	3276.02752872883
0.977935791015625	0.0060748291015625	3276.47003372771
0.98236083984375	0.006158447265625	3276.91253872659
0.986785888671875	0.00625	3277.35504372547
0.9912109375	0.00634765625	3277.79754872436
