Potential applied (V)	WE(1).Current (A)	Time (s)
0.004425048828125	-0.0741607666015625	2579.08215548844
0.00885009765625	-0.0624481201171875	2579.52466048733
0.013275146484375	-0.053619384765625	2579.96716548621
0.0177001953125	-0.0465545654296875	2580.40967048509
0.022125244140625	-0.0407470703125	2580.85217548397
0.02655029296875	-0.035894775390625	2581.29468048286
0.030975341796875	-0.0317596435546875	2581.73718548174
0.035400390625	-0.0281982421875	2582.17969048062
0.039825439453125	-0.0251068115234375	2582.62219547951
0.04425048828125	-0.022418212890625	2583.06470047839
0.048675537109375	-0.020062255859375	2583.50720547727
0.0531005859375	-0.0179779052734375	2583.94971047615
0.057525634765625	-0.0161376953125	2584.39221547504
0.06195068359375	-0.0144989013671875	2584.83472047392
0.066375732421875	-0.013037109375	2585.2772254728
0.07080078125	-0.01173095703125	2585.71973047169
0.075225830078125	-0.0105621337890625	2586.16223547057
0.07965087890625	-0.00950927734375	2586.60474046945
0.084075927734375	-0.00855712890625	2587.04724546833
0.0885009765625	-0.007696533203125	2587.48975046722
0.092926025390625	-0.0069091796875	2587.9322554661
0.09735107421875	-0.0061981201171875	2588.37476046498
0.101776123046875	-0.005548095703125	2588.81726546386
0.106201171875	-0.0049554443359375	2589.25977046275
0.110626220703125	-0.00441070556640625	2589.70227546163
0.11505126953125	-0.003912353515625	2590.14478046051
0.119476318359375	-0.0034564208984375	2590.5872854594
0.1239013671875	-0.003035888671875	2591.02979045828
0.128326416015625	-0.00265960693359375	2591.47229545716
0.13275146484375	-0.00230194091796875	2591.91480045604
0.137176513671875	-0.00197052001953125	2592.35730545493
0.1416015625	-0.00166412353515625	2592.79981045381
0.146026611328125	-0.0013812255859375	2593.24231545269
0.15045166015625	-0.0011187744140625	2593.68482045158
0.154876708984375	-0.000875244140625	2594.12732545046
0.1593017578125	-0.0006494140625	2594.56983044934
0.163726806640625	-0.000439117431640625	2595.01233544822
0.16815185546875	-0.000243621826171875	2595.45484044711
0.172576904296875	-6.1676025390625E-05	2595.89734544599
0.177001953125	0.000107513427734375	2596.33985044487
0.181427001953125	0.0002652587890625	2596.78235544375
0.18585205078125	0.000412811279296875	2597.22486044264
0.190277099609375	0.000550689697265625	2597.66736544152
0.1947021484375	0.000680084228515625	2598.1098704404
0.199127197265625	0.00080078125	2598.55237543929
0.20355224609375	0.0009130859375	2598.99488043817
0.207977294921875	0.00101806640625	2599.43738543705
0.21240234375	0.00111663818359375	2599.87989043593
0.216827392578125	0.00120849609375	2600.32239543482
0.22125244140625	0.00129547119140625	2600.7649004337
0.225677490234375	0.0013775634765625	2601.20740543258
0.2301025390625	0.0014544677734375	2601.64991043147
0.234527587890625	0.0015264892578125	2602.09241543035
0.23895263671875	0.00159515380859375	2602.53492042923
0.243377685546875	0.00166046142578125	2602.97742542811
0.247802734375	0.0017218017578125	2603.419930427
0.252227783203125	0.00178009033203125	2603.86243542588
0.25665283203125	0.0018341064453125	2604.30494042476
0.261077880859375	0.00188568115234375	2604.74744542364
0.2655029296875	0.001934814453125	2605.18995042253
0.269927978515625	0.001981201171875	2605.63245542141
0.27435302734375	0.002025146484375	2606.07496042029
0.278778076171875	0.00206695556640625	2606.51746541918
0.283203125	0.0021063232421875	2606.95997041806
0.287628173828125	0.0021441650390625	2607.40247541694
0.29205322265625	0.002181396484375	2607.84498041582
0.296478271484375	0.0022161865234375	2608.28748541471
0.3009033203125	0.0022503662109375	2608.72999041359
0.305328369140625	0.00228240966796875	2609.17249541247
0.30975341796875	0.0023138427734375	2609.61500041136
0.314178466796875	0.00234649658203125	2610.05750541024
0.318603515625	0.002374267578125	2610.50001040912
0.323028564453125	0.00240081787109375	2610.942515408
0.32745361328125	0.00242645263671875	2611.38502040689
0.331878662109375	0.00245147705078125	2611.82752540577
0.3363037109375	0.0024755859375	2612.27003040465
0.340728759765625	0.002498779296875	2612.71253540354
0.34515380859375	0.002520751953125	2613.15504040242
0.349578857421875	0.0025421142578125	2613.5975454013
0.35400390625	0.00256103515625	2614.04005040018
0.358428955078125	0.00258148193359375	2614.48255539907
0.36285400390625	0.00260101318359375	2614.92506039795
0.367279052734375	0.0026202392578125	2615.36756539683
0.3717041015625	0.0026385498046875	2615.81007039571
0.376129150390625	0.0026556396484375	2616.2525753946
0.38055419921875	0.00267181396484375	2616.69508039348
0.384979248046875	0.0026885986328125	2617.13758539236
0.389404296875	0.00270416259765625	2617.58009039125
0.393829345703125	0.0027178955078125	2618.02259539013
0.39825439453125	0.00273223876953125	2618.46510038901
0.402679443359375	0.00274658203125	2618.90760538789
0.4071044921875	0.002760009765625	2619.35011038678
0.411529541015625	0.0027728271484375	2619.79261538566
0.41595458984375	0.0027850341796875	2620.23512038454
0.420379638671875	0.00279693603515625	2620.67762538343
0.4248046875	0.0028082275390625	2621.12013038231
0.429229736328125	0.00281890869140625	2621.56263538119
0.43365478515625	0.00282928466796875	2622.00514038007
0.438079833984375	0.00283966064453125	2622.44764537896
0.4425048828125	0.00284881591796875	2622.89015037784
0.446929931640625	0.002857666015625	2623.33265537672
0.45135498046875	0.0028668212890625	2623.7751603756
0.455780029296875	0.00287567138671875	2624.21766537449
0.460205078125	0.00288360595703125	2624.66017037337
0.464630126953125	0.0028912353515625	2625.10267537225
0.46905517578125	0.00289825439453125	2625.54518037114
0.473480224609375	0.00290557861328125	2625.98768537002
0.4779052734375	0.00291229248046875	2626.4301903689
0.482330322265625	0.0029193115234375	2626.87269536778
0.48675537109375	0.002926025390625	2627.31520036667
0.491180419921875	0.00293182373046875	2627.75770536555
0.49560546875	0.00293792724609375	2628.20021036443
0.500030517578125	0.0029437255859375	2628.64271536331
0.50445556640625	0.00294952392578125	2629.0852203622
0.508880615234375	0.00295501708984375	2629.52772536108
0.5133056640625	0.002960205078125	2629.97023035996
0.517730712890625	0.002965087890625	2630.41273535885
0.52215576171875	0.0029705810546875	2630.85524035773
0.526580810546875	0.00297607421875	2631.29774535661
0.531005859375	0.00298065185546875	2631.74025035549
0.535430908203125	0.00298583984375	2632.18275535438
0.53985595703125	0.00299041748046875	2632.62526035326
0.544281005859375	0.00299468994140625	2633.06776535214
0.5487060546875	0.00299835205078125	2633.51027035103
0.553131103515625	0.00300323486328125	2633.95277534991
0.55755615234375	0.0030078125	2634.39528034879
0.561981201171875	0.00301177978515625	2634.83778534767
0.56640625	0.003016357421875	2635.28029034656
0.570831298828125	0.0030206298828125	2635.72279534544
0.57525634765625	0.00302520751953125	2636.16530034432
0.579681396484375	0.00302947998046875	2636.60780534321
0.5841064453125	0.003033447265625	2637.05031034209
0.588531494140625	0.0030364990234375	2637.49281534097
0.59295654296875	0.00304107666015625	2637.93532033985
0.597381591796875	0.00304595947265625	2638.37782533874
0.601806640625	0.003050537109375	2638.82033033762
0.606231689453125	0.0030548095703125	2639.2628353365
0.61065673828125	0.0030596923828125	2639.70534033538
0.615081787109375	0.0030645751953125	2640.14784533427
0.6195068359375	0.00306884765625	2640.59035033315
0.623931884765625	0.00307464599609375	2641.03285533203
0.62835693359375	0.00308319091796875	2641.47536033092
0.632781982421875	0.003087158203125	2641.9178653298
0.63720703125	0.003092041015625	2642.36037032868
0.641632080078125	0.00309814453125	2642.80287532756
0.64605712890625	0.00310302734375	2643.24538032645
0.650482177734375	0.003109130859375	2643.68788532533
0.6549072265625	0.00311431884765625	2644.13039032421
0.659332275390625	0.0031207275390625	2644.5728953231
0.66375732421875	0.00312713623046875	2645.01540032198
0.668182373046875	0.00313446044921875	2645.45790532086
0.672607421875	0.00314239501953125	2645.90041031974
0.677032470703125	0.0031500244140625	2646.34291531863
0.68145751953125	0.0031573486328125	2646.78542031751
0.685882568359375	0.0031658935546875	2647.22792531639
0.6903076171875	0.00317474365234375	2647.67043031527
0.694732666015625	0.0031842041015625	2648.11293531416
0.69915771484375	0.00319366455078125	2648.55544031304
0.703582763671875	0.00320281982421875	2648.99794531192
0.7080078125	0.00321258544921875	2649.44045031081
0.712432861328125	0.0032244873046875	2649.88295530969
0.71685791015625	0.00323638916015625	2650.32546030857
0.721282958984375	0.00324859619140625	2650.76796530745
0.7257080078125	0.00326171875	2651.21047030634
0.730133056640625	0.00327423095703125	2651.65297530522
0.73455810546875	0.0032879638671875	2652.0954803041
0.738983154296875	0.00330352783203125	2652.53798530299
0.743408203125	0.0033172607421875	2652.98049030187
0.747833251953125	0.0033343505859375	2653.42299530075
0.75225830078125	0.003350830078125	2653.86550029963
0.756683349609375	0.003367919921875	2654.30800529852
0.7611083984375	0.003387451171875	2654.7505102974
0.765533447265625	0.00340789794921875	2655.19301529628
0.76995849609375	0.003428955078125	2655.63552029516
0.774383544921875	0.00345001220703125	2656.07802529405
0.77880859375	0.003472900390625	2656.52053029293
0.783233642578125	0.00349700927734375	2656.96303529181
0.78765869140625	0.00352294921875	2657.4055402907
0.792083740234375	0.0035491943359375	2657.84804528958
0.7965087890625	0.0035772705078125	2658.29055028846
0.800933837890625	0.00360504150390625	2658.73305528734
0.80535888671875	0.0036358642578125	2659.17556028623
0.809783935546875	0.003668212890625	2659.61806528511
0.814208984375	0.003702392578125	2660.06057028399
0.818634033203125	0.00373779296875	2660.50307528288
0.82305908203125	0.00377410888671875	2660.94558028176
0.827484130859375	0.00381195068359375	2661.38808528064
0.8319091796875	0.0038525390625	2661.83059027952
0.836334228515625	0.003895263671875	2662.27309527841
0.84075927734375	0.0039385986328125	2662.71560027729
0.845184326171875	0.003984375	2663.15810527617
0.849609375	0.00403076171875	2663.60061027505
0.854034423828125	0.004080810546875	2664.04311527394
0.85845947265625	0.00413299560546875	2664.48562027282
0.862884521484375	0.0041845703125	2664.9281252717
0.8673095703125	0.0042401123046875	2665.37063027059
0.871734619140625	0.00429656982421875	2665.81313526947
0.87615966796875	0.0043560791015625	2666.25564026835
0.880584716796875	0.0044171142578125	2666.69814526723
0.885009765625	0.00448028564453125	2667.14065026612
0.889434814453125	0.00454498291015625	2667.583155265
0.89385986328125	0.0046124267578125	2668.02566026388
0.898284912109375	0.0046807861328125	2668.46816526277
0.9027099609375	0.0047515869140625	2668.91067026165
0.907135009765625	0.00482574462890625	2669.35317526053
0.91156005859375	0.00490081787109375	2669.79568025941
0.915985107421875	0.00497772216796875	2670.2381852583
0.92041015625	0.0050567626953125	2670.68069025718
0.924835205078125	0.00513824462890625	2671.12319525606
0.92926025390625	0.0052215576171875	2671.56570025495
0.933685302734375	0.0053070068359375	2672.00820525383
0.9381103515625	0.00539703369140625	2672.45071025271
0.942535400390625	0.00548553466796875	2672.89321525159
0.94696044921875	0.00557647705078125	2673.33572025048
0.951385498046875	0.00566925048828125	2673.77822524936
0.955810546875	0.0057647705078125	2674.22073024824
0.960235595703125	0.0058612060546875	2674.66323524712
0.96466064453125	0.00595947265625	2675.10574024601
0.969085693359375	0.0060601806640625	2675.54824524489
0.9735107421875	0.00615234375	2675.99075024377
0.977935791015625	0.00625	2676.43325524266
0.98236083984375	0.006353759765625	2676.87576024154
0.986785888671875	0.0064605712890625	2677.31826524042
0.9912109375	0.0065673828125	2677.7607702393
0.995635986328125	0.0066802978515625	2678.20327523819
1.00006103515625	0.006793212890625	2678.64578023707
0.995635986328125	0.006134033203125	2679.08828523595
0.9912109375	0.0055511474609375	2679.53079023483
0.986785888671875	0.005023193359375	2679.97329523372
0.98236083984375	0.00454254150390625	2680.4158002326
0.977935791015625	0.0040972900390625	2680.85830523148
0.9735107421875	0.00368316650390625	2681.30081023037
0.969085693359375	0.00329315185546875	2681.74331522925
0.96466064453125	0.00292633056640625	2682.18582022813
0.960235595703125	0.00258270263671875	2682.62832522701
0.955810546875	0.00225616455078125	2683.0708302259
0.951385498046875	0.00194610595703125	2683.51333522478
0.94696044921875	0.0016510009765625	2683.95584022366
0.942535400390625	0.0013702392578125	2684.39834522255
0.9381103515625	0.001102294921875	2684.84085022143
0.933685302734375	0.00084503173828125	2685.28335522031
0.92926025390625	0.0006024169921875	2685.72586021919
0.924835205078125	0.00037060546875	2686.16836521808
0.92041015625	0.000149444580078125	2686.61087021696
0.915985107421875	-6.15234375E-05	2687.05337521584
0.91156005859375	-0.000263153076171875	2687.49588021473
0.907135009765625	-0.000455902099609375	2687.93838521361
0.9027099609375	-0.000640045166015625	2688.38089021249
0.898284912109375	-0.0008154296875	2688.82339521137
0.89385986328125	-0.0009832763671875	2689.26590021026
0.889434814453125	-0.00114349365234375	2689.70840520914
0.885009765625	-0.00129638671875	2690.15091020802
0.880584716796875	-0.001441650390625	2690.5934152069
0.87615966796875	-0.001580810546875	2691.03592020579
0.871734619140625	-0.00171356201171875	2691.47842520467
0.8673095703125	-0.001839599609375	2691.92093020355
0.862884521484375	-0.00196014404296875	2692.36343520244
0.85845947265625	-0.0020733642578125	2692.80594020132
0.854034423828125	-0.0021820068359375	2693.2484452002
0.849609375	-0.00228546142578125	2693.69095019908
0.845184326171875	-0.00238311767578125	2694.13345519797
0.84075927734375	-0.00247650146484375	2694.57596019685
0.836334228515625	-0.0025640869140625	2695.01846519573
0.8319091796875	-0.00264801025390625	2695.46097019462
0.827484130859375	-0.00272674560546875	2695.9034751935
0.82305908203125	-0.00280029296875	2696.34598019238
0.818634033203125	-0.00287017822265625	2696.78848519126
0.814208984375	-0.00293670654296875	2697.23099019015
0.809783935546875	-0.00299835205078125	2697.67349518903
0.80535888671875	-0.003056640625	2698.11600018791
0.800933837890625	-0.0031109619140625	2698.55850518679
0.7965087890625	-0.00316131591796875	2699.00101018568
0.792083740234375	-0.0032098388671875	2699.44351518456
0.78765869140625	-0.0032537841796875	2699.88602018344
0.783233642578125	-0.00329437255859375	2700.32852518233
0.77880859375	-0.0033319091796875	2700.77103018121
0.774383544921875	-0.00336761474609375	2701.21353518009
0.76995849609375	-0.003399658203125	2701.65604017897
0.765533447265625	-0.0034295654296875	2702.09854517786
0.7611083984375	-0.00345489501953125	2702.54105017674
0.756683349609375	-0.0034771728515625	2702.98355517562
0.75225830078125	-0.0034979248046875	2703.42606017451
0.747833251953125	-0.00351715087890625	2703.86856517339
0.743408203125	-0.00353363037109375	2704.31107017227
0.738983154296875	-0.00354583740234375	2704.75357517115
0.73455810546875	-0.00355804443359375	2705.19608017004
0.730133056640625	-0.00356719970703125	2705.63858516892
0.7257080078125	-0.0035748291015625	2706.0810901678
0.721282958984375	-0.00358062744140625	2706.52359516668
0.71685791015625	-0.003585205078125	2706.96610016557
0.712432861328125	-0.00358795166015625	2707.40860516445
0.7080078125	-0.00358917236328125	2707.85111016333
0.703582763671875	-0.0035882568359375	2708.29361516222
0.69915771484375	-0.00358612060546875	2708.7361201611
0.694732666015625	-0.003583984375	2709.17862515998
0.6903076171875	-0.00358062744140625	2709.62113015886
0.685882568359375	-0.0035760498046875	2710.06363515775
0.68145751953125	-0.003570556640625	2710.50614015663
0.677032470703125	-0.00356414794921875	2710.94864515551
0.672607421875	-0.00355743408203125	2711.3911501544
0.668182373046875	-0.00354949951171875	2711.83365515328
0.66375732421875	-0.00354156494140625	2712.27616015216
0.659332275390625	-0.00353302001953125	2712.71866515104
0.6549072265625	-0.00352386474609375	2713.16117014993
0.650482177734375	-0.003514404296875	2713.60367514881
0.64605712890625	-0.00350555419921875	2714.04618014769
0.641632080078125	-0.00349639892578125	2714.48868514657
0.63720703125	-0.00348724365234375	2714.93119014546
0.632781982421875	-0.00347686767578125	2715.37369514434
0.62835693359375	-0.00346771240234375	2715.81620014322
0.623931884765625	-0.0034625244140625	2716.25870514211
0.6195068359375	-0.00345184326171875	2716.70121014099
0.615081787109375	-0.0034423828125	2717.14371513987
0.61065673828125	-0.00343292236328125	2717.58622013875
0.606231689453125	-0.0034234619140625	2718.02872513764
0.601806640625	-0.00341461181640625	2718.47123013652
0.597381591796875	-0.00340667724609375	2718.9137351354
0.59295654296875	-0.00339874267578125	2719.35624013429
0.588531494140625	-0.00339141845703125	2719.79874513317
0.5841064453125	-0.00338226318359375	2720.24125013205
0.579681396484375	-0.003375244140625	2720.68375513093
0.57525634765625	-0.003369140625	2721.12626012982
0.570831298828125	-0.0033636474609375	2721.5687651287
0.56640625	-0.00335845947265625	2722.01127012758
0.561981201171875	-0.00335205078125	2722.45377512647
0.55755615234375	-0.00334747314453125	2722.89628012535
0.553131103515625	-0.0033428955078125	2723.33878512423
0.5487060546875	-0.00333984375	2723.78129012311
0.544281005859375	-0.00333526611328125	2724.223795122
0.53985595703125	-0.00333251953125	2724.66630012088
0.535430908203125	-0.00332977294921875	2725.10880511976
0.531005859375	-0.00332763671875	2725.55131011864
0.526580810546875	-0.00332611083984375	2725.99381511753
0.52215576171875	-0.00332489013671875	2726.43632011641
0.517730712890625	-0.00332366943359375	2726.87882511529
0.5133056640625	-0.0033233642578125	2727.32133011418
0.508880615234375	-0.00332275390625	2727.76383511306
0.50445556640625	-0.00332305908203125	2728.20634011194
0.500030517578125	-0.003323974609375	2728.64884511082
0.49560546875	-0.00332427978515625	2729.09135010971
0.491180419921875	-0.0033251953125	2729.53385510859
0.48675537109375	-0.003326416015625	2729.97636010747
0.482330322265625	-0.0033282470703125	2730.41886510636
0.4779052734375	-0.00333099365234375	2730.86137010524
0.473480224609375	-0.0033331298828125	2731.30387510412
0.46905517578125	-0.00333587646484375	2731.746380103
0.464630126953125	-0.00333740234375	2732.18888510189
0.460205078125	-0.00334075927734375	2732.63139010077
0.455780029296875	-0.0033441162109375	2733.07389509965
0.45135498046875	-0.00334686279296875	2733.51640009853
0.446929931640625	-0.0033502197265625	2733.95890509742
0.4425048828125	-0.003353271484375	2734.4014100963
0.438079833984375	-0.00335693359375	2734.84391509518
0.43365478515625	-0.003360595703125	2735.28642009407
0.429229736328125	-0.0033636474609375	2735.72892509295
0.4248046875	-0.00336761474609375	2736.17143009183
0.420379638671875	-0.00337127685546875	2736.61393509071
0.41595458984375	-0.00337493896484375	2737.0564400896
0.411529541015625	-0.00337890625	2737.49894508848
0.4071044921875	-0.00338287353515625	2737.94145008736
0.402679443359375	-0.0033868408203125	2738.38395508624
0.39825439453125	-0.00339019775390625	2738.82646008513
0.393829345703125	-0.00339385986328125	2739.26896508401
0.389404296875	-0.003397216796875	2739.71147008289
0.384979248046875	-0.00340179443359375	2740.15397508178
0.38055419921875	-0.00340606689453125	2740.59648008066
0.376129150390625	-0.00340972900390625	2741.03898507954
