Potential applied (V)	WE(1).Current (A)	Time (s)
0.004425048828125	-0.0780303955078125	3279.67007571963
0.00885009765625	-0.0700225830078125	3279.89132771907
0.013275146484375	-0.06358642578125	3280.11257971851
0.0177001953125	-0.0580535888671875	3280.33383171795
0.022125244140625	-0.053326416015625	3280.55508371739
0.02655029296875	-0.049139404296875	3280.77633571684
0.030975341796875	-0.0454010009765625	3280.99758771628
0.035400390625	-0.042059326171875	3281.21883971572
0.039825439453125	-0.039007568359375	3281.44009171516
0.04425048828125	-0.0362274169921875	3281.6613437146
0.048675537109375	-0.033685302734375	3281.88259571404
0.0531005859375	-0.0313507080078125	3282.10384771348
0.057525634765625	-0.02919921875	3282.32509971293
0.06195068359375	-0.02720947265625	3282.54635171237
0.066375732421875	-0.0253753662109375	3282.76760371181
0.07080078125	-0.0236602783203125	3282.98885571125
0.075225830078125	-0.0220733642578125	3283.21010771069
0.07965087890625	-0.02059326171875	3283.43135971013
0.084075927734375	-0.0192138671875	3283.65261170957
0.0885009765625	-0.017926025390625	3283.87386370902
0.092926025390625	-0.01671142578125	3284.09511570846
0.09735107421875	-0.015582275390625	3284.3163677079
0.101776123046875	-0.0145172119140625	3284.53761970734
0.106201171875	-0.0135162353515625	3284.75887170678
0.110626220703125	-0.0125823974609375	3284.98012370622
0.11505126953125	-0.011700439453125	3285.20137570566
0.119476318359375	-0.01087646484375	3285.42262770511
0.1239013671875	-0.010089111328125	3285.64387970455
0.128326416015625	-0.0093505859375	3285.86513170399
0.13275146484375	-0.0086517333984375	3286.08638370343
0.137176513671875	-0.007989501953125	3286.30763570287
0.1416015625	-0.007366943359375	3286.52888770231
0.146026611328125	-0.00677490234375	3286.75013970175
0.15045166015625	-0.0062164306640625	3286.97139170119
0.154876708984375	-0.0056854248046875	3287.19264370064
0.1593017578125	-0.005181884765625	3287.41389570008
0.163726806640625	-0.00470611572265625	3287.63514769952
0.16815185546875	-0.00425079345703125	3287.85639969896
0.172576904296875	-0.00382080078125	3288.0776516984
0.177001953125	-0.0034112548828125	3288.29890369784
0.181427001953125	-0.0030206298828125	3288.52015569728
0.18585205078125	-0.002662353515625	3288.74140769673
0.190277099609375	-0.00230804443359375	3288.96265969617
0.1947021484375	-0.0019720458984375	3289.18391169561
0.199127197265625	-0.00165130615234375	3289.40516369505
0.20355224609375	-0.0013458251953125	3289.62641569449
0.207977294921875	-0.0010552978515625	3289.84766769393
0.21240234375	-0.00077728271484375	3290.06891969337
0.216827392578125	-0.0005126953125	3290.29017169282
0.22125244140625	-0.000259521484375	3290.51142369226
0.225677490234375	-1.842041015625E-05	3290.7326756917
0.2301025390625	0.000211761474609375	3290.95392769114
0.234527587890625	0.000430755615234375	3291.17517969058
0.23895263671875	0.00064117431640625	3291.39643169002
0.243377685546875	0.00084259033203125	3291.61768368946
0.247802734375	0.00103424072265625	3291.83893568891
0.252227783203125	0.00121856689453125	3292.06018768835
0.25665283203125	0.00139434814453125	3292.28143968779
0.261077880859375	0.0015618896484375	3292.50269168723
0.2655029296875	0.001722412109375	3292.72394368667
0.269927978515625	0.00187591552734375	3292.94519568611
0.27435302734375	0.002022705078125	3293.16644768555
0.278778076171875	0.00216217041015625	3293.387699685
0.283203125	0.00229705810546875	3293.60895168444
0.287628173828125	0.0024261474609375	3293.83020368388
0.29205322265625	0.002550048828125	3294.05145568332
0.296478271484375	0.0026702880859375	3294.27270768276
0.3009033203125	0.0027838134765625	3294.4939596822
0.305328369140625	0.0028936767578125	3294.71521168164
0.30975341796875	0.002999267578125	3294.93646368109
0.314178466796875	0.00310394287109375	3295.15771568053
0.318603515625	0.00320068359375	3295.37896767997
0.323028564453125	0.0032928466796875	3295.60021967941
0.32745361328125	0.00338287353515625	3295.82147167885
0.331878662109375	0.003468017578125	3296.04272367829
0.3363037109375	0.00355072021484375	3296.26397567773
0.340728759765625	0.00362945556640625	3296.48522767717
0.34515380859375	0.003704833984375	3296.70647967662
0.349578857421875	0.0037774658203125	3296.92773167606
0.35400390625	0.00384490966796875	3297.1489836755
0.358428955078125	0.00391387939453125	3297.37023567494
0.36285400390625	0.00398040771484375	3297.59148767438
0.367279052734375	0.00404388427734375	3297.81273967382
0.3717041015625	0.0041058349609375	3298.03399167326
0.376129150390625	0.00416534423828125	3298.25524367271
0.38055419921875	0.004222412109375	3298.47649567215
0.384979248046875	0.0042767333984375	3298.69774767159
0.389404296875	0.00432830810546875	3298.91899967103
0.393829345703125	0.00437835693359375	3299.14025167047
0.39825439453125	0.0044268798828125	3299.36150366991
0.402679443359375	0.00447479248046875	3299.58275566935
0.4071044921875	0.004520263671875	3299.8040076688
0.411529541015625	0.004564208984375	3300.02525966824
0.41595458984375	0.00460662841796875	3300.24651166768
0.420379638671875	0.00464752197265625	3300.46776366712
0.4248046875	0.0046881103515625	3300.68901566656
0.429229736328125	0.004725341796875	3300.910267666
0.43365478515625	0.00476287841796875	3301.13151966544
0.438079833984375	0.00479827880859375	3301.35277166489
0.4425048828125	0.0048321533203125	3301.57402366433
0.446929931640625	0.00486602783203125	3301.79527566377
0.45135498046875	0.00489715576171875	3302.01652766321
0.455780029296875	0.00492889404296875	3302.23777966265
0.460205078125	0.0049578857421875	3302.45903166209
0.464630126953125	0.00498687744140625	3302.68028366153
0.46905517578125	0.0050146484375	3302.90153566098
0.473480224609375	0.00504119873046875	3303.12278766042
0.4779052734375	0.00506744384765625	3303.34403965986
0.482330322265625	0.00509246826171875	3303.5652916593
0.48675537109375	0.00511566162109375	3303.78654365874
0.491180419921875	0.00514007568359375	3304.00779565818
0.49560546875	0.0051617431640625	3304.22904765762
0.500030517578125	0.0051837158203125	3304.45029965706
0.50445556640625	0.00520416259765625	3304.67155165651
0.508880615234375	0.00522491455078125	3304.89280365595
0.5133056640625	0.00524444580078125	3305.11405565539
0.517730712890625	0.005262451171875	3305.33530765483
0.52215576171875	0.00528167724609375	3305.55655965427
0.526580810546875	0.00529876708984375	3305.77781165371
0.531005859375	0.005316162109375	3305.99906365315
0.535430908203125	0.00533416748046875	3306.2203156526
0.53985595703125	0.005350341796875	3306.44156765204
0.544281005859375	0.0053662109375	3306.66281965148
0.5487060546875	0.00537994384765625	3306.88407165092
0.553131103515625	0.00539459228515625	3307.10532365036
0.55755615234375	0.00540863037109375	3307.3265756498
0.561981201171875	0.00542205810546875	3307.54782764924
0.56640625	0.005435791015625	3307.76907964869
0.570831298828125	0.00544891357421875	3307.99033164813
0.57525634765625	0.00546173095703125	3308.21158364757
0.579681396484375	0.005474853515625	3308.43283564701
0.5841064453125	0.00548583984375	3308.65408764645
0.588531494140625	0.005496826171875	3308.87533964589
0.59295654296875	0.00550750732421875	3309.09659164533
0.597381591796875	0.00551849365234375	3309.31784364478
0.601806640625	0.0055303955078125	3309.53909564422
0.606231689453125	0.00554107666015625	3309.76034764366
0.61065673828125	0.0055523681640625	3309.9815996431
0.615081787109375	0.0055615234375	3310.20285164254
0.6195068359375	0.005572509765625	3310.42410364198
0.623931884765625	0.005582275390625	3310.64535564142
0.62835693359375	0.00559600830078125	3310.86660764087
0.632781982421875	0.00560638427734375	3311.08785964031
0.63720703125	0.0056146240234375	3311.30911163975
0.641632080078125	0.0056256103515625	3311.53036363919
0.64605712890625	0.00563507080078125	3311.75161563863
0.650482177734375	0.00564422607421875	3311.97286763807
0.6549072265625	0.00565460205078125	3312.19411963751
0.659332275390625	0.00566314697265625	3312.41537163696
0.66375732421875	0.00567291259765625	3312.6366236364
0.668182373046875	0.005682373046875	3312.85787563584
0.672607421875	0.005692138671875	3313.07912763528
0.677032470703125	0.00570281982421875	3313.30037963472
0.68145751953125	0.00571136474609375	3313.52163163416
0.685882568359375	0.00572296142578125	3313.7428836336
0.6903076171875	0.00573272705078125	3313.96413563304
0.694732666015625	0.00574310302734375	3314.18538763249
0.69915771484375	0.00575439453125	3314.40663963193
0.703582763671875	0.00576385498046875	3314.62789163137
0.7080078125	0.0057763671875	3314.84914363081
0.712432861328125	0.00578704833984375	3315.07039563025
0.71685791015625	0.00579986572265625	3315.29164762969
0.721282958984375	0.00581268310546875	3315.51289962913
0.7257080078125	0.00582489013671875	3315.73415162858
0.730133056640625	0.005838623046875	3315.95540362802
0.73455810546875	0.005850830078125	3316.17665562746
0.738983154296875	0.00586517333984375	3316.3979076269
0.743408203125	0.00587799072265625	3316.61915962634
0.747833251953125	0.0058929443359375	3316.84041162578
0.75225830078125	0.00590972900390625	3317.06166362522
0.756683349609375	0.0059259033203125	3317.28291562467
0.7611083984375	0.0059442138671875	3317.50416762411
0.765533447265625	0.0059613037109375	3317.72541962355
0.76995849609375	0.005980224609375	3317.94667162299
0.774383544921875	0.0060009765625	3318.16792362243
0.77880859375	0.006011962890625	3318.38917562187
0.783233642578125	0.0060302734375	3318.61042762131
0.78765869140625	0.0060516357421875	3318.83167962076
0.792083740234375	0.0060699462890625	3319.0529316202
0.7965087890625	0.0060943603515625	3319.27418361964
0.800933837890625	0.0061187744140625	3319.49543561908
0.80535888671875	0.0061431884765625	3319.71668761852
0.809783935546875	0.006170654296875	3319.93793961796
0.814208984375	0.0061981201171875	3320.1591916174
0.818634033203125	0.0062286376953125	3320.38044361685
0.82305908203125	0.006256103515625	3320.60169561629
0.827484130859375	0.0062896728515625	3320.82294761573
0.8319091796875	0.0063232421875	3321.04419961517
0.836334228515625	0.0063568115234375	3321.26545161461
0.84075927734375	0.006396484375	3321.48670361405
0.845184326171875	0.00643310546875	3321.70795561349
0.849609375	0.006475830078125	3321.92920761293
0.854034423828125	0.0065155029296875	3322.15045961238
0.85845947265625	0.006561279296875	3322.37171161182
0.862884521484375	0.00660400390625	3322.59296361126
0.8673095703125	0.00665283203125	3322.8142156107
0.871734619140625	0.00670166015625	3323.03546761014
0.87615966796875	0.0067535400390625	3323.25671960958
0.880584716796875	0.0068084716796875	3323.47797160902
0.885009765625	0.0068634033203125	3323.69922360847
0.889434814453125	0.00692138671875	3323.92047560791
0.89385986328125	0.006982421875	3324.14172760735
0.898284912109375	0.00704345703125	3324.36297960679
0.9027099609375	0.007110595703125	3324.58423160623
0.907135009765625	0.0071746826171875	3324.80548360567
0.91156005859375	0.0072418212890625	3325.02673560511
0.915985107421875	0.0073150634765625	3325.24798760456
0.92041015625	0.0073883056640625	3325.469239604
0.924835205078125	0.007464599609375	3325.69049160344
0.92926025390625	0.0075408935546875	3325.91174360288
0.933685302734375	0.007623291015625	3326.13299560232
0.9381103515625	0.007708740234375	3326.35424760176
0.942535400390625	0.0077911376953125	3326.5754996012
0.94696044921875	0.0078765869140625	3326.79675160065
0.951385498046875	0.007965087890625	3327.01800360009
0.955810546875	0.008056640625	3327.23925559953
0.960235595703125	0.0081512451171875	3327.46050759897
0.96466064453125	0.008245849609375	3327.68175959841
0.969085693359375	0.0083465576171875	3327.90301159785
0.9735107421875	0.0084442138671875	3328.12426359729
0.977935791015625	0.008544921875	3328.34551559674
0.98236083984375	0.008648681640625	3328.56676759618
0.986785888671875	0.0087554931640625	3328.78801959562
0.9912109375	0.0088653564453125	3329.00927159506
0.995635986328125	0.0089752197265625	3329.2305235945
1.00006103515625	0.0090911865234375	3329.45177559394
0.995635986328125	0.00838623046875	3329.67302759338
0.9912109375	0.0077484130859375	3329.89427959283
0.986785888671875	0.0071502685546875	3330.11553159227
0.98236083984375	0.006591796875	3330.33678359171
0.977935791015625	0.00606689453125	3330.55803559115
0.9735107421875	0.0055694580078125	3330.77928759059
0.969085693359375	0.0050933837890625	3331.00053959003
0.96466064453125	0.00464263916015625	3331.22179158947
0.960235595703125	0.00420989990234375	3331.44304358891
0.955810546875	0.00379638671875	3331.66429558836
0.951385498046875	0.0033990478515625	3331.8855475878
0.94696044921875	0.003017578125	3332.10679958724
0.942535400390625	0.0026531982421875	3332.32805158668
0.9381103515625	0.0022998046875	3332.54930358612
0.933685302734375	0.00195770263671875	3332.77055558556
0.92926025390625	0.001629638671875	3332.991807585
0.924835205078125	0.001314697265625	3333.21305958445
0.92041015625	0.00100921630859375	3333.43431158389
0.915985107421875	0.00071563720703125	3333.65556358333
0.91156005859375	0.00043206787109375	3333.87681558277
0.907135009765625	0.000157684326171875	3334.09806758221
0.9027099609375	-0.000106689453125	3334.31931958165
0.898284912109375	-0.000361724853515625	3334.54057158109
0.89385986328125	-0.00060821533203125	3334.76182358054
0.889434814453125	-0.00084625244140625	3334.98307557998
0.885009765625	-0.0010760498046875	3335.20432757942
0.880584716796875	-0.001297607421875	3335.42557957886
0.87615966796875	-0.00151153564453125	3335.6468315783
0.871734619140625	-0.001717529296875	3335.86808357774
0.8673095703125	-0.00191680908203125	3336.08933557718
0.862884521484375	-0.0021087646484375	3336.31058757663
0.85845947265625	-0.00229248046875	3336.53183957607
0.854034423828125	-0.0024713134765625	3336.75309157551
0.849609375	-0.0026434326171875	3336.97434357495
0.845184326171875	-0.00280853271484375	3337.19559557439
0.84075927734375	-0.00296783447265625	3337.41684757383
0.836334228515625	-0.0031219482421875	3337.63809957327
0.8319091796875	-0.00326995849609375	3337.85935157272
0.827484130859375	-0.00341217041015625	3338.08060357216
0.82305908203125	-0.00354888916015625	3338.3018555716
0.818634033203125	-0.0036798095703125	3338.52310757104
0.814208984375	-0.00380584716796875	3338.74435957048
0.809783935546875	-0.00392608642578125	3338.96561156992
0.80535888671875	-0.00404327392578125	3339.18686356936
0.800933837890625	-0.0041546630859375	3339.4081155688
0.7965087890625	-0.00426177978515625	3339.62936756825
0.792083740234375	-0.00436431884765625	3339.85061956769
0.78765869140625	-0.00446136474609375	3340.07187156713
0.783233642578125	-0.0045550537109375	3340.29312356657
0.77880859375	-0.0046435546875	3340.51437556601
0.774383544921875	-0.00472930908203125	3340.73562756545
0.76995849609375	-0.0048114013671875	3340.95687956489
0.765533447265625	-0.00488861083984375	3341.17813156434
0.7611083984375	-0.00496429443359375	3341.39938356378
0.756683349609375	-0.0050347900390625	3341.62063556322
0.75225830078125	-0.0051019287109375	3341.84188756266
0.747833251953125	-0.00516571044921875	3342.0631395621
0.743408203125	-0.00522674560546875	3342.28439156154
0.738983154296875	-0.005283203125	3342.50564356098
0.73455810546875	-0.00533843994140625	3342.72689556043
0.730133056640625	-0.0053912353515625	3342.94814755987
0.7257080078125	-0.0054400634765625	3343.16939955931
0.721282958984375	-0.0054852294921875	3343.39065155875
0.71685791015625	-0.00553131103515625	3343.61190355819
0.712432861328125	-0.0055718994140625	3343.83315555763
0.7080078125	-0.00561126708984375	3344.05440755707
0.703582763671875	-0.00564727783203125	3344.27565955652
0.69915771484375	-0.0056787109375	3344.49691155596
0.694732666015625	-0.00571075439453125	3344.7181635554
0.6903076171875	-0.00573974609375	3344.93941555484
0.685882568359375	-0.0057684326171875	3345.16066755428
0.68145751953125	-0.00579345703125	3345.38191955372
0.677032470703125	-0.0058172607421875	3345.60317155316
0.672607421875	-0.0058392333984375	3345.82442355261
0.668182373046875	-0.005858154296875	3346.04567555205
0.66375732421875	-0.00587799072265625	3346.26692755149
0.659332275390625	-0.005894775390625	3346.48817955093
0.6549072265625	-0.0059112548828125	3346.70943155037
0.650482177734375	-0.00592620849609375	3346.93068354981
0.64605712890625	-0.0059381103515625	3347.15193554925
0.641632080078125	-0.00595062255859375	3347.3731875487
0.63720703125	-0.00596160888671875	3347.59443954814
0.632781982421875	-0.00597259521484375	3347.81569154758
0.62835693359375	-0.005982666015625	3348.03694354702
0.623931884765625	-0.00599517822265625	3348.25819554646
0.6195068359375	-0.00600341796875	3348.4794475459
0.615081787109375	-0.005987548828125	3348.70069954534
0.61065673828125	-0.0059967041015625	3348.92195154478
0.606231689453125	-0.0060028076171875	3349.14320354423
0.601806640625	-0.0060089111328125	3349.36445554367
0.597381591796875	-0.0060150146484375	3349.58570754311
0.59295654296875	-0.00601806640625	3349.80695954255
0.588531494140625	-0.0060211181640625	3350.02821154199
0.5841064453125	-0.006024169921875	3350.24946354143
0.579681396484375	-0.0060302734375	3350.47071554087
0.57525634765625	-0.0060333251953125	3350.69196754032
0.570831298828125	-0.006036376953125	3350.91321953976
0.56640625	-0.0060394287109375	3351.1344715392
0.561981201171875	-0.00604248046875	3351.35572353864
0.55755615234375	-0.0060455322265625	3351.57697553808
0.553131103515625	-0.0060516357421875	3351.79822753752
0.5487060546875	-0.0060546875	3352.01947953696
0.544281005859375	-0.0060577392578125	3352.24073153641
0.53985595703125	-0.006060791015625	3352.46198353585
0.535430908203125	-0.0060638427734375	3352.68323553529
0.531005859375	-0.0060699462890625	3352.90448753473
0.526580810546875	-0.006072998046875	3353.12573953417
0.52215576171875	-0.0060760498046875	3353.34699153361
0.517730712890625	-0.0060821533203125	3353.56824353305
0.5133056640625	-0.006085205078125	3353.7894955325
0.508880615234375	-0.00609130859375	3354.01074753194
0.50445556640625	-0.006097412109375	3354.23199953138
0.500030517578125	-0.006103515625	3354.45325153082
0.49560546875	-0.0061065673828125	3354.67450353026
0.491180419921875	-0.0061126708984375	3354.8957555297
0.48675537109375	-0.0061187744140625	3355.11700752914
0.482330322265625	-0.0061248779296875	3355.33825952859
0.4779052734375	-0.0061309814453125	3355.55951152803
0.473480224609375	-0.0061370849609375	3355.78076352747
0.46905517578125	-0.0061431884765625	3356.00201552691
0.464630126953125	-0.00615234375	3356.22326752635
0.460205078125	-0.006158447265625	3356.44451952579
0.455780029296875	-0.0061676025390625	3356.66577152523
0.45135498046875	-0.0061737060546875	3356.88702352467
0.446929931640625	-0.006182861328125	3357.10827552412
0.4425048828125	-0.0061920166015625	3357.32952752356
0.438079833984375	-0.0061981201171875	3357.550779523
0.43365478515625	-0.006207275390625	3357.77203152244
0.429229736328125	-0.0062164306640625	3357.99328352188
0.4248046875	-0.0062255859375	3358.21453552132
0.420379638671875	-0.0062347412109375	3358.43578752076
0.41595458984375	-0.006243896484375	3358.65703952021
0.411529541015625	-0.0062530517578125	3358.87829151965
0.4071044921875	-0.0062591552734375	3359.09954351909
0.402679443359375	-0.006268310546875	3359.32079551853
0.39825439453125	-0.0062774658203125	3359.54204751797
0.393829345703125	-0.00628662109375	3359.76329951741
0.389404296875	-0.0062957763671875	3359.98455151685
0.384979248046875	-0.006304931640625	3360.2058035163
0.38055419921875	-0.0063140869140625	3360.42705551574
0.376129150390625	-0.0063232421875	3360.64830751518
0.3717041015625	-0.0063323974609375	3360.86955951462
0.367279052734375	-0.006341552734375	3361.09081151406
0.36285400390625	-0.0063507080078125	3361.3120635135
0.358428955078125	-0.00635986328125	3361.53331551294
0.35400390625	-0.0063690185546875	3361.75456751239
0.349578857421875	-0.006378173828125	3361.97581951183
0.34515380859375	-0.0063873291015625	3362.19707151127
0.340728759765625	-0.006396484375	3362.41832351071
0.3363037109375	-0.0064056396484375	3362.63957551015
0.331878662109375	-0.006414794921875	3362.86082750959
0.32745361328125	-0.0064239501953125	3363.08207950903
0.323028564453125	-0.00643310546875	3363.30333150848
0.318603515625	-0.0064422607421875	3363.52458350792
0.314178466796875	-0.006451416015625	3363.74583550736
0.30975341796875	-0.006463623046875	3363.9670875068
0.305328369140625	-0.0064727783203125	3364.18833950624
0.3009033203125	-0.00648193359375	3364.40959150568
0.296478271484375	-0.0064910888671875	3364.63084350512
0.29205322265625	-0.006500244140625	3364.85209550457
0.287628173828125	-0.0065093994140625	3365.07334750401
0.283203125	-0.0065185546875	3365.29459950345
0.278778076171875	-0.0065277099609375	3365.51585150289
0.27435302734375	-0.006536865234375	3365.73710350233
0.269927978515625	-0.0065460205078125	3365.95835550177
0.2655029296875	-0.00655517578125	3366.17960750121
0.261077880859375	-0.0065673828125	3366.40085950065
0.25665283203125	-0.0065765380859375	3366.6221115001
0.252227783203125	-0.006585693359375	3366.84336349954
0.247802734375	-0.006597900390625	3367.06461549898
0.243377685546875	-0.0066070556640625	3367.28586749842
0.23895263671875	-0.0066192626953125	3367.50711949786
0.234527587890625	-0.00662841796875	3367.7283714973
0.2301025390625	-0.006640625	3367.94962349674
0.225677490234375	-0.0066497802734375	3368.17087549619
0.22125244140625	-0.0066619873046875	3368.39212749563
0.216827392578125	-0.0066741943359375	3368.61337949507
0.21240234375	-0.0066864013671875	3368.83463149451
0.207977294921875	-0.0066986083984375	3369.05588349395
0.20355224609375	-0.0067108154296875	3369.27713549339
0.199127197265625	-0.0067230224609375	3369.49838749283
0.1947021484375	-0.0067352294921875	3369.71963949228
0.190277099609375	-0.0067474365234375	3369.94089149172
0.18585205078125	-0.0067626953125	3370.16214349116
0.181427001953125	-0.00677490234375	3370.3833954906
0.177001953125	-0.006787109375	3370.60464749004
0.172576904296875	-0.0068023681640625	3370.82589948948
0.16815185546875	-0.0068145751953125	3371.04715148892
0.163726806640625	-0.006829833984375	3371.26840348837
0.1593017578125	-0.0068450927734375	3371.48965548781
0.154876708984375	-0.0068603515625	3371.71090748725
0.15045166015625	-0.0068756103515625	3371.93215948669
0.146026611328125	-0.006890869140625	3372.15341148613
0.1416015625	-0.0069061279296875	3372.37466348557
0.137176513671875	-0.0069244384765625	3372.59591548501
0.13275146484375	-0.006939697265625	3372.81716748446
0.128326416015625	-0.0069580078125	3373.0384194839
0.1239013671875	-0.0069732666015625	3373.25967148334
0.119476318359375	-0.00699462890625	3373.48092348278
0.11505126953125	-0.0070098876953125	3373.70217548222
0.110626220703125	-0.0070281982421875	3373.92342748166
0.106201171875	-0.0070465087890625	3374.1446794811
0.101776123046875	-0.00706787109375	3374.36593148054
0.09735107421875	-0.0070892333984375	3374.58718347999
0.092926025390625	-0.0071075439453125	3374.80843547943
0.0885009765625	-0.00712890625	3375.02968747887
0.084075927734375	-0.0071533203125	3375.25093947831
0.07965087890625	-0.0071746826171875	3375.47219147775
0.075225830078125	-0.0071990966796875	3375.69344347719
0.07080078125	-0.007220458984375	3375.91469547663
0.066375732421875	-0.007244873046875	3376.13594747608
0.06195068359375	-0.007269287109375	3376.35719947552
0.057525634765625	-0.0072967529296875	3376.57845147496
0.0531005859375	-0.0073211669921875	3376.7997034744
0.048675537109375	-0.0073486328125	3377.02095547384
0.04425048828125	-0.0073760986328125	3377.24220747328
0.039825439453125	-0.007403564453125	3377.46345947272
0.035400390625	-0.0074310302734375	3377.68471147217
0.030975341796875	-0.0074615478515625	3377.90596347161
0.02655029296875	-0.007489013671875	3378.12721547105
0.022125244140625	-0.00751953125	3378.34846747049
0.0177001953125	-0.007550048828125	3378.56971946993
0.013275146484375	-0.00758056640625	3378.79097146937
0.00885009765625	-0.007611083984375	3379.01222346881
0.004425048828125	-0.0076416015625	3379.23347546826
0	-0.0076751708984375	3379.4547274677
0.004425048828125	-0.0069244384765625	3379.67597946714
0.00885009765625	-0.0062469482421875	3379.89723146658
0.013275146484375	-0.00562744140625	3380.11848346602
0.0177001953125	-0.0050537109375	3380.33973546546
0.022125244140625	-0.00452301025390625	3380.5609874649
0.02655029296875	-0.00402313232421875	3380.78223946435
0.030975341796875	-0.00355621337890625	3381.00349146379
0.035400390625	-0.00311676025390625	3381.22474346323
0.039825439453125	-0.00270233154296875	3381.44599546267
0.04425048828125	-0.00232177734375	3381.66724746211
0.048675537109375	-0.00195068359375	3381.88849946155
0.0531005859375	-0.001600341796875	3382.10975146099
0.057525634765625	-0.0012677001953125	3382.33100346044
0.06195068359375	-0.0009515380859375	3382.55225545988
0.066375732421875	-0.00065216064453125	3382.77350745932
0.07080078125	-0.000366790771484375	3382.99475945876
0.075225830078125	-9.5428466796875E-05	3383.2160114582
0.07965087890625	0.00016168212890625	3383.43726345764
0.084075927734375	0.0004073486328125	3383.65851545708
0.0885009765625	0.00064178466796875	3383.87976745652
0.092926025390625	0.0008648681640625	3384.10101945597
0.09735107421875	0.00107818603515625	3384.32227145541
0.101776123046875	0.00128173828125	3384.54352345485
0.106201171875	0.0014752197265625	3384.76477545429
0.110626220703125	0.00166015625	3384.98602745373
0.11505126953125	0.0018365478515625	3385.20727945317
0.119476318359375	0.002003173828125	3385.42853145261
0.1239013671875	0.0021636962890625	3385.64978345206
0.128326416015625	0.00231597900390625	3385.8710354515
0.13275146484375	0.0024609375	3386.09228745094
0.137176513671875	0.00260009765625	3386.31353945038
0.1416015625	0.00273468017578125	3386.53479144982
0.146026611328125	0.00286285400390625	3386.75604344926
0.15045166015625	0.00298614501953125	3386.9772954487
0.154876708984375	0.00310394287109375	3387.19854744815
0.1593017578125	0.00321533203125	3387.41979944759
0.163726806640625	0.00332305908203125	3387.64105144703
0.16815185546875	0.0034259033203125	3387.86230344647
0.172576904296875	0.00352447509765625	3388.08355544591
0.177001953125	0.0036181640625	3388.30480744535
0.181427001953125	0.00370849609375	3388.52605944479
0.18585205078125	0.003795166015625	3388.74731144424
0.190277099609375	0.0038775634765625	3388.96856344368
0.1947021484375	0.0039569091796875	3389.18981544312
0.199127197265625	0.0040325927734375	3389.41106744256
0.20355224609375	0.0041046142578125	3389.632319442
0.207977294921875	0.00417510986328125	3389.85357144144
0.21240234375	0.00424102783203125	3390.07482344088
0.216827392578125	0.00430572509765625	3390.29607544033
0.22125244140625	0.0043670654296875	3390.51732743977
0.225677490234375	0.00442596435546875	3390.73857943921
0.2301025390625	0.0044830322265625	3390.95983143865
0.234527587890625	0.0045367431640625	3391.18108343809
0.23895263671875	0.00459014892578125	3391.40233543753
0.243377685546875	0.004639892578125	3391.62358743697
0.247802734375	0.004688720703125	3391.84483943641
0.252227783203125	0.00473602294921875	3392.06609143586
0.25665283203125	0.00478057861328125	3392.2873434353
0.261077880859375	0.0048260498046875	3392.50859543474
0.2655029296875	0.00486724853515625	3392.72984743418
0.269927978515625	0.004908447265625	3392.95109943362
0.27435302734375	0.00494720458984375	3393.17235143306
0.278778076171875	0.00498443603515625	3393.3936034325
0.283203125	0.00502166748046875	3393.61485543195
0.287628173828125	0.00505615234375	3393.83610743139
0.29205322265625	0.00509063720703125	3394.05735943083
0.296478271484375	0.00512298583984375	3394.27861143027
0.3009033203125	0.005155029296875	3394.49986342971
0.305328369140625	0.00518798828125	3394.72111542915
0.30975341796875	0.00521728515625	3394.94236742859
0.314178466796875	0.005250244140625	3395.16361942804
0.318603515625	0.0052783203125	3395.38487142748
0.323028564453125	0.00530548095703125	3395.60612342692
0.32745361328125	0.005333251953125	3395.82737542636
0.331878662109375	0.00535858154296875	3396.0486274258
0.3363037109375	0.0053851318359375	3396.26987942524
0.340728759765625	0.0054095458984375	3396.49113142468
0.34515380859375	0.00543426513671875	3396.71238342413
0.349578857421875	0.00545928955078125	3396.93363542357
0.35400390625	0.00548004150390625	3397.15488742301
0.358428955078125	0.00550445556640625	3397.37613942245
0.36285400390625	0.00552642822265625	3397.59739142189
0.367279052734375	0.00554901123046875	3397.81864342133
0.3717041015625	0.0055712890625	3398.03989542077
0.376129150390625	0.005592041015625	3398.26114742022
0.38055419921875	0.00561370849609375	3398.48239941966
0.384979248046875	0.005633544921875	3398.7036514191
0.389404296875	0.0056536865234375	3398.92490341854
0.393829345703125	0.005672607421875	3399.14615541798
0.39825439453125	0.005692138671875	3399.36740741742
0.402679443359375	0.00571136474609375	3399.58865941686
0.4071044921875	0.0057293701171875	3399.80991141631
0.411529541015625	0.005748291015625	3400.03116341575
0.41595458984375	0.00576568603515625	3400.25241541519
0.420379638671875	0.00578277587890625	3400.47366741463
0.4248046875	0.0058001708984375	3400.69491941407
0.429229736328125	0.00581634521484375	3400.91617141351
0.43365478515625	0.0058331298828125	3401.13742341295
0.438079833984375	0.00584869384765625	3401.35867541239
0.4425048828125	0.00586395263671875	3401.57992741184
0.446929931640625	0.00587921142578125	3401.80117941128
0.45135498046875	0.00589324951171875	3402.02243141072
0.455780029296875	0.00590850830078125	3402.24368341016
0.460205078125	0.0059210205078125	3402.4649354096
0.464630126953125	0.00593414306640625	3402.68618740904
0.46905517578125	0.00594635009765625	3402.90743940848
0.473480224609375	0.005958251953125	3403.12869140793
0.4779052734375	0.005970458984375	3403.34994340737
0.482330322265625	0.00598114013671875	3403.57119540681
0.48675537109375	0.00599212646484375	3403.79244740625
0.491180419921875	0.00600311279296875	3404.01369940569
0.49560546875	0.0060028076171875	3404.23495140513
0.500030517578125	0.006011962890625	3404.45620340457
0.50445556640625	0.00601806640625	3404.67745540402
0.508880615234375	0.0060272216796875	3404.89870740346
0.5133056640625	0.006036376953125	3405.1199594029
0.517730712890625	0.00604248046875	3405.34121140234
0.52215576171875	0.0060516357421875	3405.56246340178
0.526580810546875	0.0060577392578125	3405.78371540122
0.531005859375	0.0060638427734375	3406.00496740066
0.535430908203125	0.006072998046875	3406.22621940011
0.53985595703125	0.0060791015625	3406.44747139955
0.544281005859375	0.006085205078125	3406.66872339899
0.5487060546875	0.00609130859375	3406.88997539843
0.553131103515625	0.006097412109375	3407.11122739787
0.55755615234375	0.006103515625	3407.33247939731
0.561981201171875	0.006109619140625	3407.55373139675
0.56640625	0.00611572265625	3407.7749833962
0.570831298828125	0.006121826171875	3407.99623539564
0.57525634765625	0.0061279296875	3408.21748739508
0.579681396484375	0.0061309814453125	3408.43873939452
0.5841064453125	0.0061370849609375	3408.65999139396
0.588531494140625	0.00614013671875	3408.8812433934
0.59295654296875	0.006146240234375	3409.10249539284
0.597381591796875	0.00615234375	3409.32374739228
0.601806640625	0.0061553955078125	3409.54499939173
0.606231689453125	0.0061614990234375	3409.76625139117
0.61065673828125	0.00616455078125	3409.98750339061
0.615081787109375	0.0061676025390625	3410.20875539005
0.6195068359375	0.0061737060546875	3410.43000738949
0.623931884765625	0.0061767578125	3410.65125938893
0.62835693359375	0.0061859130859375	3410.87251138837
0.632781982421875	0.00618896484375	3411.09376338782
0.63720703125	0.006195068359375	3411.31501538726
0.641632080078125	0.0061981201171875	3411.5362673867
0.64605712890625	0.006201171875	3411.75751938614
0.650482177734375	0.006207275390625	3411.97877138558
0.6549072265625	0.0062103271484375	3412.20002338502
0.659332275390625	0.0062164306640625	3412.42127538446
0.66375732421875	0.0062225341796875	3412.64252738391
0.668182373046875	0.0062255859375	3412.86377938335
0.672607421875	0.006231689453125	3413.08503138279
0.677032470703125	0.00623779296875	3413.30628338223
0.68145751953125	0.006243896484375	3413.52753538167
0.685882568359375	0.00625	3413.74878738111
0.6903076171875	0.006256103515625	3413.97003938055
0.694732666015625	0.00626220703125	3414.19129138
0.69915771484375	0.006268310546875	3414.41254337944
0.703582763671875	0.0062744140625	3414.63379537888
0.7080078125	0.0062835693359375	3414.85504737832
0.712432861328125	0.0062896728515625	3415.07629937776
0.71685791015625	0.006298828125	3415.2975513772
0.721282958984375	0.0063079833984375	3415.51880337664
0.7257080078125	0.006317138671875	3415.74005537609
0.730133056640625	0.006329345703125	3415.96130737553
0.73455810546875	0.0063385009765625	3416.18255937497
0.738983154296875	0.00634765625	3416.40381137441
0.743408203125	0.0063568115234375	3416.62506337385
0.747833251953125	0.0063720703125	3416.84631537329
0.75225830078125	0.00638427734375	3417.06756737273
0.756683349609375	0.0063995361328125	3417.28881937218
0.7611083984375	0.006414794921875	3417.51007137162
0.765533447265625	0.006427001953125	3417.73132337106
0.76995849609375	0.0064453125	3417.9525753705
0.774383544921875	0.0064605712890625	3418.17382736994
0.77880859375	0.0064788818359375	3418.39507936938
0.783233642578125	0.0064971923828125	3418.61633136882
0.78765869140625	0.0065155029296875	3418.83758336826
0.792083740234375	0.0065338134765625	3419.05883536771
0.7965087890625	0.00655517578125	3419.28008736715
0.800933837890625	0.0065765380859375	3419.50133936659
0.80535888671875	0.0066009521484375	3419.72259136603
0.809783935546875	0.0066253662109375	3419.94384336547
0.814208984375	0.0066497802734375	3420.16509536491
0.818634033203125	0.00667724609375	3420.38634736435
0.82305908203125	0.0067047119140625	3420.6075993638
0.827484130859375	0.0067352294921875	3420.82885136324
0.8319091796875	0.0067657470703125	3421.05010336268
0.836334228515625	0.00679931640625	3421.27135536212
0.84075927734375	0.0068328857421875	3421.49260736156
0.845184326171875	0.006866455078125	3421.713859361
0.849609375	0.006903076171875	3421.93511136044
0.854034423828125	0.006939697265625	3422.15636335989
0.85845947265625	0.006982421875	3422.37761535933
0.862884521484375	0.0070220947265625	3422.59886735877
0.8673095703125	0.007061767578125	3422.82011935821
0.871734619140625	0.007110595703125	3423.04137135765
0.87615966796875	0.0071533203125	3423.26262335709
0.880584716796875	0.0072052001953125	3423.48387535653
0.885009765625	0.0072540283203125	3423.70512735598
0.889434814453125	0.007305908203125	3423.92637935542
0.89385986328125	0.00736083984375	3424.14763135486
0.898284912109375	0.0074188232421875	3424.3688833543
0.9027099609375	0.0074798583984375	3424.59013535374
0.907135009765625	0.0075408935546875	3424.81138735318
0.91156005859375	0.00760498046875	3425.03263935262
0.915985107421875	0.007672119140625	3425.25389135207
0.92041015625	0.0077392578125	3425.47514335151
0.924835205078125	0.0078094482421875	3425.69639535095
0.92926025390625	0.0078765869140625	3425.91764735039
0.933685302734375	0.007952880859375	3426.13889934983
0.9381103515625	0.0080322265625	3426.36015134927
0.942535400390625	0.008111572265625	3426.58140334871
0.94696044921875	0.0081939697265625	3426.80265534815
0.951385498046875	0.0082763671875	3427.0239073476
0.955810546875	0.00836181640625	3427.24515934704
0.960235595703125	0.0084503173828125	3427.46641134648
0.96466064453125	0.0085418701171875	3427.68766334592
0.969085693359375	0.0086334228515625	3427.90891534536
0.9735107421875	0.00872802734375	3428.1301673448
0.977935791015625	0.0088226318359375	3428.35141934424
0.98236083984375	0.0089202880859375	3428.57267134369
0.986785888671875	0.00902099609375	3428.79392334313
0.9912109375	0.009124755859375	3429.01517534257
0.995635986328125	0.009228515625	3429.23642734201
1.00006103515625	0.00933837890625	3429.45767934145
0.995635986328125	0.0086273193359375	3429.67893134089
0.9912109375	0.0079833984375	3429.90018334033
0.986785888671875	0.0073883056640625	3430.12143533978
0.98236083984375	0.0068267822265625	3430.34268733922
0.977935791015625	0.0062957763671875	3430.56393933866
0.9735107421875	0.0057952880859375	3430.7851913381
0.969085693359375	0.0053192138671875	3431.00644333754
0.96466064453125	0.00486114501953125	3431.22769533698
0.960235595703125	0.004425048828125	3431.44894733642
0.955810546875	0.004007568359375	3431.67019933587
0.951385498046875	0.00360595703125	3431.89145133531
0.94696044921875	0.0032220458984375	3432.11270333475
0.942535400390625	0.00285430908203125	3432.33395533419
0.9381103515625	0.0024981689453125	3432.55520733363
0.933685302734375	0.00215301513671875	3432.77645933307
0.92926025390625	0.0018218994140625	3432.99771133251
0.924835205078125	0.00150360107421875	3433.21896333196
0.92041015625	0.001195068359375	3433.4402153314
0.915985107421875	0.00089874267578125	3433.66146733084
0.91156005859375	0.0006121826171875	3433.88271933028
0.907135009765625	0.000335052490234375	3434.10397132972
0.9027099609375	6.829833984375E-05	3434.32522332916
0.898284912109375	-0.000189666748046875	3434.5464753286
0.89385986328125	-0.0004385986328125	3434.76772732805
0.889434814453125	-0.00067901611328125	3434.98897932749
0.885009765625	-0.00091094970703125	3435.21023132693
0.880584716796875	-0.00113433837890625	3435.43148332637
0.87615966796875	-0.00135040283203125	3435.65273532581
0.871734619140625	-0.001558837890625	3435.87398732525
0.8673095703125	-0.0017596435546875	3436.09523932469
0.862884521484375	-0.00195404052734375	3436.31649132413
0.85845947265625	-0.00213958740234375	3436.53774332358
0.854034423828125	-0.0023199462890625	3436.75899532302
0.849609375	-0.002493896484375	3436.98024732246
0.845184326171875	-0.0026605224609375	3437.2014993219
0.84075927734375	-0.00282135009765625	3437.42275132134
0.836334228515625	-0.002977294921875	3437.64400332078
0.8319091796875	-0.003126220703125	3437.86525532022
0.827484130859375	-0.00326995849609375	3438.08650731967
0.82305908203125	-0.00340789794921875	3438.30775931911
0.818634033203125	-0.0035400390625	3438.52901131855
0.814208984375	-0.00366790771484375	3438.75026331799
0.809783935546875	-0.00378936767578125	3438.97151531743
0.80535888671875	-0.00390777587890625	3439.19276731687
0.800933837890625	-0.00401947021484375	3439.41401931631
0.7965087890625	-0.00412811279296875	3439.63527131576
0.792083740234375	-0.00423095703125	3439.8565233152
0.78765869140625	-0.00432952880859375	3440.07777531464
0.783233642578125	-0.004425048828125	3440.29902731408
0.77880859375	-0.00451446533203125	3440.52027931352
0.774383544921875	-0.0046014404296875	3440.74153131296
0.76995849609375	-0.00468353271484375	3440.9627833124
0.765533447265625	-0.00476165771484375	3441.18403531185
0.7611083984375	-0.0048382568359375	3441.40528731129
0.756683349609375	-0.004908447265625	3441.62653931073
0.75225830078125	-0.00497772216796875	3441.84779131017
0.747833251953125	-0.0050433349609375	3442.06904330961
0.743408203125	-0.00510406494140625	3442.29029530905
0.738983154296875	-0.0051611328125	3442.51154730849
0.73455810546875	-0.00521636962890625	3442.73279930794
0.730133056640625	-0.005269775390625	3442.95405130738
0.7257080078125	-0.0053216552734375	3443.17530330682
0.721282958984375	-0.00537078857421875	3443.39655530626
0.71685791015625	-0.005416259765625	3443.6178073057
0.712432861328125	-0.00545684814453125	3443.83905930514
0.7080078125	-0.00549560546875	3444.06031130458
0.703582763671875	-0.00553436279296875	3444.28156330402
0.69915771484375	-0.00556854248046875	3444.50281530347
0.694732666015625	-0.00560150146484375	3444.72406730291
0.6903076171875	-0.005631103515625	3444.94531930235
0.685882568359375	-0.00565948486328125	3445.16657130179
0.68145751953125	-0.00568572998046875	3445.38782330123
0.677032470703125	-0.0057098388671875	3445.60907530067
0.672607421875	-0.00573333740234375	3445.83032730011
0.668182373046875	-0.0057537841796875	3446.05157929956
0.66375732421875	-0.0057745361328125	3446.272831299
0.659332275390625	-0.00579193115234375	3446.49408329844
0.6549072265625	-0.00580963134765625	3446.71533529788
0.650482177734375	-0.0058251953125	3446.93658729732
0.64605712890625	-0.0058392333984375	3447.15783929676
0.641632080078125	-0.005853271484375	3447.3790912962
0.63720703125	-0.005865478515625	3447.60034329565
0.632781982421875	-0.00587677001953125	3447.82159529509
0.62835693359375	-0.00588775634765625	3448.04284729453
0.623931884765625	-0.00590087890625	3448.26409929397
0.6195068359375	-0.00591033935546875	3448.48535129341
0.615081787109375	-0.00591766357421875	3448.70660329285
0.61065673828125	-0.00592559814453125	3448.92785529229
0.606231689453125	-0.00593292236328125	3449.14910729174
0.601806640625	-0.005938720703125	3449.37035929118
0.597381591796875	-0.00594573974609375	3449.59161129062
0.59295654296875	-0.00595062255859375	3449.81286329006
0.588531494140625	-0.00595672607421875	3450.0341152895
0.5841064453125	-0.0059600830078125	3450.25536728894
0.579681396484375	-0.00596527099609375	3450.47661928838
0.57525634765625	-0.0059710693359375	3450.69787128783
0.570831298828125	-0.005975341796875	3450.91912328727
0.56640625	-0.00598114013671875	3451.14037528671
0.561981201171875	-0.00598480224609375	3451.36162728615
0.55755615234375	-0.00598968505859375	3451.58287928559
0.553131103515625	-0.00599456787109375	3451.80413128503
0.5487060546875	-0.00599945068359375	3452.02538328447
0.544281005859375	-0.00600311279296875	3452.24663528392
0.53985595703125	-0.005987548828125	3452.46788728336
0.535430908203125	-0.00599365234375	3452.6891392828
0.531005859375	-0.0059967041015625	3452.91039128224
0.526580810546875	-0.0060028076171875	3453.13164328168
0.52215576171875	-0.0060089111328125	3453.35289528112
0.517730712890625	-0.0060150146484375	3453.57414728056
0.5133056640625	-0.0060211181640625	3453.79539928
0.508880615234375	-0.0060272216796875	3454.01665127945
0.50445556640625	-0.0060333251953125	3454.23790327889
0.500030517578125	-0.0060394287109375	3454.45915527833
0.49560546875	-0.0060455322265625	3454.68040727777
0.491180419921875	-0.0060516357421875	3454.90165927721
0.48675537109375	-0.006060791015625	3455.12291127665
0.482330322265625	-0.00606689453125	3455.34416327609
0.4779052734375	-0.0060760498046875	3455.56541527554
0.473480224609375	-0.0060821533203125	3455.78666727498
0.46905517578125	-0.00609130859375	3456.00791927442
0.464630126953125	-0.006097412109375	3456.22917127386
0.460205078125	-0.0061065673828125	3456.4504232733
0.455780029296875	-0.00611572265625	3456.67167527274
0.45135498046875	-0.006121826171875	3456.89292727218
0.446929931640625	-0.0061309814453125	3457.11417927163
0.4425048828125	-0.0061431884765625	3457.33543127107
0.438079833984375	-0.0061492919921875	3457.55668327051
0.43365478515625	-0.006158447265625	3457.77793526995
0.429229736328125	-0.006170654296875	3457.99918726939
0.4248046875	-0.0061798095703125	3458.22043926883
0.420379638671875	-0.00618896484375	3458.44169126827
0.41595458984375	-0.0061981201171875	3458.66294326772
0.411529541015625	-0.006207275390625	3458.88419526716
0.4071044921875	-0.0062164306640625	3459.1054472666
0.402679443359375	-0.0062286376953125	3459.32669926604
0.39825439453125	-0.00623779296875	3459.54795126548
0.393829345703125	-0.0062469482421875	3459.76920326492
0.389404296875	-0.006256103515625	3459.99045526436
0.384979248046875	-0.0062652587890625	3460.21170726381
0.38055419921875	-0.0062744140625	3460.43295926325
0.376129150390625	-0.0062835693359375	3460.65421126269
0.3717041015625	-0.0062957763671875	3460.87546326213
0.367279052734375	-0.006304931640625	3461.09671526157
0.36285400390625	-0.0063140869140625	3461.31796726101
0.358428955078125	-0.0063232421875	3461.53921926045
0.35400390625	-0.0063323974609375	3461.76047125989
0.349578857421875	-0.006341552734375	3461.98172325934
0.34515380859375	-0.0063507080078125	3462.20297525878
0.340728759765625	-0.00635986328125	3462.42422725822
0.3363037109375	-0.0063690185546875	3462.64547925766
0.331878662109375	-0.006378173828125	3462.8667312571
0.32745361328125	-0.0063873291015625	3463.08798325654
0.323028564453125	-0.006396484375	3463.30923525598
0.318603515625	-0.0064056396484375	3463.53048725543
0.314178466796875	-0.006414794921875	3463.75173925487
0.30975341796875	-0.006427001953125	3463.97299125431
0.305328369140625	-0.0064361572265625	3464.19424325375
0.3009033203125	-0.0064453125	3464.41549525319
0.296478271484375	-0.0064544677734375	3464.63674725263
0.29205322265625	-0.006463623046875	3464.85799925207
0.287628173828125	-0.0064727783203125	3465.07925125152
0.283203125	-0.0064849853515625	3465.30050325096
0.278778076171875	-0.0064910888671875	3465.5217552504
0.27435302734375	-0.0065032958984375	3465.74300724984
0.269927978515625	-0.006512451171875	3465.96425924928
0.2655029296875	-0.0065216064453125	3466.18551124872
0.261077880859375	-0.00653076171875	3466.40676324816
0.25665283203125	-0.0065399169921875	3466.62801524761
0.252227783203125	-0.0065521240234375	3466.84926724705
0.247802734375	-0.006561279296875	3467.07051924649
0.243377685546875	-0.0065704345703125	3467.29177124593
0.23895263671875	-0.0065826416015625	3467.51302324537
0.234527587890625	-0.006591796875	3467.73427524481
0.2301025390625	-0.0066009521484375	3467.95552724425
0.225677490234375	-0.0066131591796875	3468.1767792437
0.22125244140625	-0.0066253662109375	3468.39803124314
0.216827392578125	-0.0066375732421875	3468.61928324258
0.21240234375	-0.006646728515625	3468.84053524202
0.207977294921875	-0.006658935546875	3469.06178724146
0.20355224609375	-0.006671142578125	3469.2830392409
0.199127197265625	-0.006683349609375	3469.50429124034
0.1947021484375	-0.006695556640625	3469.72554323979
0.190277099609375	-0.006707763671875	3469.94679523923
0.18585205078125	-0.006719970703125	3470.16804723867
0.181427001953125	-0.006732177734375	3470.38929923811
0.177001953125	-0.0067474365234375	3470.61055123755
0.172576904296875	-0.0067596435546875	3470.83180323699
0.16815185546875	-0.0067718505859375	3471.05305523643
0.163726806640625	-0.006787109375	3471.27430723587
0.1593017578125	-0.00679931640625	3471.49555923532
0.154876708984375	-0.0068145751953125	3471.71681123476
0.15045166015625	-0.0068267822265625	3471.9380632342
0.146026611328125	-0.006842041015625	3472.15931523364
0.1416015625	-0.0068572998046875	3472.38056723308
0.137176513671875	-0.00687255859375	3472.60181923252
0.13275146484375	-0.0068878173828125	3472.82307123196
0.128326416015625	-0.0069061279296875	3473.04432323141
0.1239013671875	-0.00692138671875	3473.26557523085
0.119476318359375	-0.006939697265625	3473.48682723029
0.11505126953125	-0.006951904296875	3473.70807922973
0.110626220703125	-0.00697021484375	3473.92933122917
0.106201171875	-0.006988525390625	3474.15058322861
0.101776123046875	-0.0070068359375	3474.37183522805
0.09735107421875	-0.007025146484375	3474.5930872275
0.092926025390625	-0.00704345703125	3474.81433922694
0.0885009765625	-0.0070648193359375	3475.03559122638
0.084075927734375	-0.0070831298828125	3475.25684322582
0.07965087890625	-0.0071044921875	3475.47809522526
0.075225830078125	-0.0071258544921875	3475.6993472247
0.07080078125	-0.007147216796875	3475.92059922414
0.066375732421875	-0.007171630859375	3476.14185122359
0.06195068359375	-0.0071929931640625	3476.36310322303
0.057525634765625	-0.0072174072265625	3476.58435522247
0.0531005859375	-0.0072418212890625	3476.80560722191
0.048675537109375	-0.0072662353515625	3477.02685922135
0.04425048828125	-0.0072906494140625	3477.24811122079
0.039825439453125	-0.0073150634765625	3477.46936322023
0.035400390625	-0.007342529296875	3477.69061521968
0.030975341796875	-0.0073699951171875	3477.91186721912
0.02655029296875	-0.0073974609375	3478.13311921856
0.022125244140625	-0.007427978515625	3478.354371218
0.0177001953125	-0.0074554443359375	3478.57562321744
0.013275146484375	-0.0074859619140625	3478.79687521688
0.00885009765625	-0.0075164794921875	3479.01812721632
0.004425048828125	-0.0075439453125	3479.23937921576
0	-0.0075775146484375	3479.46063121521
0.004425048828125	-0.0068267822265625	3479.68188321465
0.00885009765625	-0.00615234375	3479.90313521409
0.013275146484375	-0.0055328369140625	3480.12438721353
0.0177001953125	-0.00496246337890625	3480.34563921297
0.022125244140625	-0.00443115234375	3480.56689121241
0.02655029296875	-0.00393341064453125	3480.78814321185
0.030975341796875	-0.00346893310546875	3481.0093952113
0.035400390625	-0.00303070068359375	3481.23064721074
0.039825439453125	-0.00262908935546875	3481.45189921018
0.04425048828125	-0.00223968505859375	3481.67315120962
0.048675537109375	-0.00187103271484375	3481.89440320906
0.0531005859375	-0.001522216796875	3482.1156552085
0.057525634765625	-0.00119110107421875	3482.33690720794
0.06195068359375	-0.00087738037109375	3482.55815920739
0.066375732421875	-0.000579833984375	3482.77941120683
0.07080078125	-0.000296417236328125	3483.00066320627
0.075225830078125	-2.69012451171875E-05	3483.22191520571
0.07965087890625	0.000228302001953125	3483.44316720515
0.084075927734375	0.0004722900390625	3483.66441920459
0.0885009765625	0.00070465087890625	3483.88567120403
0.092926025390625	0.00092620849609375	3484.10692320348
0.09735107421875	0.0011370849609375	3484.32817520292
0.101776123046875	0.001339111328125	3484.54942720236
0.106201171875	0.00153076171875	3484.7706792018
0.110626220703125	0.0017138671875	3484.99193120124
0.11505126953125	0.001888427734375	3485.21318320068
0.119476318359375	0.00205291748046875	3485.43443520012
0.1239013671875	0.0022119140625	3485.65568719957
0.128326416015625	0.00236236572265625	3485.87693919901
0.13275146484375	0.00250579833984375	3486.09819119845
0.137176513671875	0.00264434814453125	3486.31944319789
0.1416015625	0.00277740478515625	3486.54069519733
0.146026611328125	0.002904052734375	3486.76194719677
0.15045166015625	0.00302581787109375	3486.98319919621
0.154876708984375	0.00314178466796875	3487.20445119566
0.1593017578125	0.003251953125	3487.4257031951
0.163726806640625	0.00335906982421875	3487.64695519454
0.16815185546875	0.0034600830078125	3487.86820719398
0.172576904296875	0.0035577392578125	3488.08945919342
0.177001953125	0.0036505126953125	3488.31071119286
0.181427001953125	0.00373931884765625	3488.5319631923
0.18585205078125	0.00382476806640625	3488.75321519174
0.190277099609375	0.0039056396484375	3488.97446719119
0.1947021484375	0.003984375	3489.19571919063
0.199127197265625	0.004058837890625	3489.41697119007
0.20355224609375	0.00413055419921875	3489.63822318951
0.207977294921875	0.00419952392578125	3489.85947518895
0.21240234375	0.0042645263671875	3490.08072718839
0.216827392578125	0.00432891845703125	3490.30197918783
0.22125244140625	0.0043890380859375	3490.52323118728
0.225677490234375	0.004447021484375	3490.74448318672
0.2301025390625	0.00450408935546875	3490.96573518616
0.234527587890625	0.00455596923828125	3491.1869871856
0.23895263671875	0.00460845947265625	3491.40823918504
0.243377685546875	0.00465789794921875	3491.62949118448
0.247802734375	0.004705810546875	3491.85074318392
0.252227783203125	0.00475189208984375	3492.07199518337
0.25665283203125	0.004796142578125	3492.29324718281
0.261077880859375	0.0048443603515625	3492.51449918225
0.2655029296875	0.00488494873046875	3492.73575118169
0.269927978515625	0.0049249267578125	3492.95700318113
0.27435302734375	0.0049627685546875	3493.17825518057
0.278778076171875	0.00499847412109375	3493.39950718001
0.283203125	0.0050323486328125	3493.62075917946
0.287628173828125	0.00506561279296875	3493.8420111789
0.29205322265625	0.00509918212890625	3494.06326317834
0.296478271484375	0.005133056640625	3494.28451517778
0.3009033203125	0.00516387939453125	3494.50576717722
0.305328369140625	0.00519500732421875	3494.72701917666
0.30975341796875	0.00522369384765625	3494.9482711761
0.314178466796875	0.0052557373046875	3495.16952317555
0.318603515625	0.00528350830078125	3495.39077517499
0.323028564453125	0.00530975341796875	3495.61202717443
0.32745361328125	0.0053369140625	3495.83327917387
0.331878662109375	0.0053619384765625	3496.05453117331
0.3363037109375	0.0053875732421875	3496.27578317275
0.340728759765625	0.00541168212890625	3496.49703517219
0.34515380859375	0.00543609619140625	3496.71828717163
0.349578857421875	0.005460205078125	3496.93953917108
0.35400390625	0.005479736328125	3497.16079117052
0.358428955078125	0.0055035400390625	3497.38204316996
0.36285400390625	0.0055255126953125	3497.6032951694
0.367279052734375	0.005546875	3497.82454716884
0.3717041015625	0.00556854248046875	3498.04579916828
0.376129150390625	0.0055889892578125	3498.26705116772
0.38055419921875	0.00561004638671875	3498.48830316717
0.384979248046875	0.00562957763671875	3498.70955516661
0.389404296875	0.00564971923828125	3498.93080716605
0.393829345703125	0.00566802978515625	3499.15205916549
0.39825439453125	0.00568695068359375	3499.37331116493
0.402679443359375	0.00570648193359375	3499.59456316437
0.4071044921875	0.00572357177734375	3499.81581516381
0.411529541015625	0.00574188232421875	3500.03706716326
0.41595458984375	0.00575927734375	3500.2583191627
0.420379638671875	0.0057757568359375	3500.47957116214
0.4248046875	0.0057928466796875	3500.70082316158
0.429229736328125	0.00580810546875	3500.92207516102
0.43365478515625	0.0058245849609375	3501.14332716046
0.438079833984375	0.0058392333984375	3501.3645791599
0.4425048828125	0.0058538818359375	3501.58583115935
0.446929931640625	0.00586883544921875	3501.80708315879
0.45135498046875	0.0058819580078125	3502.02833515823
0.455780029296875	0.00589691162109375	3502.24958715767
0.460205078125	0.0059088134765625	3502.47083915711
0.464630126953125	0.00592132568359375	3502.69209115655
0.46905517578125	0.0059332275390625	3502.91334315599
0.473480224609375	0.00594451904296875	3503.13459515544
0.4779052734375	0.00595672607421875	3503.35584715488
0.482330322265625	0.00596710205078125	3503.57709915432
0.48675537109375	0.00597808837890625	3503.79835115376
0.491180419921875	0.00598846435546875	3504.0196031532
0.49560546875	0.0059979248046875	3504.24085515264
0.500030517578125	0.00600830078125	3504.46210715208
0.50445556640625	0.0060089111328125	3504.68335915153
0.508880615234375	0.0060150146484375	3504.90461115097
0.5133056640625	0.0060211181640625	3505.12586315041
0.517730712890625	0.0060272216796875	3505.34711514985
0.52215576171875	0.006036376953125	3505.56836714929
0.526580810546875	0.00604248046875	3505.78961914873
0.531005859375	0.006048583984375	3506.01087114817
0.535430908203125	0.0060546875	3506.23212314761
0.53985595703125	0.006060791015625	3506.45337514706
0.544281005859375	0.0060699462890625	3506.6746271465
0.5487060546875	0.006072998046875	3506.89587914594
0.553131103515625	0.0060791015625	3507.11713114538
0.55755615234375	0.006085205078125	3507.33838314482
0.561981201171875	0.00609130859375	3507.55963514426
0.56640625	0.006097412109375	3507.7808871437
0.570831298828125	0.0061004638671875	3508.00213914315
0.57525634765625	0.0061065673828125	3508.22339114259
0.579681396484375	0.0061126708984375	3508.44464314203
0.5841064453125	0.0061187744140625	3508.66589514147
0.588531494140625	0.006121826171875	3508.88714714091
0.59295654296875	0.0061248779296875	3509.10839914035
0.597381591796875	0.0061309814453125	3509.32965113979
0.601806640625	0.006134033203125	3509.55090313924
0.606231689453125	0.00614013671875	3509.77215513868
0.61065673828125	0.0061431884765625	3509.99340713812
0.615081787109375	0.006146240234375	3510.21465913756
0.6195068359375	0.00615234375	3510.435911137
0.623931884765625	0.0061553955078125	3510.65716313644
0.62835693359375	0.00616455078125	3510.87841513588
0.632781982421875	0.0061676025390625	3511.09966713533
0.63720703125	0.006170654296875	3511.32091913477
0.641632080078125	0.0061767578125	3511.54217113421
0.64605712890625	0.0061798095703125	3511.76342313365
0.650482177734375	0.0061859130859375	3511.98467513309
0.6549072265625	0.00618896484375	3512.20592713253
0.659332275390625	0.006195068359375	3512.42717913197
0.66375732421875	0.0061981201171875	3512.64843113142
0.668182373046875	0.0062042236328125	3512.86968313086
0.672607421875	0.0062103271484375	3513.0909351303
0.677032470703125	0.00621337890625	3513.31218712974
0.68145751953125	0.006219482421875	3513.53343912918
0.685882568359375	0.0062255859375	3513.75469112862
0.6903076171875	0.006231689453125	3513.97594312806
0.694732666015625	0.00623779296875	3514.1971951275
0.69915771484375	0.006243896484375	3514.41844712695
0.703582763671875	0.00625	3514.63969912639
0.7080078125	0.0062591552734375	3514.86095112583
0.712432861328125	0.0062652587890625	3515.08220312527
0.71685791015625	0.0062744140625	3515.30345512471
0.721282958984375	0.0062835693359375	3515.52470712415
0.7257080078125	0.006292724609375	3515.74595912359
0.730133056640625	0.0063018798828125	3515.96721112304
0.73455810546875	0.00631103515625	3516.18846312248
0.738983154296875	0.0063232421875	3516.40971512192
0.743408203125	0.0063323974609375	3516.63096712136
0.747833251953125	0.0063446044921875	3516.8522191208
0.75225830078125	0.00635986328125	3517.07347112024
0.756683349609375	0.0063720703125	3517.29472311968
0.7611083984375	0.0063873291015625	3517.51597511913
0.765533447265625	0.0063995361328125	3517.73722711857
0.76995849609375	0.0064178466796875	3517.95847911801
0.774383544921875	0.00643310546875	3518.17973111745
0.77880859375	0.006451416015625	3518.40098311689
0.783233642578125	0.0064697265625	3518.62223511633
0.78765869140625	0.006488037109375	3518.84348711577
0.792083740234375	0.00650634765625	3519.06473911522
0.7965087890625	0.0065277099609375	3519.28599111466
0.800933837890625	0.006549072265625	3519.5072431141
0.80535888671875	0.006573486328125	3519.72849511354
0.809783935546875	0.0065948486328125	3519.94974711298
0.814208984375	0.006622314453125	3520.17099911242
0.818634033203125	0.006646728515625	3520.39225111186
0.82305908203125	0.0066741943359375	3520.61350311131
0.827484130859375	0.0067047119140625	3520.83475511075
0.8319091796875	0.006732177734375	3521.05600711019
0.836334228515625	0.0067657470703125	3521.27725910963
0.84075927734375	0.00679931640625	3521.49851110907
0.845184326171875	0.0068328857421875	3521.71976310851
0.849609375	0.0068695068359375	3521.94101510795
0.854034423828125	0.0069061279296875	3522.1622671074
0.85845947265625	0.00694580078125	3522.38351910684
0.862884521484375	0.0069854736328125	3522.60477110628
0.8673095703125	0.0070281982421875	3522.82602310572
0.871734619140625	0.007073974609375	3523.04727510516
0.87615966796875	0.0071197509765625	3523.2685271046
0.880584716796875	0.0071685791015625	3523.48977910404
0.885009765625	0.0072174072265625	3523.71103110348
0.889434814453125	0.007269287109375	3523.93228310293
0.89385986328125	0.00732421875	3524.15353510237
0.898284912109375	0.0073822021484375	3524.37478710181
0.9027099609375	0.007440185546875	3524.59603910125
0.907135009765625	0.007501220703125	3524.81729110069
0.91156005859375	0.0075653076171875	3525.03854310013
0.915985107421875	0.00762939453125	3525.25979509957
0.92041015625	0.007696533203125	3525.48104709902
0.924835205078125	0.0077667236328125	3525.70229909846
0.92926025390625	0.0078338623046875	3525.9235510979
0.933685302734375	0.00791015625	3526.14480309734
0.9381103515625	0.0079864501953125	3526.36605509678
0.942535400390625	0.0080657958984375	3526.58730709622
0.94696044921875	0.008148193359375	3526.80855909566
0.951385498046875	0.0082305908203125	3527.02981109511
0.955810546875	0.0083160400390625	3527.25106309455
0.960235595703125	0.0084014892578125	3527.47231509399
0.96466064453125	0.008489990234375	3527.69356709343
0.969085693359375	0.0085845947265625	3527.91481909287
0.9735107421875	0.0086761474609375	3528.13607109231
0.977935791015625	0.008770751953125	3528.35732309175
0.98236083984375	0.008868408203125	3528.5785750912
0.986785888671875	0.0089691162109375	3528.79982709064
0.9912109375	0.0090728759765625	3529.02107909008
0.995635986328125	0.0091766357421875	3529.24233108952
1.00006103515625	0.009283447265625	3529.46358308896
0.995635986328125	0.0085784912109375	3529.6848350884
0.9912109375	0.0079315185546875	3529.90608708784
0.986785888671875	0.0073394775390625	3530.12733908729
0.98236083984375	0.0067779541015625	3530.34859108673
0.977935791015625	0.00625	3530.56984308617
0.9735107421875	0.00574951171875	3530.79109508561
0.969085693359375	0.0052734375	3531.01234708505
0.96466064453125	0.00481903076171875	3531.23359908449
0.960235595703125	0.00438385009765625	3531.45485108393
0.955810546875	0.003968505859375	3531.67610308337
0.951385498046875	0.00356842041015625	3531.89735508282
0.94696044921875	0.00318603515625	3532.11860708226
0.942535400390625	0.00281951904296875	3532.3398590817
0.9381103515625	0.0024652099609375	3532.56111108114
0.933685302734375	0.00212158203125	3532.78236308058
0.92926025390625	0.0017919921875	3533.00361508002
0.924835205078125	0.00147552490234375	3533.22486707946
0.92041015625	0.00116851806640625	3533.44611907891
0.915985107421875	0.0008734130859375	3533.66737107835
0.91156005859375	0.00058837890625	3533.88862307779
0.907135009765625	0.000313140869140625	3534.10987507723
0.9027099609375	4.79736328125E-05	3534.33112707667
0.898284912109375	-0.000208465576171875	3534.55237907611
0.89385986328125	-0.000455474853515625	3534.77363107555
0.889434814453125	-0.000694580078125	3534.994883075
0.885009765625	-0.00092559814453125	3535.21613507444
0.880584716796875	-0.0011474609375	3535.43738707388
0.87615966796875	-0.00136199951171875	3535.65863907332
0.871734619140625	-0.00156890869140625	3535.87989107276
0.8673095703125	-0.001768798828125	3536.1011430722
0.862884521484375	-0.00196136474609375	3536.32239507164
0.85845947265625	-0.0021466064453125	3536.54364707109
0.854034423828125	-0.00232513427734375	3536.76489907053
0.849609375	-0.00249755859375	3536.98615106997
0.845184326171875	-0.00266326904296875	3537.20740306941
0.84075927734375	-0.0028228759765625	3537.42865506885
0.836334228515625	-0.002977294921875	3537.64990706829
0.8319091796875	-0.00312530517578125	3537.87115906773
0.827484130859375	-0.00326751708984375	3538.09241106718
0.82305908203125	-0.00340423583984375	3538.31366306662
0.818634033203125	-0.00353546142578125	3538.53491506606
0.814208984375	-0.003662109375	3538.7561670655
0.809783935546875	-0.00378326416015625	3538.97741906494
0.80535888671875	-0.003900146484375	3539.19867106438
0.800933837890625	-0.00401153564453125	3539.41992306382
0.7965087890625	-0.00411773681640625	3539.64117506327
0.792083740234375	-0.00422088623046875	3539.86242706271
0.78765869140625	-0.004317626953125	3540.08367906215
0.783233642578125	-0.004412841796875	3540.30493106159
0.77880859375	-0.00450164794921875	3540.52618306103
0.774383544921875	-0.00458709716796875	3540.74743506047
0.76995849609375	-0.0046685791015625	3540.96868705991
0.765533447265625	-0.00474609375	3541.18993905935
0.7611083984375	-0.0048211669921875	3541.4111910588
0.756683349609375	-0.00489105224609375	3541.63244305824
0.75225830078125	-0.00495880126953125	3541.85369505768
0.747833251953125	-0.00502288818359375	3542.07494705712
0.743408203125	-0.00508392333984375	3542.29619905656
0.738983154296875	-0.0051409912109375	3542.517451056
0.73455810546875	-0.0051947021484375	3542.73870305544
0.730133056640625	-0.00524688720703125	3542.95995505489
0.7257080078125	-0.005296630859375	3543.18120705433
0.721282958984375	-0.005343017578125	3543.40245905377
0.71685791015625	-0.00539031982421875	3543.62371105321
0.712432861328125	-0.00543182373046875	3543.84496305265
0.7080078125	-0.00547088623046875	3544.06621505209
0.703582763671875	-0.00550689697265625	3544.28746705153
0.69915771484375	-0.00553985595703125	3544.50871905098
0.694732666015625	-0.00557464599609375	3544.72997105042
0.6903076171875	-0.00560394287109375	3544.95122304986
0.685882568359375	-0.00563262939453125	3545.1724750493
0.68145751953125	-0.005657958984375	3545.39372704874
0.677032470703125	-0.00568206787109375	3545.61497904818
0.672607421875	-0.0057061767578125	3545.83623104762
0.668182373046875	-0.00572601318359375	3546.05748304707
0.66375732421875	-0.0057464599609375	3546.27873504651
0.659332275390625	-0.00576416015625	3546.49998704595
0.6549072265625	-0.0057806396484375	3546.72123904539
0.650482177734375	-0.00579681396484375	3546.94249104483
0.64605712890625	-0.00581024169921875	3547.16374304427
0.641632080078125	-0.0058245849609375	3547.38499504371
0.63720703125	-0.005836181640625	3547.60624704316
0.632781982421875	-0.00584716796875	3547.8274990426
0.62835693359375	-0.00585845947265625	3548.04875104204
0.623931884765625	-0.0058721923828125	3548.27000304148
0.6195068359375	-0.00588104248046875	3548.49125504092
0.615081787109375	-0.005888671875	3548.71250704036
0.61065673828125	-0.005897216796875	3548.9337590398
0.606231689453125	-0.005904541015625	3549.15501103924
0.601806640625	-0.00591064453125	3549.37626303869
0.597381591796875	-0.00591766357421875	3549.59751503813
0.59295654296875	-0.00592315673828125	3549.81876703757
0.588531494140625	-0.0059295654296875	3550.04001903701
0.5841064453125	-0.0059326171875	3550.26127103645
0.579681396484375	-0.00593780517578125	3550.48252303589
0.57525634765625	-0.0059442138671875	3550.70377503533
0.570831298828125	-0.00594879150390625	3550.92502703478
0.56640625	-0.00595458984375	3551.14627903422
0.561981201171875	-0.00595916748046875	3551.36753103366
0.55755615234375	-0.00596343994140625	3551.5887830331
0.553131103515625	-0.00596954345703125	3551.81003503254
0.5487060546875	-0.005972900390625	3552.03128703198
0.544281005859375	-0.0059771728515625	3552.25253903142
0.53985595703125	-0.00598236083984375	3552.47379103087
0.535430908203125	-0.00598724365234375	3552.69504303031
0.531005859375	-0.00599334716796875	3552.91629502975
0.526580810546875	-0.0059979248046875	3553.13754702919
0.52215576171875	-0.00600433349609375	3553.35879902863
0.517730712890625	-0.005987548828125	3553.58005102807
0.5133056640625	-0.00599365234375	3553.80130302751
0.508880615234375	-0.005999755859375	3554.02255502696
0.50445556640625	-0.006005859375	3554.2438070264
0.500030517578125	-0.0060150146484375	3554.46505902584
0.49560546875	-0.0060211181640625	3554.68631102528
0.491180419921875	-0.0060272216796875	3554.90756302472
0.48675537109375	-0.006036376953125	3555.12881502416
0.482330322265625	-0.00604248046875	3555.3500670236
0.4779052734375	-0.0060516357421875	3555.57131902305
0.473480224609375	-0.0060577392578125	3555.79257102249
0.46905517578125	-0.00606689453125	3556.01382302193
0.464630126953125	-0.006072998046875	3556.23507502137
0.460205078125	-0.0060821533203125	3556.45632702081
0.455780029296875	-0.00609130859375	3556.67757902025
0.45135498046875	-0.0061004638671875	3556.89883101969
0.446929931640625	-0.006109619140625	3557.12008301914
0.4425048828125	-0.0061187744140625	3557.34133501858
0.438079833984375	-0.0061279296875	3557.56258701802
0.43365478515625	-0.0061370849609375	3557.78383901746
0.429229736328125	-0.006146240234375	3558.0050910169
0.4248046875	-0.0061553955078125	3558.22634301634
0.420379638671875	-0.00616455078125	3558.44759501578
0.41595458984375	-0.0061767578125	3558.66884701522
0.411529541015625	-0.0061859130859375	3558.89009901467
0.4071044921875	-0.006195068359375	3559.11135101411
0.402679443359375	-0.006207275390625	3559.33260301355
0.39825439453125	-0.0062164306640625	3559.55385501299
0.393829345703125	-0.0062255859375	3559.77510701243
0.389404296875	-0.0062347412109375	3559.99635901187
0.384979248046875	-0.006243896484375	3560.21761101131
0.38055419921875	-0.0062530517578125	3560.43886301076
0.376129150390625	-0.00626220703125	3560.6601150102
0.3717041015625	-0.0062744140625	3560.88136700964
0.367279052734375	-0.0062835693359375	3561.10261900908
0.36285400390625	-0.006292724609375	3561.32387100852
0.358428955078125	-0.0063018798828125	3561.54512300796
0.35400390625	-0.00631103515625	3561.7663750074
0.349578857421875	-0.0063201904296875	3561.98762700685
0.34515380859375	-0.006329345703125	3562.20887900629
0.340728759765625	-0.0063385009765625	3562.43013100573
0.3363037109375	-0.00634765625	3562.65138300517
0.331878662109375	-0.0063568115234375	3562.87263500461
0.32745361328125	-0.006365966796875	3563.09388700405
0.323028564453125	-0.0063751220703125	3563.31513900349
0.318603515625	-0.00638427734375	3563.53639100294
0.314178466796875	-0.0063934326171875	3563.75764300238
0.30975341796875	-0.0064056396484375	3563.97889500182
0.305328369140625	-0.006414794921875	3564.20014700126
0.3009033203125	-0.0064239501953125	3564.4213990007
0.296478271484375	-0.00643310546875	3564.64265100014
0.29205322265625	-0.0064422607421875	3564.86390299958
0.287628173828125	-0.006451416015625	3565.08515499903
0.283203125	-0.006463623046875	3565.30640699847
0.278778076171875	-0.0064697265625	3565.52765899791
0.27435302734375	-0.0064788818359375	3565.74891099735
0.269927978515625	-0.0064910888671875	3565.97016299679
0.2655029296875	-0.006500244140625	3566.19141499623
0.261077880859375	-0.0065093994140625	3566.41266699567
0.25665283203125	-0.0065185546875	3566.63391899511
0.252227783203125	-0.0065277099609375	3566.85517099456
0.247802734375	-0.0065399169921875	3567.076422994
0.243377685546875	-0.006549072265625	3567.29767499344
0.23895263671875	-0.006561279296875	3567.51892699288
0.234527587890625	-0.0065704345703125	3567.74017899232
0.2301025390625	-0.00657958984375	3567.96143099176
0.225677490234375	-0.006591796875	3568.1826829912
0.22125244140625	-0.0066009521484375	3568.40393499065
0.216827392578125	-0.0066131591796875	3568.62518699009
0.21240234375	-0.0066253662109375	3568.84643898953
0.207977294921875	-0.006634521484375	3569.06769098897
0.20355224609375	-0.006646728515625	3569.28894298841
0.199127197265625	-0.006658935546875	3569.51019498785
0.1947021484375	-0.006671142578125	3569.73144698729
0.190277099609375	-0.006683349609375	3569.95269898674
0.18585205078125	-0.006695556640625	3570.17395098618
0.181427001953125	-0.006707763671875	3570.39520298562
0.177001953125	-0.006719970703125	3570.61645498506
0.172576904296875	-0.0067352294921875	3570.8377069845
0.16815185546875	-0.0067474365234375	3571.05895898394
0.163726806640625	-0.0067596435546875	3571.28021098338
0.1593017578125	-0.00677490234375	3571.50146298283
0.154876708984375	-0.006787109375	3571.72271498227
0.15045166015625	-0.0068023681640625	3571.94396698171
0.146026611328125	-0.0068145751953125	3572.16521898115
0.1416015625	-0.006829833984375	3572.38647098059
0.137176513671875	-0.0068450927734375	3572.60772298003
0.13275146484375	-0.0068603515625	3572.82897497947
0.128326416015625	-0.006878662109375	3573.05022697892
0.1239013671875	-0.0068939208984375	3573.27147897836
0.119476318359375	-0.0069091796875	3573.4927309778
0.11505126953125	-0.0069244384765625	3573.71398297724
0.110626220703125	-0.0069427490234375	3573.93523497668
0.106201171875	-0.0069610595703125	3574.15648697612
0.101776123046875	-0.0069793701171875	3574.37773897556
0.09735107421875	-0.0069976806640625	3574.59899097501
0.092926025390625	-0.0070159912109375	3574.82024297445
0.0885009765625	-0.0070343017578125	3575.04149497389
0.084075927734375	-0.0070556640625	3575.26274697333
0.07965087890625	-0.007073974609375	3575.48399897277
0.075225830078125	-0.0070953369140625	3575.70525097221
0.07080078125	-0.00711669921875	3575.92650297165
0.066375732421875	-0.00714111328125	3576.14775497109
0.06195068359375	-0.0071624755859375	3576.36900697054
0.057525634765625	-0.0071868896484375	3576.59025896998
0.0531005859375	-0.0072113037109375	3576.81151096942
0.048675537109375	-0.007232666015625	3577.03276296886
0.04425048828125	-0.0072601318359375	3577.2540149683
0.039825439453125	-0.0072845458984375	3577.47526696774
0.035400390625	-0.00731201171875	3577.69651896718
0.030975341796875	-0.0073394775390625	3577.91777096663
0.02655029296875	-0.0073638916015625	3578.13902296607
0.022125244140625	-0.0073944091796875	3578.36027496551
0.0177001953125	-0.007421875	3578.58152696495
0.013275146484375	-0.007452392578125	3578.80277896439
0.00885009765625	-0.00748291015625	3579.02403096383
0.004425048828125	-0.007513427734375	3579.24528296327
0	-0.0075439453125	3579.46653496272
0.004425048828125	-0.0067962646484375	3579.68778696216
0.00885009765625	-0.006121826171875	3579.9090389616
0.013275146484375	-0.0055023193359375	3580.13029096104
0.0177001953125	-0.00493194580078125	3580.35154296048
0.022125244140625	-0.00440216064453125	3580.57279495992
0.02655029296875	-0.0039056396484375	3580.79404695936
0.030975341796875	-0.00343994140625	3581.01529895881
0.035400390625	-0.00300323486328125	3581.23655095825
0.039825439453125	-0.00260223388671875	3581.45780295769
0.04425048828125	-0.00221282958984375	3581.67905495713
0.048675537109375	-0.00184478759765625	3581.90030695657
0.0531005859375	-0.00149688720703125	3582.12155895601
0.057525634765625	-0.0011663818359375	3582.34281095545
0.06195068359375	-0.00085296630859375	3582.5640629549
0.066375732421875	-0.0005560302734375	3582.78531495434
0.07080078125	-0.000273712158203125	3583.00656695378
0.075225830078125	-4.9560546875E-06	3583.22781895322
0.07965087890625	0.000249847412109375	3583.44907095266
0.084075927734375	0.0004931640625	3583.6703229521
0.0885009765625	0.00072509765625	3583.89157495154
0.092926025390625	0.00094635009765625	3584.11282695098
0.09735107421875	0.00115631103515625	3584.33407895043
0.101776123046875	0.0013580322265625	3584.55533094987
0.106201171875	0.0015496826171875	3584.77658294931
0.110626220703125	0.0017315673828125	3584.99783494875
0.11505126953125	0.0019061279296875	3585.21908694819
0.119476318359375	0.0020697021484375	3585.44033894763
0.1239013671875	0.0022283935546875	3585.66159094707
0.128326416015625	0.00237762451171875	3585.88284294652
0.13275146484375	0.00252105712890625	3586.10409494596
0.137176513671875	0.00265869140625	3586.3253469454
0.1416015625	0.002791748046875	3586.54659894484
0.146026611328125	0.0029180908203125	3586.76785094428
0.15045166015625	0.00303863525390625	3586.98910294372
0.154876708984375	0.0031549072265625	3587.21035494316
0.1593017578125	0.00326507568359375	3587.43160694261
0.163726806640625	0.00337127685546875	3587.65285894205
0.16815185546875	0.0034722900390625	3587.87411094149
0.172576904296875	0.0035693359375	3588.09536294093
0.177001953125	0.00366180419921875	3588.31661494037
0.181427001953125	0.00375030517578125	3588.53786693981
0.18585205078125	0.00383544921875	3588.75911893925
0.190277099609375	0.00391632080078125	3588.9803709387
0.1947021484375	0.003994140625	3589.20162293814
0.199127197265625	0.00406829833984375	3589.42287493758
0.20355224609375	0.00413909912109375	3589.64412693702
0.207977294921875	0.00420806884765625	3589.86537893646
0.21240234375	0.0042730712890625	3590.0866309359
0.216827392578125	0.0043359375	3590.30788293534
0.22125244140625	0.00439697265625	3590.52913493479
0.225677490234375	0.00445465087890625	3590.75038693423
0.2301025390625	0.00451019287109375	3590.97163893367
0.234527587890625	0.00456146240234375	3591.19289093311
0.23895263671875	0.00461334228515625	3591.41414293255
0.243377685546875	0.0046630859375	3591.63539493199
0.247802734375	0.00470947265625	3591.85664693143
0.252227783203125	0.0047589111328125	3592.07789893088
0.25665283203125	0.00480255126953125	3592.29915093032
0.261077880859375	0.00484527587890625	3592.52040292976
0.2655029296875	0.00488494873046875	3592.7416549292
0.269927978515625	0.00492340087890625	3592.96290692864
0.27435302734375	0.0049603271484375	3593.18415892808
0.278778076171875	0.0049957275390625	3593.40541092752
0.283203125	0.00503173828125	3593.62666292696
0.287628173828125	0.0050665283203125	3593.84791492641
0.29205322265625	0.00510040283203125	3594.06916692585
0.296478271484375	0.00513214111328125	3594.29041892529
0.3009033203125	0.005162353515625	3594.51167092473
0.305328369140625	0.0051922607421875	3594.73292292417
0.30975341796875	0.00522125244140625	3594.95417492361
0.314178466796875	0.0052520751953125	3595.17542692305
0.318603515625	0.005279541015625	3595.3966789225
0.323028564453125	0.00530548095703125	3595.61793092194
0.32745361328125	0.0053326416015625	3595.83918292138
0.331878662109375	0.00535736083984375	3596.06043492082
0.3363037109375	0.00538238525390625	3596.28168692026
0.340728759765625	0.005406494140625	3596.5029389197
0.34515380859375	0.00542938232421875	3596.72419091914
0.349578857421875	0.0054541015625	3596.94544291859
0.35400390625	0.0054736328125	3597.16669491803
0.358428955078125	0.00549652099609375	3597.38794691747
0.36285400390625	0.00551788330078125	3597.60919891691
0.367279052734375	0.00553955078125	3597.83045091635
0.3717041015625	0.00556060791015625	3598.05170291579
0.376129150390625	0.0055804443359375	3598.27295491523
0.38055419921875	0.00560089111328125	3598.49420691468
0.384979248046875	0.00561981201171875	3598.71545891412
0.389404296875	0.0056396484375	3598.93671091356
0.393829345703125	0.0056573486328125	3599.157962913
0.39825439453125	0.00567535400390625	3599.37921491244
0.402679443359375	0.005694580078125	3599.60046691188
0.4071044921875	0.005711669921875	3599.82171891132
0.411529541015625	0.005728759765625	3600.04297091077
0.41595458984375	0.005745849609375	3600.26422291021
0.420379638671875	0.00576263427734375	3600.48547490965
0.4248046875	0.0057794189453125	3600.70672690909
0.429229736328125	0.00579437255859375	3600.92797890853
0.43365478515625	0.00580963134765625	3601.14923090797
0.438079833984375	0.0058245849609375	3601.37048290741
0.4425048828125	0.00583892822265625	3601.59173490685
0.446929931640625	0.0058544921875	3601.8129869063
0.45135498046875	0.00586761474609375	3602.03423890574
0.455780029296875	0.00588165283203125	3602.25549090518
0.460205078125	0.0058941650390625	3602.47674290462
0.464630126953125	0.0059063720703125	3602.69799490406
0.46905517578125	0.00591796875	3602.9192469035
0.473480224609375	0.005928955078125	3603.14049890294
0.4779052734375	0.00594024658203125	3603.36175090239
0.482330322265625	0.0059503173828125	3603.58300290183
0.48675537109375	0.00596038818359375	3603.80425490127
0.491180419921875	0.00597076416015625	3604.02550690071
0.49560546875	0.0059796142578125	3604.24675890015
0.500030517578125	0.005989990234375	3604.46801089959
0.50445556640625	0.00599884033203125	3604.68926289903
0.508880615234375	0.00600677490234375	3604.91051489848
0.5133056640625	0.006005859375	3605.13176689792
0.517730712890625	0.006011962890625	3605.35301889736
0.52215576171875	0.00601806640625	3605.5742708968
0.526580810546875	0.006024169921875	3605.79552289624
0.531005859375	0.0060302734375	3606.01677489568
0.535430908203125	0.006036376953125	3606.23802689512
0.53985595703125	0.00604248046875	3606.45927889457
0.544281005859375	0.006048583984375	3606.68053089401
0.5487060546875	0.0060516357421875	3606.90178289345
0.553131103515625	0.006060791015625	3607.12303489289
0.55755615234375	0.0060638427734375	3607.34428689233
0.561981201171875	0.0060699462890625	3607.56553889177
0.56640625	0.0060760498046875	3607.78679089121
0.570831298828125	0.0060791015625	3608.00804289066
0.57525634765625	0.006085205078125	3608.2292948901
0.579681396484375	0.00609130859375	3608.45054688954
0.5841064453125	0.0060943603515625	3608.67179888898
0.588531494140625	0.006097412109375	3608.89305088842
0.59295654296875	0.006103515625	3609.11430288786
0.597381591796875	0.0061065673828125	3609.3355548873
0.601806640625	0.0061126708984375	3609.55680688675
0.606231689453125	0.00611572265625	3609.77805888619
0.61065673828125	0.006121826171875	3609.99931088563
0.615081787109375	0.0061248779296875	3610.22056288507
0.6195068359375	0.0061279296875	3610.44181488451
0.623931884765625	0.006134033203125	3610.66306688395
0.62835693359375	0.00614013671875	3610.88431888339
0.632781982421875	0.006146240234375	3611.10557088283
0.63720703125	0.0061492919921875	3611.32682288228
0.641632080078125	0.00615234375	3611.54807488172
0.64605712890625	0.0061553955078125	3611.76932688116
0.650482177734375	0.0061614990234375	3611.9905788806
0.6549072265625	0.00616455078125	3612.21183088004
0.659332275390625	0.006170654296875	3612.43308287948
0.66375732421875	0.0061737060546875	3612.65433487892
0.668182373046875	0.0061798095703125	3612.87558687837
0.672607421875	0.006182861328125	3613.09683887781
0.677032470703125	0.00618896484375	3613.31809087725
0.68145751953125	0.006195068359375	3613.53934287669
0.685882568359375	0.006201171875	3613.76059487613
0.6903076171875	0.0062042236328125	3613.98184687557
0.694732666015625	0.00621337890625	3614.20309887501
0.69915771484375	0.006219482421875	3614.42435087446
0.703582763671875	0.0062255859375	3614.6456028739
0.7080078125	0.0062347412109375	3614.86685487334
0.712432861328125	0.0062408447265625	3615.08810687278
0.71685791015625	0.0062469482421875	3615.30935887222
0.721282958984375	0.006256103515625	3615.53061087166
0.7257080078125	0.0062652587890625	3615.7518628711
0.730133056640625	0.0062774658203125	3615.97311487055
0.73455810546875	0.00628662109375	3616.19436686999
0.738983154296875	0.0062957763671875	3616.41561886943
0.743408203125	0.006304931640625	3616.63687086887
0.747833251953125	0.006317138671875	3616.85812286831
0.75225830078125	0.0063323974609375	3617.07937486775
0.756683349609375	0.0063446044921875	3617.30062686719
0.7611083984375	0.0063568115234375	3617.52187886664
0.765533447265625	0.0063720703125	3617.74313086608
0.76995849609375	0.0063873291015625	3617.96438286552
0.774383544921875	0.0064056396484375	3618.18563486496
0.77880859375	0.0064208984375	3618.4068868644
0.783233642578125	0.006439208984375	3618.62813886384
0.78765869140625	0.00645751953125	3618.84939086328
0.792083740234375	0.006475830078125	3619.07064286272
0.7965087890625	0.0064971923828125	3619.29189486217
0.800933837890625	0.0065185546875	3619.51314686161
0.80535888671875	0.0065399169921875	3619.73439886105
0.809783935546875	0.0065643310546875	3619.95565086049
0.814208984375	0.0065887451171875	3620.17690285993
0.818634033203125	0.0066162109375	3620.39815485937
0.82305908203125	0.006640625	3620.61940685881
0.827484130859375	0.006671142578125	3620.84065885826
0.8319091796875	0.00670166015625	3621.0619108577
0.836334228515625	0.006732177734375	3621.28316285714
0.84075927734375	0.0067626953125	3621.50441485658
0.845184326171875	0.0067962646484375	3621.72566685602
0.849609375	0.0068328857421875	3621.94691885546
0.854034423828125	0.00687255859375	3622.1681708549
0.85845947265625	0.0069091796875	3622.38942285435
0.862884521484375	0.0069488525390625	3622.61067485379
0.8673095703125	0.0069915771484375	3622.83192685323
0.871734619140625	0.007037353515625	3623.05317885267
0.87615966796875	0.007080078125	3623.27443085211
0.880584716796875	0.00712890625	3623.49568285155
0.885009765625	0.0071807861328125	3623.71693485099
0.889434814453125	0.007232666015625	3623.93818685044
0.89385986328125	0.0072845458984375	3624.15943884988
0.898284912109375	0.007342529296875	3624.38069084932
0.9027099609375	0.0074005126953125	3624.60194284876
0.907135009765625	0.0074615478515625	3624.8231948482
0.91156005859375	0.0075225830078125	3625.04444684764
0.915985107421875	0.007586669921875	3625.26569884708
0.92041015625	0.00765380859375	3625.48695084653
0.924835205078125	0.0077239990234375	3625.70820284597
0.92926025390625	0.007794189453125	3625.92945484541
0.933685302734375	0.007861328125	3626.15070684485
0.9381103515625	0.0079437255859375	3626.37195884429
0.942535400390625	0.00802001953125	3626.59321084373
0.94696044921875	0.008099365234375	3626.81446284317
0.951385498046875	0.0081817626953125	3627.03571484262
0.955810546875	0.0082672119140625	3627.25696684206
0.960235595703125	0.0083526611328125	3627.4782188415
0.96466064453125	0.008441162109375	3627.69947084094
0.969085693359375	0.00853271484375	3627.92072284038
0.9735107421875	0.008624267578125	3628.14197483982
0.977935791015625	0.0087158203125	3628.36322683926
0.98236083984375	0.0088165283203125	3628.5844788387
0.986785888671875	0.0089141845703125	3628.80573083815
0.9912109375	0.0090179443359375	3629.02698283759
