Potential applied (V)	WE(1).Current (A)	Time (s)
0.004425048828125	0.026171875	1179.25872602266
0.00885009765625	0.023223876953125	1180.14373602042
0.013275146484375	0.020892333984375	1181.02874601819
0.0177001953125	0.019134521484375	1181.91375601595
0.022125244140625	0.0177978515625	1182.79876601372
0.02655029296875	0.016741943359375	1183.68377601149
0.030975341796875	0.0158843994140625	1184.56878600925
0.035400390625	0.0151580810546875	1185.45379600702
0.039825439453125	0.0145416259765625	1186.33880600478
0.04425048828125	0.0139984130859375	1187.22381600255
0.048675537109375	0.013507080078125	1188.10882600031
0.0531005859375	0.0130706787109375	1188.99383599808
0.057525634765625	0.0126556396484375	1189.87884599584
0.06195068359375	0.01226806640625	1190.76385599361
0.066375732421875	0.0118927001953125	1191.64886599138
0.07080078125	0.0115264892578125	1192.53387598914
0.075225830078125	0.01116943359375	1193.41888598691
0.07965087890625	0.0108306884765625	1194.30389598467
0.084075927734375	0.0104888916015625	1195.18890598244
0.0885009765625	0.010162353515625	1196.0739159802
0.092926025390625	0.0098419189453125	1196.95892597797
0.09735107421875	0.0095306396484375	1197.84393597573
0.101776123046875	0.009234619140625	1198.7289459735
0.106201171875	0.008941650390625	1199.61395597127
0.110626220703125	0.008660888671875	1200.49896596903
0.11505126953125	0.008392333984375	1201.3839759668
0.119476318359375	0.0081298828125	1202.26898596456
0.1239013671875	0.0078826904296875	1203.15399596233
0.128326416015625	0.007647705078125	1204.03900596009
0.13275146484375	0.0074188232421875	1204.92401595786
0.137176513671875	0.0072021484375	1205.80902595562
0.1416015625	0.0069915771484375	1206.69403595339
0.146026611328125	0.0067901611328125	1207.57904595116
0.15045166015625	0.006597900390625	1208.46405594892
0.154876708984375	0.0064117431640625	1209.34906594669
0.1593017578125	0.0062347412109375	1210.23407594445
0.163726806640625	0.0060638427734375	1211.11908594222
0.16815185546875	0.005902099609375	1212.00409593998
0.172576904296875	0.00574951171875	1212.88910593775
0.177001953125	0.00560302734375	1213.77411593552
0.181427001953125	0.0054656982421875	1214.65912593328
0.18585205078125	0.00533447265625	1215.54413593105
0.190277099609375	0.0052093505859375	1216.42914592881
0.1947021484375	0.0050933837890625	1217.31415592658
0.199127197265625	0.0049835205078125	1218.19916592434
0.20355224609375	0.00487884521484375	1219.08417592211
0.207977294921875	0.00478179931640625	1219.96918591987
0.21240234375	0.00469085693359375	1220.85419591764
0.216827392578125	0.0046063232421875	1221.7392059154
0.22125244140625	0.0045404052734375	1222.62421591317
0.225677490234375	0.00446807861328125	1223.50922591094
0.2301025390625	0.00439910888671875	1224.3942359087
0.234527587890625	0.00433502197265625	1225.27924590647
0.23895263671875	0.00427520751953125	1226.16425590423
0.243377685546875	0.00421966552734375	1227.049265902
0.247802734375	0.00416778564453125	1227.93427589976
0.252227783203125	0.00411895751953125	1228.81928589753
0.25665283203125	0.00407470703125	1229.7042958953
0.261077880859375	0.0040325927734375	1230.58930589306
0.2655029296875	0.0039935302734375	1231.47431589083
0.269927978515625	0.003958740234375	1232.35932588859
0.27435302734375	0.003924560546875	1233.24433588636
0.278778076171875	0.00389495849609375	1234.12934588412
0.283203125	0.00386627197265625	1235.01435588189
0.287628173828125	0.00383941650390625	1235.89936587965
0.29205322265625	0.0038153076171875	1236.78437587742
0.296478271484375	0.003792724609375	1237.66938587519
0.3009033203125	0.00377227783203125	1238.55439587295
0.305328369140625	0.0037530517578125	1239.43940587072
0.30975341796875	0.0037359619140625	1240.32441586848
0.314178466796875	0.00372283935546875	1241.20942586625
0.318603515625	0.00370758056640625	1242.09443586401
0.323028564453125	0.003692626953125	1242.97944586178
0.32745361328125	0.0036810302734375	1243.86445585954
0.331878662109375	0.00366973876953125	1244.74946585731
0.3363037109375	0.00365936279296875	1245.63447585508
0.340728759765625	0.00365081787109375	1246.51948585284
0.34515380859375	0.003641357421875	1247.40449585061
0.349578857421875	0.0036334228515625	1248.28950584837
0.35400390625	0.0036248779296875	1249.17451584614
0.358428955078125	0.0036175537109375	1250.0595258439
0.36285400390625	0.003612060546875	1250.94453584167
0.367279052734375	0.00360626220703125	1251.82954583943
0.3717041015625	0.003599853515625	1252.7145558372
0.376129150390625	0.00359527587890625	1253.59956583497
0.38055419921875	0.00359100341796875	1254.48457583273
0.384979248046875	0.0035870361328125	1255.3695858305
0.389404296875	0.0035833740234375	1256.25459582826
0.393829345703125	0.00357757568359375	1257.13960582603
0.39825439453125	0.00357513427734375	1258.02461582379
0.402679443359375	0.00357086181640625	1258.90962582156
0.4071044921875	0.00356689453125	1259.79463581932
0.411529541015625	0.003563232421875	1260.67964581709
0.41595458984375	0.0035589599609375	1261.56465581486
0.420379638671875	0.0035552978515625	1262.44966581262
0.4248046875	0.0035528564453125	1263.33467581039
0.429229736328125	0.0035479736328125	1264.21968580815
0.43365478515625	0.00354400634765625	1265.10469580592
0.438079833984375	0.00353973388671875	1265.98970580368
0.4425048828125	0.0035345458984375	1266.87471580145
0.446929931640625	0.00353118896484375	1267.75972579921
0.45135498046875	0.00352569580078125	1268.64473579698
0.455780029296875	0.00352081298828125	1269.52974579475
0.460205078125	0.00351654052734375	1270.41475579251
0.464630126953125	0.0035113525390625	1271.29976579028
0.46905517578125	0.0035052490234375	1272.18477578804
0.473480224609375	0.0035003662109375	1273.06978578581
0.4779052734375	0.00349395751953125	1273.95479578357
0.482330322265625	0.0034893798828125	1274.83980578134
0.48675537109375	0.00348297119140625	1275.7248157791
0.491180419921875	0.0034765625	1276.60982577687
0.49560546875	0.0034698486328125	1277.49483577464
0.500030517578125	0.00346282958984375	1278.3798457724
0.50445556640625	0.00345611572265625	1279.26485577017
0.508880615234375	0.00344970703125	1280.14986576793
0.5133056640625	0.00344207763671875	1281.0348757657
0.517730712890625	0.0034356689453125	1281.91988576346
0.52215576171875	0.0034283447265625	1282.80489576123
0.526580810546875	0.003421630859375	1283.68990575899
0.531005859375	0.00341461181640625	1284.57491575676
0.535430908203125	0.0034075927734375	1285.45992575453
0.53985595703125	0.00339935302734375	1286.34493575229
0.544281005859375	0.00339263916015625	1287.22994575006
0.5487060546875	0.00338470458984375	1288.11495574782
0.553131103515625	0.003377685546875	1288.99996574559
0.55755615234375	0.0033709716796875	1289.88497574335
0.561981201171875	0.00336456298828125	1290.76998574112
0.56640625	0.00335723876953125	1291.65499573888
0.570831298828125	0.00335052490234375	1292.54000573665
0.57525634765625	0.00334381103515625	1293.42501573442
0.579681396484375	0.0033380126953125	1294.31002573218
0.5841064453125	0.003331298828125	1295.19503572995
0.588531494140625	0.003323974609375	1296.08004572771
0.59295654296875	0.003319091796875	1296.96505572548
0.597381591796875	0.00331329345703125	1297.85006572324
0.601806640625	0.00330810546875	1298.73507572101
0.606231689453125	0.00330352783203125	1299.62008571877
0.61065673828125	0.0032989501953125	1300.50509571654
0.615081787109375	0.0032952880859375	1301.39010571431
0.6195068359375	0.00329071044921875	1302.27511571207
0.623931884765625	0.003287353515625	1303.16012570984
0.62835693359375	0.00328826904296875	1304.0451357076
0.632781982421875	0.0032843017578125	1304.93014570537
0.63720703125	0.00328125	1305.81515570313
0.641632080078125	0.00327911376953125	1306.7001657009
0.64605712890625	0.0032769775390625	1307.58517569866
0.650482177734375	0.0032763671875	1308.47018569643
0.6549072265625	0.00327606201171875	1309.3551956942
0.659332275390625	0.0032757568359375	1310.24020569196
0.66375732421875	0.00327667236328125	1311.12521568973
0.668182373046875	0.0032769775390625	1312.01022568749
0.672607421875	0.0032781982421875	1312.89523568526
0.677032470703125	0.00328033447265625	1313.78024568302
0.68145751953125	0.00328277587890625	1314.66525568079
0.685882568359375	0.0032861328125	1315.55026567855
0.6903076171875	0.00329071044921875	1316.43527567632
0.694732666015625	0.0032940673828125	1317.32028567409
0.69915771484375	0.00329986572265625	1318.20529567185
0.703582763671875	0.0033056640625	1319.09030566962
0.7080078125	0.003311767578125	1319.97531566738
0.712432861328125	0.00332000732421875	1320.86032566515
0.71685791015625	0.00332855224609375	1321.74533566291
0.721282958984375	0.00333740234375	1322.63034566068
0.7257080078125	0.00334808349609375	1323.51535565845
0.730133056640625	0.0033587646484375	1324.40036565621
0.73455810546875	0.0033709716796875	1325.28537565398
0.738983154296875	0.0033837890625	1326.17038565174
0.743408203125	0.0033953857421875	1327.05539564951
0.747833251953125	0.00341094970703125	1327.94040564727
0.75225830078125	0.003427734375	1328.82541564504
0.756683349609375	0.00344482421875	1329.7104256428
0.7611083984375	0.00346466064453125	1330.59543564057
0.765533447265625	0.00348419189453125	1331.48044563833
0.76995849609375	0.00350494384765625	1332.3654556361
0.774383544921875	0.003529052734375	1333.25046563387
0.77880859375	0.0035528564453125	1334.13547563163
0.783233642578125	0.00357940673828125	1335.0204856294
0.78765869140625	0.00360748291015625	1335.90549562716
0.792083740234375	0.003636474609375	1336.79050562493
0.7965087890625	0.00366790771484375	1337.67551562269
0.800933837890625	0.003701171875	1338.56052562046
0.80535888671875	0.0037353515625	1339.44553561823
0.809783935546875	0.00377288818359375	1340.33054561599
0.814208984375	0.00381072998046875	1341.21555561376
0.818634033203125	0.00385223388671875	1342.10056561152
0.82305908203125	0.00389556884765625	1342.98557560929
0.827484130859375	0.0039410400390625	1343.87058560705
0.8319091796875	0.00398956298828125	1344.75559560482
0.836334228515625	0.0040386962890625	1345.64060560258
0.84075927734375	0.004090576171875	1346.52561560035
0.845184326171875	0.0041461181640625	1347.41062559812
0.849609375	0.0042022705078125	1348.29563559588
0.854034423828125	0.0042620849609375	1349.18064559365
0.85845947265625	0.0043243408203125	1350.06565559141
0.862884521484375	0.00438812255859375	1350.95066558918
0.8673095703125	0.00445556640625	1351.83567558694
0.871734619140625	0.0045245361328125	1352.72068558471
0.87615966796875	0.00459564208984375	1353.60569558247
0.880584716796875	0.00467041015625	1354.49070558024
0.885009765625	0.00474609375	1355.37571557801
0.889434814453125	0.0048248291015625	1356.26072557577
0.89385986328125	0.00490692138671875	1357.14573557354
0.898284912109375	0.00498870849609375	1358.0307455713
0.9027099609375	0.00507537841796875	1358.91575556907
0.907135009765625	0.00516326904296875	1359.80076556683
0.91156005859375	0.00525238037109375	1360.6857755646
0.915985107421875	0.005345458984375	1361.57078556236
0.92041015625	0.0054388427734375	1362.45579556013
0.924835205078125	0.005535888671875	1363.3408055579
0.92926025390625	0.005633544921875	1364.22581555566
0.933685302734375	0.00573333740234375	1365.11082555343
0.9381103515625	0.00583892822265625	1365.99583555119
0.942535400390625	0.0059417724609375	1366.88084554896
0.94696044921875	0.0060467529296875	1367.76585554672
0.951385498046875	0.00614013671875	1368.65086554449
0.955810546875	0.006243896484375	1369.53587554225
0.960235595703125	0.0063507080078125	1370.42088554002
0.96466064453125	0.006463623046875	1371.30589553779
0.969085693359375	0.006573486328125	1372.19090553555
0.9735107421875	0.006689453125	1373.07591553332
0.977935791015625	0.0068023681640625	1373.96092553108
0.98236083984375	0.0069183349609375	1374.84593552885
0.986785888671875	0.007037353515625	1375.73094552661
0.9912109375	0.0071563720703125	1376.61595552438
0.995635986328125	0.0072784423828125	1377.50096552214
1.00006103515625	0.0074005126953125	1378.38597551991
0.995635986328125	0.0067657470703125	1379.27098551768
0.9912109375	0.0062164306640625	1380.15599551544
0.986785888671875	0.005718994140625	1381.04100551321
0.98236083984375	0.0052642822265625	1381.92601551097
0.977935791015625	0.00484466552734375	1382.81102550874
0.9735107421875	0.004453125	1383.6960355065
0.969085693359375	0.0040826416015625	1384.58104550427
0.96466064453125	0.00373443603515625	1385.46605550203
0.960235595703125	0.003404541015625	1386.3510654998
0.955810546875	0.00309906005859375	1387.23607549757
0.951385498046875	0.0028033447265625	1388.12108549533
0.94696044921875	0.00252105712890625	1389.0060954931
0.942535400390625	0.00225311279296875	1389.89110549086
0.9381103515625	0.0019976806640625	1390.77611548863
0.933685302734375	0.00175140380859375	1391.66112548639
0.92926025390625	0.00152008056640625	1392.54613548416
0.924835205078125	0.0012994384765625	1393.43114548192
0.92041015625	0.0010888671875	1394.31615547969
0.915985107421875	0.00088714599609375	1395.20116547746
0.91156005859375	0.00069610595703125	1396.08617547522
0.907135009765625	0.00051361083984375	1396.97118547299
0.9027099609375	0.0003392333984375	1397.85619547075
0.898284912109375	0.000172882080078125	1398.74120546852
0.89385986328125	1.50238037109375E-05	1399.62621546628
0.889434814453125	-0.00013568115234375	1400.51122546405
0.885009765625	-0.000279327392578125	1401.39623546181
0.880584716796875	-0.00041650390625	1402.28124545958
0.87615966796875	-0.00054632568359375	1403.16625545735
0.871734619140625	-0.000670654296875	1404.05126545511
0.8673095703125	-0.0007867431640625	1404.93627545288
0.862884521484375	-0.00089874267578125	1405.82128545064
0.85845947265625	-0.00100311279296875	1406.70629544841
0.854034423828125	-0.001102294921875	1407.59130544617
0.849609375	-0.0011968994140625	1408.47631544394
0.845184326171875	-0.001285400390625	1409.3613254417
0.84075927734375	-0.00136932373046875	1410.24633543947
0.836334228515625	-0.00144683837890625	1411.13134543724
0.8319091796875	-0.00152008056640625	1412.016355435
0.827484130859375	-0.0015875244140625	1412.90136543277
0.82305908203125	-0.00165130615234375	1413.78637543053
0.818634033203125	-0.00170928955078125	1414.6713854283
0.814208984375	-0.00176239013671875	1415.55639542606
0.809783935546875	-0.0018115234375	1416.44140542383
0.80535888671875	-0.0018548583984375	1417.32641542159
0.800933837890625	-0.0018951416015625	1418.21142541936
0.7965087890625	-0.00193084716796875	1419.09643541713
0.792083740234375	-0.001961669921875	1419.98144541489
0.78765869140625	-0.001988525390625	1420.86645541266
0.783233642578125	-0.0020111083984375	1421.75146541042
0.77880859375	-0.0020294189453125	1422.63647540819
0.774383544921875	-0.00204498291015625	1423.52148540595
0.76995849609375	-0.0020574951171875	1424.40649540372
0.765533447265625	-0.00206634521484375	1425.29150540148
0.7611083984375	-0.00207275390625	1426.17651539925
0.756683349609375	-0.00207672119140625	1427.06152539702
0.75225830078125	-0.00207733154296875	1427.94653539478
0.747833251953125	-0.0020758056640625	1428.83154539255
0.743408203125	-0.0020721435546875	1429.71655539031
0.738983154296875	-0.0020654296875	1430.60156538808
0.73455810546875	-0.00205902099609375	1431.48657538584
0.730133056640625	-0.00205047607421875	1432.37158538361
0.7257080078125	-0.00204010009765625	1433.25659538138
0.721282958984375	-0.00202972412109375	1434.14160537914
0.71685791015625	-0.0020184326171875	1435.02661537691
0.712432861328125	-0.00200592041015625	1435.91162537467
0.7080078125	-0.001993408203125	1436.79663537244
0.703582763671875	-0.00198028564453125	1437.6816453702
0.69915771484375	-0.0019659423828125	1438.56665536797
0.694732666015625	-0.0019525146484375	1439.45166536573
0.6903076171875	-0.00193939208984375	1440.3366753635
0.685882568359375	-0.00192596435546875	1441.22168536126
0.68145751953125	-0.00191314697265625	1442.10669535903
0.677032470703125	-0.00190093994140625	1442.9917053568
0.672607421875	-0.001888427734375	1443.87671535456
0.668182373046875	-0.00187652587890625	1444.76172535233
0.66375732421875	-0.00186553955078125	1445.64673535009
0.659332275390625	-0.00185394287109375	1446.53174534786
0.6549072265625	-0.00184356689453125	1447.41675534562
0.650482177734375	-0.00183380126953125	1448.30176534339
0.64605712890625	-0.00182403564453125	1449.18677534116
0.641632080078125	-0.001815185546875	1450.07178533892
0.63720703125	-0.001806640625	1450.95679533669
0.632781982421875	-0.001798095703125	1451.84180533445
0.62835693359375	-0.001790771484375	1452.72681533222
0.623931884765625	-0.0017864990234375	1453.61182532998
0.6195068359375	-0.00177886962890625	1454.49683532775
0.615081787109375	-0.00177215576171875	1455.38184532551
0.61065673828125	-0.001766357421875	1456.26685532328
0.606231689453125	-0.00176055908203125	1457.15186532105
0.601806640625	-0.0017559814453125	1458.03687531881
0.597381591796875	-0.00175079345703125	1458.92188531658
0.59295654296875	-0.00174591064453125	1459.80689531434
0.588531494140625	-0.00174285888671875	1460.69190531211
0.5841064453125	-0.0017376708984375	1461.57691530987
0.579681396484375	-0.00173553466796875	1462.46192530764
0.57525634765625	-0.0017327880859375	1463.3469353054
0.570831298828125	-0.0017303466796875	1464.23194530317
0.56640625	-0.00172882080078125	1465.11695530094
0.561981201171875	-0.00172760009765625	1466.0019652987
0.55755615234375	-0.00172607421875	1466.88697529647
0.553131103515625	-0.00172576904296875	1467.77198529423
0.5487060546875	-0.00172454833984375	1468.656995292
0.544281005859375	-0.00172393798828125	1469.54200528976
0.53985595703125	-0.0017242431640625	1470.42701528753
0.535430908203125	-0.00172454833984375	1471.31202528529
0.531005859375	-0.00172515869140625	1472.19703528306
0.526580810546875	-0.00172576904296875	1473.08204528083
0.52215576171875	-0.0017266845703125	1473.96705527859
0.517730712890625	-0.001728515625	1474.85206527636
0.5133056640625	-0.0017291259765625	1475.73707527412
0.508880615234375	-0.00173095703125	1476.62208527189
0.50445556640625	-0.00173248291015625	1477.50709526965
0.500030517578125	-0.001734619140625	1478.39210526742
0.49560546875	-0.00173675537109375	1479.27711526518
0.491180419921875	-0.00173858642578125	1480.16212526295
0.48675537109375	-0.001741943359375	1481.04713526072
0.482330322265625	-0.00174407958984375	1481.93214525848
0.4779052734375	-0.00174652099609375	1482.81715525625
0.473480224609375	-0.001749267578125	1483.70216525401
0.46905517578125	-0.0017523193359375	1484.58717525178
0.464630126953125	-0.0017547607421875	1485.47218524954
0.460205078125	-0.00175872802734375	1486.35719524731
0.455780029296875	-0.00176177978515625	1487.24220524507
0.45135498046875	-0.00176483154296875	1488.12721524284
0.446929931640625	-0.00176910400390625	1489.01222524061
0.4425048828125	-0.0017724609375	1489.89723523837
0.438079833984375	-0.0017755126953125	1490.78224523614
0.43365478515625	-0.00178009033203125	1491.6672552339
0.429229736328125	-0.00178314208984375	1492.55226523167
0.4248046875	-0.00178741455078125	1493.43727522943
0.420379638671875	-0.0017913818359375	1494.3222852272
0.41595458984375	-0.0017950439453125	1495.20729522496
0.411529541015625	-0.00179901123046875	1496.09230522273
0.4071044921875	-0.0018035888671875	1496.9773152205
0.402679443359375	-0.00180755615234375	1497.86232521826
0.39825439453125	-0.00181182861328125	1498.74733521603
0.393829345703125	-0.00181640625	1499.63234521379
0.389404296875	-0.001820068359375	1500.51735521156
0.384979248046875	-0.00182525634765625	1501.40236520932
0.38055419921875	-0.00183013916015625	1502.28737520709
0.376129150390625	-0.001834716796875	1503.17238520485
0.3717041015625	-0.0018402099609375	1504.05739520262
0.367279052734375	-0.00184478759765625	1504.94240520039
0.36285400390625	-0.00185089111328125	1505.82741519815
0.358428955078125	-0.00185638427734375	1506.71242519592
0.35400390625	-0.00186126708984375	1507.59743519368
0.349578857421875	-0.00186553955078125	1508.48244519145
0.34515380859375	-0.001871337890625	1509.36745518921
0.340728759765625	-0.0018768310546875	1510.25246518698
0.3363037109375	-0.0018829345703125	1511.13747518474
0.331878662109375	-0.00188873291015625	1512.02248518251
0.32745361328125	-0.00189453125	1512.90749518028
0.323028564453125	-0.0019012451171875	1513.79250517804
0.318603515625	-0.0019073486328125	1514.67751517581
0.314178466796875	-0.0019140625	1515.56252517357
0.30975341796875	-0.001922607421875	1516.44753517134
0.305328369140625	-0.0019281005859375	1517.3325451691
0.3009033203125	-0.00193450927734375	1518.21755516687
0.296478271484375	-0.00194091796875	1519.10256516463
0.29205322265625	-0.001947021484375	1519.9875751624
0.287628173828125	-0.0019537353515625	1520.87258516017
0.283203125	-0.00196044921875	1521.75759515793
0.278778076171875	-0.0019671630859375	1522.6426051557
0.27435302734375	-0.00197418212890625	1523.52761515346
0.269927978515625	-0.00198089599609375	1524.41262515123
0.2655029296875	-0.00198760986328125	1525.29763514899
0.261077880859375	-0.00199462890625	1526.18264514676
0.25665283203125	-0.0020013427734375	1527.06765514452
0.252227783203125	-0.00200897216796875	1527.95266514229
0.247802734375	-0.0020166015625	1528.83767514006
0.243377685546875	-0.0020233154296875	1529.72268513782
0.23895263671875	-0.0020306396484375	1530.60769513559
0.234527587890625	-0.002037353515625	1531.49270513335
0.2301025390625	-0.00204345703125	1532.37771513112
0.225677490234375	-0.0020513916015625	1533.26272512888
0.22125244140625	-0.00205902099609375	1534.14773512665
0.216827392578125	-0.00206634521484375	1535.03274512441
0.21240234375	-0.002073974609375	1535.91775512218
0.207977294921875	-0.00208099365234375	1536.80276511995
0.20355224609375	-0.002088623046875	1537.68777511771
0.199127197265625	-0.00209625244140625	1538.57278511548
0.1947021484375	-0.002103271484375	1539.45779511324
0.190277099609375	-0.00211151123046875	1540.34280511101
0.18585205078125	-0.00211944580078125	1541.22781510877
0.181427001953125	-0.00212677001953125	1542.11282510654
0.177001953125	-0.00213531494140625	1542.99783510431
0.172576904296875	-0.002142333984375	1543.88284510207
0.16815185546875	-0.0021502685546875	1544.76785509984
0.163726806640625	-0.0021588134765625	1545.6528650976
0.1593017578125	-0.0021661376953125	1546.53787509537
0.154876708984375	-0.0021746826171875	1547.42288509313
0.15045166015625	-0.00218353271484375	1548.3078950909
0.146026611328125	-0.0021917724609375	1549.19290508866
0.1416015625	-0.0022015380859375	1550.07791508643
0.137176513671875	-0.00220977783203125	1550.96292508419
0.13275146484375	-0.00221893310546875	1551.84793508196
0.128326416015625	-0.00222808837890625	1552.73294507973
0.1239013671875	-0.00223724365234375	1553.61795507749
0.119476318359375	-0.002247314453125	1554.50296507526
0.11505126953125	-0.00225555419921875	1555.38797507302
0.110626220703125	-0.0022650146484375	1556.27298507079
0.106201171875	-0.002275390625	1557.15799506855
0.101776123046875	-0.00228515625	1558.04300506632
0.09735107421875	-0.00229522705078125	1558.92801506409
0.092926025390625	-0.00230560302734375	1559.81302506185
0.0885009765625	-0.0023150634765625	1560.69803505962
0.084075927734375	-0.0023248291015625	1561.58304505738
0.07965087890625	-0.00233489990234375	1562.46805505515
0.075225830078125	-0.00234344482421875	1563.35306505291
0.07080078125	-0.002353515625	1564.23807505068
0.066375732421875	-0.00236236572265625	1565.12308504844
0.06195068359375	-0.00237152099609375	1566.00809504621
0.057525634765625	-0.0023809814453125	1566.89310504398
0.0531005859375	-0.0023895263671875	1567.77811504174
0.048675537109375	-0.00239776611328125	1568.66312503951
0.04425048828125	-0.00240631103515625	1569.54813503727
0.039825439453125	-0.00241363525390625	1570.43314503504
0.035400390625	-0.00242156982421875	1571.3181550328
0.030975341796875	-0.00242950439453125	1572.20316503057
0.02655029296875	-0.0024365234375	1573.08817502833
0.022125244140625	-0.00244415283203125	1573.9731850261
0.0177001953125	-0.0024517822265625	1574.85819502387
0.013275146484375	-0.00245880126953125	1575.74320502163
0.00885009765625	-0.0024658203125	1576.6282150194
0.004425048828125	-0.0024737548828125	1577.51322501716
0	-0.00248138427734375	1578.39823501493
0.004425048828125	-0.00188018798828125	1579.28324501269
0.00885009765625	-0.0014202880859375	1580.16825501046
0.013275146484375	-0.0010516357421875	1581.05326500822
0.0177001953125	-0.00074859619140625	1581.93827500599
0.022125244140625	-0.000494171142578125	1582.82328500376
0.02655029296875	-0.000278350830078125	1583.70829500152
0.030975341796875	-9.33837890625E-05	1584.59330499929
0.035400390625	6.6558837890625E-05	1585.47831499705
0.039825439453125	0.000205963134765625	1586.36332499482
0.04425048828125	0.000327911376953125	1587.24833499258
0.048675537109375	0.0004354248046875	1588.13334499035
0.0531005859375	0.000530029296875	1589.01835498811
0.057525634765625	0.000614013671875	1589.90336498588
0.06195068359375	0.00068878173828125	1590.78837498365
0.066375732421875	0.00075592041015625	1591.67338498141
0.07080078125	0.0008148193359375	1592.55839497918
0.075225830078125	0.000869140625	1593.44340497694
0.07965087890625	0.00091766357421875	1594.32841497471
0.084075927734375	0.0009619140625	1595.21342497247
0.0885009765625	0.00100250244140625	1596.09843497024
0.092926025390625	0.00103912353515625	1596.983444968
0.09735107421875	0.001072998046875	1597.86845496577
0.101776123046875	0.001103515625	1598.75346496354
0.106201171875	0.00113250732421875	1599.6384749613
0.110626220703125	0.001158447265625	1600.52348495907
0.11505126953125	0.001182861328125	1601.40849495683
0.119476318359375	0.00120361328125	1602.2935049546
0.1239013671875	0.00122528076171875	1603.17851495236
0.128326416015625	0.00124481201171875	1604.06352495013
0.13275146484375	0.00126312255859375	1604.94853494789
0.137176513671875	0.0012811279296875	1605.83354494566
0.1416015625	0.001297607421875	1606.71855494343
0.146026611328125	0.0013134765625	1607.60356494119
0.15045166015625	0.00132843017578125	1608.48857493896
0.154876708984375	0.00134246826171875	1609.37358493672
0.1593017578125	0.0013555908203125	1610.25859493449
0.163726806640625	0.00136932373046875	1611.14360493225
0.16815185546875	0.0013818359375	1612.02861493002
0.172576904296875	0.00139404296875	1612.91362492778
0.177001953125	0.0014056396484375	1613.79863492555
0.181427001953125	0.0014178466796875	1614.68364492332
0.18585205078125	0.00142852783203125	1615.56865492108
0.190277099609375	0.0014398193359375	1616.45366491885
0.1947021484375	0.00145050048828125	1617.33867491661
0.199127197265625	0.001461181640625	1618.22368491438
0.20355224609375	0.00147186279296875	1619.10869491214
0.207977294921875	0.00148193359375	1619.99370490991
0.21240234375	0.00149169921875	1620.87871490767
0.216827392578125	0.00150177001953125	1621.76372490544
0.22125244140625	0.00151214599609375	1622.64873490321
0.225677490234375	0.00152191162109375	1623.53374490097
0.2301025390625	0.00153228759765625	1624.41875489874
0.234527587890625	0.00154144287109375	1625.3037648965
0.23895263671875	0.0015521240234375	1626.18877489427
0.243377685546875	0.00156097412109375	1627.07378489203
0.247802734375	0.0015716552734375	1627.9587948898
0.252227783203125	0.00158203125	1628.84380488756
0.25665283203125	0.00159149169921875	1629.72881488533
0.261077880859375	0.0016009521484375	1630.6138248831
0.2655029296875	0.00160980224609375	1631.49883488086
0.269927978515625	0.00161956787109375	1632.38384487863
0.27435302734375	0.0016290283203125	1633.26885487639
0.278778076171875	0.0016387939453125	1634.15386487416
0.283203125	0.00164825439453125	1635.03887487192
0.287628173828125	0.00165863037109375	1635.92388486969
0.29205322265625	0.00166839599609375	1636.80889486745
0.296478271484375	0.00167816162109375	1637.69390486522
0.3009033203125	0.00168792724609375	1638.57891486299
0.305328369140625	0.00169647216796875	1639.46392486075
0.30975341796875	0.00170654296875	1640.34893485852
0.314178466796875	0.001717529296875	1641.23394485628
0.318603515625	0.00172576904296875	1642.11895485405
0.323028564453125	0.00173492431640625	1643.00396485181
0.32745361328125	0.0017437744140625	1643.88897484958
0.331878662109375	0.0017523193359375	1644.77398484734
0.3363037109375	0.001761474609375	1645.65899484511
0.340728759765625	0.00176971435546875	1646.54400484288
0.34515380859375	0.0017779541015625	1647.42901484064
0.349578857421875	0.0017864990234375	1648.31402483841
0.35400390625	0.0017938232421875	1649.19903483617
0.358428955078125	0.00180267333984375	1650.08404483394
0.36285400390625	0.00181060791015625	1650.9690548317
0.367279052734375	0.00181793212890625	1651.85406482947
0.3717041015625	0.00182586669921875	1652.73907482724
0.376129150390625	0.00183380126953125	1653.624084825
0.38055419921875	0.00184112548828125	1654.50909482277
0.384979248046875	0.00184814453125	1655.39410482053
0.389404296875	0.0018548583984375	1656.2791148183
0.393829345703125	0.0018603515625	1657.16412481606
0.39825439453125	0.00186676025390625	1658.04913481383
0.402679443359375	0.00187255859375	1658.93414481159
0.4071044921875	0.00187896728515625	1659.81915480936
0.411529541015625	0.0018841552734375	1660.70416480712
0.41595458984375	0.0018890380859375	1661.58917480489
0.420379638671875	0.00189453125	1662.47418480266
0.4248046875	0.0018994140625	1663.35919480042
0.429229736328125	0.001904296875	1664.24420479819
0.43365478515625	0.00190887451171875	1665.12921479595
0.438079833984375	0.00191314697265625	1666.01422479372
0.4425048828125	0.00191741943359375	1666.89923479148
0.446929931640625	0.00192169189453125	1667.78424478925
0.45135498046875	0.00192535400390625	1668.66925478702
0.455780029296875	0.0019293212890625	1669.55426478478
0.460205078125	0.00193267822265625	1670.43927478255
0.464630126953125	0.0019354248046875	1671.32428478031
0.46905517578125	0.001937255859375	1672.20929477808
0.473480224609375	0.00194061279296875	1673.09430477584
0.4779052734375	0.00194305419921875	1673.97931477361
0.482330322265625	0.0019451904296875	1674.86432477137
0.48675537109375	0.0019464111328125	1675.74933476914
0.491180419921875	0.00194793701171875	1676.63434476691
0.49560546875	0.0019488525390625	1677.51935476467
0.500030517578125	0.0019500732421875	1678.40436476244
0.50445556640625	0.0019512939453125	1679.2893747602
0.508880615234375	0.001951904296875	1680.17438475797
0.5133056640625	0.00195159912109375	1681.05939475573
0.517730712890625	0.0019525146484375	1681.9444047535
0.52215576171875	0.001953125	1682.82941475126
0.526580810546875	0.00195343017578125	1683.71442474903
0.531005859375	0.0019537353515625	1684.5994347468
0.535430908203125	0.00195404052734375	1685.48444474456
0.53985595703125	0.00195343017578125	1686.36945474233
0.544281005859375	0.00195404052734375	1687.25446474009
0.5487060546875	0.00195220947265625	1688.13947473786
0.553131103515625	0.0019525146484375	1689.02448473562
0.55755615234375	0.0019525146484375	1689.90949473339
0.561981201171875	0.0019525146484375	1690.79450473115
0.56640625	0.0019525146484375	1691.67951472892
0.570831298828125	0.001953125	1692.56452472669
0.57525634765625	0.00195343017578125	1693.44953472445
0.579681396484375	0.00195465087890625	1694.33454472222
0.5841064453125	0.0019549560546875	1695.21955471998
0.588531494140625	0.00195404052734375	1696.10456471775
0.59295654296875	0.00195526123046875	1696.98957471551
0.597381591796875	0.00195648193359375	1697.87458471328
0.601806640625	0.00195770263671875	1698.75959471104
0.606231689453125	0.001959228515625	1699.64460470881
0.61065673828125	0.0019610595703125	1700.52961470658
0.615081787109375	0.0019635009765625	1701.41462470434
0.6195068359375	0.00196563720703125	1702.29963470211
0.623931884765625	0.00196807861328125	1703.18464469987
0.62835693359375	0.00197357177734375	1704.06965469764
0.632781982421875	0.0019757080078125	1704.9546646954
0.63720703125	0.00197845458984375	1705.83967469317
0.641632080078125	0.00198150634765625	1706.72468469093
0.64605712890625	0.00198455810546875	1707.6096946887
0.650482177734375	0.00198883056640625	1708.49470468647
0.6549072265625	0.00199249267578125	1709.37971468423
0.659332275390625	0.0019976806640625	1710.264724682
0.66375732421875	0.00200286865234375	1711.14973467976
0.668182373046875	0.00200714111328125	1712.03474467753
0.672607421875	0.00201324462890625	1712.91975467529
0.677032470703125	0.00201995849609375	1713.80476467306
0.68145751953125	0.00202606201171875	1714.68977467082
0.685882568359375	0.00203338623046875	1715.57478466859
0.6903076171875	0.002041015625	1716.45979466636
0.694732666015625	0.00204864501953125	1717.34480466412
0.69915771484375	0.00205810546875	1718.22981466189
0.703582763671875	0.00206573486328125	1719.11482465965
0.7080078125	0.0020758056640625	1719.99983465742
0.712432861328125	0.00208648681640625	1720.88484465518
0.71685791015625	0.00209747314453125	1721.76985465295
0.721282958984375	0.0021099853515625	1722.65486465071
0.7257080078125	0.002122802734375	1723.53987464848
0.730133056640625	0.00213348388671875	1724.42488464625
0.73455810546875	0.00214874267578125	1725.30989464401
0.738983154296875	0.002164306640625	1726.19490464178
0.743408203125	0.002178955078125	1727.07991463954
0.747833251953125	0.002196044921875	1727.96492463731
0.75225830078125	0.0022149658203125	1728.84993463507
0.756683349609375	0.00223419189453125	1729.73494463284
0.7611083984375	0.00225372314453125	1730.6199546306
0.765533447265625	0.002275390625	1731.50496462837
0.76995849609375	0.00229827880859375	1732.38997462614
0.774383544921875	0.002322998046875	1733.2749846239
0.77880859375	0.0023480224609375	1734.15999462167
0.783233642578125	0.00237457275390625	1735.04500461943
0.78765869140625	0.00240203857421875	1735.9300146172
0.792083740234375	0.002431640625	1736.81502461496
0.7965087890625	0.0024627685546875	1737.70003461273
0.800933837890625	0.002496337890625	1738.58504461049
0.80535888671875	0.002530517578125	1739.47005460826
0.809783935546875	0.00256683349609375	1740.35506460603
0.814208984375	0.00260498046875	1741.24007460379
0.818634033203125	0.00264495849609375	1742.12508460156
0.82305908203125	0.00268585205078125	1743.01009459932
0.827484130859375	0.00272979736328125	1743.89510459709
0.8319091796875	0.0027752685546875	1744.78011459485
0.836334228515625	0.002822265625	1745.66512459262
0.84075927734375	0.00287200927734375	1746.55013459038
0.845184326171875	0.0029229736328125	1747.43514458815
0.849609375	0.00297637939453125	1748.32015458592
0.854034423828125	0.0030322265625	1749.20516458368
0.85845947265625	0.00308990478515625	1750.09017458145
0.862884521484375	0.00314849853515625	1750.97518457921
0.8673095703125	0.00321136474609375	1751.86019457698
0.871734619140625	0.00327606201171875	1752.74520457474
0.87615966796875	0.003341064453125	1753.63021457251
0.880584716796875	0.003409423828125	1754.51522457027
0.885009765625	0.0034796142578125	1755.40023456804
0.889434814453125	0.00355255126953125	1756.28524456581
0.89385986328125	0.00362701416015625	1757.17025456357
0.898284912109375	0.0037030029296875	1758.05526456134
0.9027099609375	0.0037841796875	1758.9402745591
0.907135009765625	0.0038653564453125	1759.82528455687
0.91156005859375	0.00394805908203125	1760.71029455463
0.915985107421875	0.00403564453125	1761.5953045524
0.92041015625	0.0041229248046875	1762.48031455017
0.924835205078125	0.00421356201171875	1763.36532454793
0.92926025390625	0.00430755615234375	1764.2503345457
0.933685302734375	0.00440032958984375	1765.13534454346
0.9381103515625	0.00449981689453125	1766.02035454123
0.942535400390625	0.004600830078125	1766.90536453899
0.94696044921875	0.00470062255859375	1767.79037453676
0.951385498046875	0.0048046875	1768.67538453452
0.955810546875	0.00491119384765625	1769.56039453229
0.960235595703125	0.0050177001953125	1770.44540453005
0.96466064453125	0.005128173828125	1771.33041452782
0.969085693359375	0.00524078369140625	1772.21542452559
0.9735107421875	0.0053546142578125	1773.10043452335
0.977935791015625	0.00546875	1773.98544452112
0.98236083984375	0.0055853271484375	1774.87045451888
0.986785888671875	0.00570587158203125	1775.75546451665
0.9912109375	0.00582763671875	1776.64047451441
0.995635986328125	0.00594940185546875	1777.52548451218
1.00006103515625	0.0060723876953125	1778.41049450995
0.995635986328125	0.0054534912109375	1779.29550450771
0.9912109375	0.004930419921875	1780.18051450548
0.986785888671875	0.004471435546875	1781.06552450324
0.98236083984375	0.00405517578125	1781.95053450101
0.977935791015625	0.003673095703125	1782.83554449877
0.9735107421875	0.00332061767578125	1783.72055449654
0.969085693359375	0.00299530029296875	1784.6055644943
0.96466064453125	0.00268829345703125	1785.49057449207
0.960235595703125	0.00239837646484375	1786.37558448984
0.955810546875	0.0021246337890625	1787.2605944876
0.951385498046875	0.0018670654296875	1788.14560448537
0.94696044921875	0.00162261962890625	1789.03061448313
0.942535400390625	0.00139190673828125	1789.9156244809
0.9381103515625	0.001173095703125	1790.80063447866
0.933685302734375	0.000963134765625	1791.68564447643
0.92926025390625	0.00076629638671875	1792.57065447419
0.924835205078125	0.000579833984375	1793.45566447196
0.92041015625	0.000402618408203125	1794.34067446973
0.915985107421875	0.000234649658203125	1795.22568446749
0.91156005859375	7.525634765625E-05	1796.11069446526
0.907135009765625	-7.666015625E-05	1796.99570446302
0.9027099609375	-0.00022039794921875	1797.88071446079
0.898284912109375	-0.00035675048828125	1798.76572445855
0.89385986328125	-0.000485504150390625	1799.65073445632
0.889434814453125	-0.0006080322265625	1800.53574445408
0.885009765625	-0.00072418212890625	1801.42075445185
0.880584716796875	-0.000833740234375	1802.30576444962
0.87615966796875	-0.0009375	1803.19077444738
0.871734619140625	-0.0010357666015625	1804.07578444515
0.8673095703125	-0.00112823486328125	1804.96079444291
0.862884521484375	-0.00121551513671875	1805.84580444068
0.85845947265625	-0.0012969970703125	1806.73081443844
0.854034423828125	-0.00137542724609375	1807.61582443621
0.849609375	-0.00144805908203125	1808.50083443397
0.845184326171875	-0.00151702880859375	1809.38584443174
0.84075927734375	-0.00158111572265625	1810.27085442951
0.836334228515625	-0.00164093017578125	1811.15586442727
0.8319091796875	-0.001697998046875	1812.04087442504
0.827484130859375	-0.00174957275390625	1812.9258844228
0.82305908203125	-0.00179840087890625	1813.81089442057
0.818634033203125	-0.0018438720703125	1814.69590441833
0.814208984375	-0.0018853759765625	1815.5809144161
0.809783935546875	-0.00192352294921875	1816.46592441386
0.80535888671875	-0.0019573974609375	1817.35093441163
0.800933837890625	-0.00198822021484375	1818.2359444094
0.7965087890625	-0.00201629638671875	1819.12095440716
0.792083740234375	-0.0020404052734375	1820.00596440493
0.78765869140625	-0.002061767578125	1820.89097440269
0.783233642578125	-0.00208099365234375	1821.77598440046
0.77880859375	-0.002095947265625	1822.66099439822
0.774383544921875	-0.00210845947265625	1823.54600439599
0.76995849609375	-0.00211883544921875	1824.43101439375
0.765533447265625	-0.00212646484375	1825.31602439152
0.7611083984375	-0.00213226318359375	1826.20103438929
0.756683349609375	-0.00213470458984375	1827.08604438705
0.75225830078125	-0.00213531494140625	1827.97105438482
0.747833251953125	-0.0021343994140625	1828.85606438258
0.743408203125	-0.00213134765625	1829.74107438035
0.738983154296875	-0.00212493896484375	1830.62608437811
0.73455810546875	-0.00211944580078125	1831.51109437588
0.730133056640625	-0.00211090087890625	1832.39610437364
0.7257080078125	-0.0021026611328125	1833.28111437141
0.721282958984375	-0.00209197998046875	1834.16612436918
0.71685791015625	-0.0020806884765625	1835.05113436694
0.712432861328125	-0.00206878662109375	1835.93614436471
0.7080078125	-0.00205535888671875	1836.82115436247
0.703582763671875	-0.00204193115234375	1837.70616436024
0.69915771484375	-0.002027587890625	1838.591174358
0.694732666015625	-0.00201416015625	1839.47618435577
0.6903076171875	-0.00199951171875	1840.36119435353
0.685882568359375	-0.00198455810546875	1841.2462043513
0.68145751953125	-0.00196990966796875	1842.13121434907
0.677032470703125	-0.00195556640625	1843.01622434683
0.672607421875	-0.00194122314453125	1843.9012343446
0.668182373046875	-0.00192626953125	1844.78624434236
0.66375732421875	-0.00191192626953125	1845.67125434013
0.659332275390625	-0.00189849853515625	1846.55626433789
0.6549072265625	-0.001884765625	1847.44127433566
0.650482177734375	-0.00187286376953125	1848.32628433342
0.64605712890625	-0.0018603515625	1849.21129433119
0.641632080078125	-0.00184783935546875	1850.09630432896
0.63720703125	-0.0018365478515625	1850.98131432672
0.632781982421875	-0.00182525634765625	1851.86632432449
0.62835693359375	-0.0018157958984375	1852.75133432225
0.623931884765625	-0.0018084716796875	1853.63634432002
0.6195068359375	-0.00179840087890625	1854.52135431778
0.615081787109375	-0.00178955078125	1855.40636431555
0.61065673828125	-0.001781005859375	1856.29137431331
0.606231689453125	-0.00177337646484375	1857.17638431108
0.601806640625	-0.00176605224609375	1858.06139430885
0.597381591796875	-0.00175933837890625	1858.94640430661
0.59295654296875	-0.0017529296875	1859.83141430438
0.588531494140625	-0.00174713134765625	1860.71642430214
0.5841064453125	-0.0017401123046875	1861.60143429991
0.579681396484375	-0.00173675537109375	1862.48644429767
0.57525634765625	-0.00173187255859375	1863.37145429544
0.570831298828125	-0.00172821044921875	1864.2564642932
0.56640625	-0.001724853515625	1865.14147429097
0.561981201171875	-0.00172149658203125	1866.02648428874
0.55755615234375	-0.00171966552734375	1866.9114942865
0.553131103515625	-0.0017169189453125	1867.79650428427
0.5487060546875	-0.001715087890625	1868.68151428203
0.544281005859375	-0.001712646484375	1869.5665242798
0.53985595703125	-0.00171142578125	1870.45153427756
0.535430908203125	-0.0017108154296875	1871.33654427533
0.531005859375	-0.001710205078125	1872.2215542731
0.526580810546875	-0.0017095947265625	1873.10656427086
0.52215576171875	-0.00170928955078125	1873.99157426863
0.517730712890625	-0.0017095947265625	1874.87658426639
0.5133056640625	-0.0017095947265625	1875.76159426416
0.508880615234375	-0.001710205078125	1876.64660426192
0.50445556640625	-0.001710205078125	1877.53161425969
0.500030517578125	-0.00171112060546875	1878.41662425745
0.49560546875	-0.001712646484375	1879.30163425522
0.491180419921875	-0.00171356201171875	1880.18664425298
0.48675537109375	-0.001715087890625	1881.07165425075
0.482330322265625	-0.00171600341796875	1881.95666424852
0.4779052734375	-0.00171783447265625	1882.84167424628
0.473480224609375	-0.0017193603515625	1883.72668424405
0.46905517578125	-0.00172088623046875	1884.61169424181
0.464630126953125	-0.001722412109375	1885.49670423958
0.460205078125	-0.00172454833984375	1886.38171423734
0.455780029296875	-0.00172607421875	1887.26672423511
0.45135498046875	-0.00172821044921875	1888.15173423288
0.446929931640625	-0.00173095703125	1889.03674423064
0.4425048828125	-0.00173309326171875	1889.92175422841
0.438079833984375	-0.00173583984375	1890.80676422617
0.43365478515625	-0.0017376708984375	1891.69177422394
0.429229736328125	-0.001739501953125	1892.5767842217
0.4248046875	-0.0017425537109375	1893.46179421947
0.420379638671875	-0.00174530029296875	1894.34680421723
0.41595458984375	-0.001748046875	1895.231814215
0.411529541015625	-0.00175079345703125	1896.11682421277
0.4071044921875	-0.00175323486328125	1897.00183421053
0.402679443359375	-0.001756591796875	1897.8868442083
0.39825439453125	-0.00175933837890625	1898.77185420606
0.393829345703125	-0.00176239013671875	1899.65686420383
0.389404296875	-0.00176483154296875	1900.54187420159
0.384979248046875	-0.00176788330078125	1901.42688419936
0.38055419921875	-0.00177154541015625	1902.31189419712
0.376129150390625	-0.00177490234375	1903.19690419489
0.3717041015625	-0.001778564453125	1904.08191419266
0.367279052734375	-0.0017822265625	1904.96692419042
0.36285400390625	-0.00178619384765625	1905.85193418819
0.358428955078125	-0.00178985595703125	1906.73694418595
0.35400390625	-0.00179443359375	1907.62195418372
0.349578857421875	-0.00179656982421875	1908.50696418148
0.34515380859375	-0.00180206298828125	1909.39197417925
0.340728759765625	-0.001806640625	1910.27698417701
0.3363037109375	-0.001810302734375	1911.16199417478
0.331878662109375	-0.00181549072265625	1912.04700417255
0.32745361328125	-0.00182037353515625	1912.93201417031
0.323028564453125	-0.0018255615234375	1913.81702416808
0.318603515625	-0.0018304443359375	1914.70203416584
0.314178466796875	-0.0018353271484375	1915.58704416361
0.30975341796875	-0.0018426513671875	1916.47205416137
0.305328369140625	-0.00184783935546875	1917.35706415914
0.3009033203125	-0.0018524169921875	1918.2420741569
0.296478271484375	-0.00185791015625	1919.12708415467
0.29205322265625	-0.0018634033203125	1920.01209415244
0.287628173828125	-0.00186859130859375	1920.8971041502
0.283203125	-0.00187469482421875	1921.78211414797
0.278778076171875	-0.0018804931640625	1922.66712414573
0.27435302734375	-0.001885986328125	1923.5521341435
0.269927978515625	-0.00189239501953125	1924.43714414126
0.2655029296875	-0.001898193359375	1925.32215413903
0.261077880859375	-0.00190460205078125	1926.20716413679
0.25665283203125	-0.00191162109375	1927.09217413456
0.252227783203125	-0.0019171142578125	1927.97718413233
0.247802734375	-0.00192413330078125	1928.86219413009
0.243377685546875	-0.00193023681640625	1929.74720412786
0.23895263671875	-0.0019366455078125	1930.63221412562
0.234527587890625	-0.0019439697265625	1931.51722412339
0.2301025390625	-0.00194915771484375	1932.40223412115
0.225677490234375	-0.0019561767578125	1933.28724411892
0.22125244140625	-0.001962890625	1934.17225411668
0.216827392578125	-0.00197021484375	1935.05726411445
0.21240234375	-0.0019775390625	1935.94227411222
0.207977294921875	-0.00198455810546875	1936.82728410998
0.20355224609375	-0.00199127197265625	1937.71229410775
0.199127197265625	-0.00199859619140625	1938.59730410551
0.1947021484375	-0.0020062255859375	1939.48231410328
0.190277099609375	-0.0020135498046875	1940.36732410104
0.18585205078125	-0.00202117919921875	1941.25233409881
0.181427001953125	-0.00202880859375	1942.13734409657
0.177001953125	-0.0020361328125	1943.02235409434
0.172576904296875	-0.0020440673828125	1943.90736409211
0.16815185546875	-0.002052001953125	1944.79237408987
0.163726806640625	-0.002060546875	1945.67738408764
0.1593017578125	-0.00206787109375	1946.5623940854
0.154876708984375	-0.00207733154296875	1947.44740408317
0.15045166015625	-0.00208587646484375	1948.33241408093
0.146026611328125	-0.00209381103515625	1949.2174240787
0.1416015625	-0.0021038818359375	1950.10243407646
0.137176513671875	-0.0021124267578125	1950.98744407423
0.13275146484375	-0.0021221923828125	1951.872454072
0.128326416015625	-0.00213165283203125	1952.75746406976
0.1239013671875	-0.00214141845703125	1953.64247406753
0.119476318359375	-0.00215118408203125	1954.52748406529
0.11505126953125	-0.00216033935546875	1955.41249406306
0.110626220703125	-0.00217010498046875	1956.29750406082
0.106201171875	-0.0021807861328125	1957.18251405859
0.101776123046875	-0.00219085693359375	1958.06752405635
0.09735107421875	-0.00220062255859375	1958.95253405412
0.092926025390625	-0.0022125244140625	1959.83754405189
0.0885009765625	-0.00222259521484375	1960.72255404965
0.084075927734375	-0.0022332763671875	1961.60756404742
0.07965087890625	-0.00224395751953125	1962.49257404518
0.075225830078125	-0.00225341796875	1963.37758404295
0.07080078125	-0.00226470947265625	1964.26259404071
0.066375732421875	-0.002274169921875	1965.14760403848
0.06195068359375	-0.00228515625	1966.03261403624
0.057525634765625	-0.0022955322265625	1966.91762403401
0.0531005859375	-0.00230560302734375	1967.80263403178
0.048675537109375	-0.00231658935546875	1968.68764402954
0.04425048828125	-0.00232666015625	1969.57265402731
0.039825439453125	-0.00233673095703125	1970.45766402507
0.035400390625	-0.00234619140625	1971.34267402284
0.030975341796875	-0.0023565673828125	1972.2276840206
0.02655029296875	-0.00236572265625	1973.11269401837
0.022125244140625	-0.00237640380859375	1973.99770401613
0.0177001953125	-0.002386474609375	1974.8827140139
0.013275146484375	-0.00239715576171875	1975.76772401167
0.00885009765625	-0.00240814208984375	1976.65273400943
0.004425048828125	-0.0024188232421875	1977.5377440072
0	-0.00243011474609375	1978.42275400496
0.004425048828125	-0.00183624267578125	1979.30776400273
0.00885009765625	-0.00138092041015625	1980.19277400049
0.013275146484375	-0.00101593017578125	1981.07778399826
0.0177001953125	-0.00071563720703125	1981.96279399603
0.022125244140625	-0.000464263916015625	1982.84780399379
0.02655029296875	-0.00025030517578125	1983.73281399156
0.030975341796875	-6.6680908203125E-05	1984.61782398932
0.035400390625	9.1522216796875E-05	1985.50283398709
0.039825439453125	0.00022979736328125	1986.38784398485
0.04425048828125	0.0003507080078125	1987.27285398262
0.048675537109375	0.0004573974609375	1988.15786398038
0.0531005859375	0.000551544189453125	1989.04287397815
0.057525634765625	0.000634521484375	1989.92788397591
0.06195068359375	0.0007080078125	1990.81289397368
0.066375732421875	0.00077423095703125	1991.69790397145
0.07080078125	0.00083251953125	1992.58291396921
0.075225830078125	0.00088592529296875	1993.46792396698
0.07965087890625	0.0009332275390625	1994.35293396474
0.084075927734375	0.00097686767578125	1995.23794396251
0.0885009765625	0.0010162353515625	1996.12295396027
0.092926025390625	0.00105255126953125	1997.00796395804
0.09735107421875	0.0010858154296875	1997.89297395581
0.101776123046875	0.0011151123046875	1998.77798395357
0.106201171875	0.001142578125	1999.66299395134
0.110626220703125	0.00116790771484375	2000.5480039491
0.11505126953125	0.00119171142578125	2001.43301394687
0.119476318359375	0.00121185302734375	2002.31802394463
0.1239013671875	0.001231689453125	2003.2030339424
0.128326416015625	0.0012506103515625	2004.08804394016
0.13275146484375	0.001268310546875	2004.97305393793
0.137176513671875	0.0012841796875	2005.8580639357
0.1416015625	0.00130035400390625	2006.74307393346
0.146026611328125	0.001314697265625	2007.62808393123
0.15045166015625	0.001328125	2008.51309392899
0.154876708984375	0.00134185791015625	2009.39810392676
0.1593017578125	0.0013531494140625	2010.28311392452
0.163726806640625	0.00136505126953125	2011.16812392229
0.16815185546875	0.00137725830078125	2012.05313392005
0.172576904296875	0.00138824462890625	2012.93814391782
0.177001953125	0.00139892578125	2013.82315391559
0.181427001953125	0.00140838623046875	2014.70816391335
0.18585205078125	0.00141815185546875	2015.59317391112
0.190277099609375	0.00142852783203125	2016.47818390888
0.1947021484375	0.00143798828125	2017.36319390665
0.199127197265625	0.0014471435546875	2018.24820390441
0.20355224609375	0.001456298828125	2019.13321390218
0.207977294921875	0.00146514892578125	2020.01822389994
0.21240234375	0.001473388671875	2020.90323389771
0.216827392578125	0.0014825439453125	2021.78824389548
0.22125244140625	0.0014910888671875	2022.67325389324
0.225677490234375	0.0014996337890625	2023.55826389101
0.2301025390625	0.00150848388671875	2024.44327388877
0.234527587890625	0.00151519775390625	2025.32828388654
0.23895263671875	0.00152374267578125	2026.2132938843
0.243377685546875	0.00153228759765625	2027.09830388207
0.247802734375	0.00154022216796875	2027.98331387983
0.252227783203125	0.00154998779296875	2028.8683238776
0.25665283203125	0.001558837890625	2029.75333387537
0.261077880859375	0.00156646728515625	2030.63834387313
0.2655029296875	0.00157440185546875	2031.5233538709
0.269927978515625	0.00158203125	2032.40836386866
0.27435302734375	0.0015899658203125	2033.29337386643
0.278778076171875	0.00159759521484375	2034.17838386419
0.283203125	0.001605224609375	2035.06339386196
0.287628173828125	0.0016131591796875	2035.94840385972
0.29205322265625	0.0016217041015625	2036.83341385749
0.296478271484375	0.00162994384765625	2037.71842385526
0.3009033203125	0.0016375732421875	2038.60343385302
0.305328369140625	0.00164520263671875	2039.48844385079
0.30975341796875	0.00165313720703125	2040.37345384855
0.314178466796875	0.00166229248046875	2041.25846384632
0.318603515625	0.00166961669921875	2042.14347384408
0.323028564453125	0.0016766357421875	2043.02848384185
0.32745361328125	0.00168365478515625	2043.91349383961
0.331878662109375	0.00169036865234375	2044.79850383738
0.3363037109375	0.001697998046875	2045.68351383515
0.340728759765625	0.0017047119140625	2046.56852383291
0.34515380859375	0.00171173095703125	2047.45353383068
0.349578857421875	0.00171844482421875	2048.33854382844
0.35400390625	0.0017230224609375	2049.22355382621
0.358428955078125	0.0017303466796875	2050.10856382397
0.36285400390625	0.0017364501953125	2050.99357382174
0.367279052734375	0.0017425537109375	2051.8785838195
0.3717041015625	0.001749267578125	2052.76359381727
0.376129150390625	0.0017547607421875	2053.64860381504
0.38055419921875	0.0017608642578125	2054.5336138128
0.384979248046875	0.00176605224609375	2055.41862381057
0.389404296875	0.0017706298828125	2056.30363380833
0.393829345703125	0.00177581787109375	2057.1886438061
0.39825439453125	0.00177978515625	2058.07365380386
0.402679443359375	0.00178497314453125	2058.95866380163
0.4071044921875	0.00178955078125	2059.84367379939
0.411529541015625	0.00179290771484375	2060.72868379716
0.41595458984375	0.0017974853515625	2061.61369379493
0.420379638671875	0.0018011474609375	2062.49870379269
0.4248046875	0.00180450439453125	2063.38371379046
0.429229736328125	0.001807861328125	2064.26872378822
0.43365478515625	0.00181121826171875	2065.15373378599
0.438079833984375	0.00181396484375	2066.03874378375
0.4425048828125	0.001817626953125	2066.92375378152
0.446929931640625	0.0018194580078125	2067.80876377928
0.45135498046875	0.001822509765625	2068.69377377705
0.455780029296875	0.00182464599609375	2069.57878377482
0.460205078125	0.00182647705078125	2070.46379377258
0.464630126953125	0.00182891845703125	2071.34880377035
0.46905517578125	0.00183013916015625	2072.23381376811
0.473480224609375	0.00183197021484375	2073.11882376588
0.4779052734375	0.0018341064453125	2074.00383376364
0.482330322265625	0.001834716796875	2074.88884376141
0.48675537109375	0.00183624267578125	2075.77385375917
0.491180419921875	0.00183685302734375	2076.65886375694
0.49560546875	0.00183746337890625	2077.54387375471
0.500030517578125	0.00183807373046875	2078.42888375247
0.50445556640625	0.00183868408203125	2079.31389375024
0.508880615234375	0.00183868408203125	2080.198903748
0.5133056640625	0.0018389892578125	2081.08391374577
0.517730712890625	0.0018389892578125	2081.96892374353
0.52215576171875	0.001839599609375	2082.8539337413
0.526580810546875	0.0018389892578125	2083.73894373906
0.531005859375	0.00183929443359375	2084.62395373683
0.535430908203125	0.00183929443359375	2085.5089637346
0.53985595703125	0.00183868408203125	2086.39397373236
0.544281005859375	0.00183868408203125	2087.27898373013
0.5487060546875	0.00183807373046875	2088.16399372789
0.553131103515625	0.00183837890625	2089.04900372566
0.55755615234375	0.00183868408203125	2089.93401372342
0.561981201171875	0.00183837890625	2090.81902372119
0.56640625	0.00183837890625	2091.70403371896
0.570831298828125	0.0018389892578125	2092.58904371672
0.57525634765625	0.001839599609375	2093.47405371449
0.579681396484375	0.00183990478515625	2094.35906371225
0.5841064453125	0.00184051513671875	2095.24407371002
0.588531494140625	0.00183929443359375	2096.12908370778
0.59295654296875	0.0018408203125	2097.01409370555
0.597381591796875	0.001842041015625	2097.89910370331
0.601806640625	0.00184356689453125	2098.78411370108
0.606231689453125	0.001845703125	2099.66912369884
0.61065673828125	0.00184722900390625	2100.55413369661
0.615081787109375	0.0018487548828125	2101.43914369438
0.6195068359375	0.00185089111328125	2102.32415369214
0.623931884765625	0.00185272216796875	2103.20916368991
0.62835693359375	0.0018585205078125	2104.09417368767
0.632781982421875	0.00186065673828125	2104.97918368544
0.63720703125	0.00186309814453125	2105.8641936832
0.641632080078125	0.001866455078125	2106.74920368097
0.64605712890625	0.001868896484375	2107.63421367874
0.650482177734375	0.00187286376953125	2108.5192236765
0.6549072265625	0.00187652587890625	2109.40423367427
0.659332275390625	0.001881103515625	2110.28924367203
0.66375732421875	0.001885986328125	2111.1742536698
0.668182373046875	0.00189056396484375	2112.05926366756
0.672607421875	0.00189544677734375	2112.94427366533
0.677032470703125	0.00190185546875	2113.82928366309
0.68145751953125	0.001907958984375	2114.71429366086
0.685882568359375	0.00191436767578125	2115.59930365863
0.6903076171875	0.0019219970703125	2116.48431365639
0.694732666015625	0.00192901611328125	2117.36932365416
0.69915771484375	0.00193695068359375	2118.25433365192
0.703582763671875	0.001944580078125	2119.13934364969
0.7080078125	0.001953125	2120.02435364745
0.712432861328125	0.00196380615234375	2120.90936364522
0.71685791015625	0.00197357177734375	2121.79437364298
0.721282958984375	0.00198394775390625	2122.67938364075
0.7257080078125	0.00199554443359375	2123.56439363852
0.730133056640625	0.0020074462890625	2124.44940363628
0.73455810546875	0.002020263671875	2125.33441363405
0.738983154296875	0.00203338623046875	2126.21942363181
0.743408203125	0.0020458984375	2127.10443362958
0.747833251953125	0.00206207275390625	2127.98944362734
0.75225830078125	0.00207855224609375	2128.87445362511
0.756683349609375	0.00209564208984375	2129.75946362287
0.7611083984375	0.0021136474609375	2130.64447362064
0.765533447265625	0.002132568359375	2131.52948361841
0.76995849609375	0.0021533203125	2132.41449361617
0.774383544921875	0.00217437744140625	2133.29950361394
0.77880859375	0.002196044921875	2134.1845136117
0.783233642578125	0.002220458984375	2135.06952360947
0.78765869140625	0.00224517822265625	2135.95453360723
0.792083740234375	0.00227081298828125	2136.839543605
0.7965087890625	0.00229888916015625	2137.72455360276
0.800933837890625	0.0023284912109375	2138.60956360053
0.80535888671875	0.0023583984375	2139.4945735983
0.809783935546875	0.002391357421875	2140.37958359606
0.814208984375	0.00242462158203125	2141.26459359383
0.818634033203125	0.0024603271484375	2142.14960359159
0.82305908203125	0.0024969482421875	2143.03461358936
0.827484130859375	0.00253570556640625	2143.91962358712
0.8319091796875	0.0025762939453125	2144.80463358489
0.836334228515625	0.0026190185546875	2145.68964358265
0.84075927734375	0.00266326904296875	2146.57465358042
0.845184326171875	0.0027081298828125	2147.45966357819
0.849609375	0.00275543212890625	2148.34467357595
0.854034423828125	0.00280487060546875	2149.22968357372
0.85845947265625	0.00285614013671875	2150.11469357148
0.862884521484375	0.00290802001953125	2150.99970356925
0.8673095703125	0.0029632568359375	2151.88471356701
0.871734619140625	0.00301971435546875	2152.76972356478
0.87615966796875	0.0030780029296875	2153.65473356254
0.880584716796875	0.00313934326171875	2154.53974356031
0.885009765625	0.003201904296875	2155.42475355808
0.889434814453125	0.0032666015625	2156.30976355584
0.89385986328125	0.00333251953125	2157.19477355361
0.898284912109375	0.00340087890625	2158.07978355137
0.9027099609375	0.0034710693359375	2158.96479354914
0.907135009765625	0.00354248046875	2159.8498035469
0.91156005859375	0.0036175537109375	2160.73481354467
0.915985107421875	0.00369293212890625	2161.61982354243
0.92041015625	0.00377105712890625	2162.5048335402
0.924835205078125	0.0038519287109375	2163.38984353797
0.92926025390625	0.00393280029296875	2164.27485353573
0.933685302734375	0.0040167236328125	2165.1598635335
0.9381103515625	0.0041064453125	2166.04487353126
0.942535400390625	0.0041937255859375	2166.92988352903
0.94696044921875	0.004283447265625	2167.81489352679
0.951385498046875	0.00437469482421875	2168.69990352456
0.955810546875	0.00446746826171875	2169.58491352232
0.960235595703125	0.0045635986328125	2170.46992352009
0.96466064453125	0.00466094970703125	2171.35493351786
0.969085693359375	0.004759521484375	2172.23994351562
0.9735107421875	0.00486053466796875	2173.12495351339
0.977935791015625	0.00496185302734375	2174.00996351115
0.98236083984375	0.00506683349609375	2174.89497350892
0.986785888671875	0.00517425537109375	2175.77998350668
0.9912109375	0.00528106689453125	2176.66499350445
0.995635986328125	0.00539154052734375	2177.55000350221
1.00006103515625	0.0055023193359375	2178.43501349998
0.995635986328125	0.0049017333984375	2179.32002349775
0.9912109375	0.00439361572265625	2180.20503349551
0.986785888671875	0.00394775390625	2181.09004349328
0.98236083984375	0.00354736328125	2181.97505349104
0.977935791015625	0.00318206787109375	2182.86006348881
0.9735107421875	0.00284637451171875	2183.74507348657
0.969085693359375	0.002535400390625	2184.63008348434
0.96466064453125	0.00224517822265625	2185.5150934821
0.960235595703125	0.00197296142578125	2186.40010347987
0.955810546875	0.00171875	2187.28511347764
0.951385498046875	0.00147918701171875	2188.1701234754
0.94696044921875	0.00125396728515625	2189.05513347317
0.942535400390625	0.00104217529296875	2189.94014347093
0.9381103515625	0.0008416748046875	2190.8251534687
0.933685302734375	0.00065032958984375	2191.71016346646
0.92926025390625	0.000471405029296875	2192.59517346423
0.924835205078125	0.000302093505859375	2193.48018346199
0.92041015625	0.00014227294921875	2194.36519345976
0.915985107421875	-9.20715332031249E-06	2195.25020345753
0.91156005859375	-0.00015313720703125	2196.13521345529
0.907135009765625	-0.000288970947265625	2197.02022345306
0.9027099609375	-0.00041741943359375	2197.90523345082
0.898284912109375	-0.000539093017578125	2198.79024344859
0.89385986328125	-0.00065386962890625	2199.67525344635
0.889434814453125	-0.0007623291015625	2200.56026344412
0.885009765625	-0.0008648681640625	2201.44527344189
0.880584716796875	-0.0009619140625	2202.33028343965
0.87615966796875	-0.00105316162109375	2203.21529343742
0.871734619140625	-0.001138916015625	2204.10030343518
0.8673095703125	-0.001219482421875	2204.98531343295
0.862884521484375	-0.00129608154296875	2205.87032343071
0.85845947265625	-0.00136627197265625	2206.75533342848
0.854034423828125	-0.00143280029296875	2207.64034342624
0.849609375	-0.00149658203125	2208.52535342401
0.845184326171875	-0.00155487060546875	2209.41036342177
0.84075927734375	-0.00160980224609375	2210.29537341954
0.836334228515625	-0.00166046142578125	2211.18038341731
0.8319091796875	-0.00170745849609375	2212.06539341507
0.827484130859375	-0.0017510986328125	2212.95040341284
0.82305908203125	-0.00179168701171875	2213.8354134106
0.818634033203125	-0.00182861328125	2214.72042340837
0.814208984375	-0.00186309814453125	2215.60543340613
0.809783935546875	-0.00189300537109375	2216.4904434039
0.80535888671875	-0.00192138671875	2217.37545340167
0.800933837890625	-0.0019464111328125	2218.26046339943
0.7965087890625	-0.0019677734375	2219.1454733972
0.792083740234375	-0.0019873046875	2220.03048339496
0.78765869140625	-0.00200408935546875	2220.91549339273
0.783233642578125	-0.0020184326171875	2221.80050339049
0.77880859375	-0.0020294189453125	2222.68551338826
0.774383544921875	-0.0020379638671875	2223.57052338602
0.76995849609375	-0.0020452880859375	2224.45553338379
0.765533447265625	-0.00205047607421875	2225.34054338156
0.7611083984375	-0.0020526123046875	2226.22555337932
0.756683349609375	-0.002054443359375	2227.11056337709
0.75225830078125	-0.0020538330078125	2227.99557337485
0.747833251953125	-0.0020513916015625	2228.88058337262
0.743408203125	-0.00204803466796875	2229.76559337038
0.738983154296875	-0.002041015625	2230.65060336815
0.73455810546875	-0.002034912109375	2231.53561336591
0.730133056640625	-0.00202789306640625	2232.42062336368
0.7257080078125	-0.0020196533203125	2233.30563336145
0.721282958984375	-0.0020098876953125	2234.19064335921
0.71685791015625	-0.0020001220703125	2235.07565335698
0.712432861328125	-0.001988525390625	2235.96066335474
0.7080078125	-0.0019781494140625	2236.84567335251
0.703582763671875	-0.00196533203125	2237.73068335027
0.69915771484375	-0.00195220947265625	2238.61569334804
0.694732666015625	-0.00194000244140625	2239.5007033458
0.6903076171875	-0.0019268798828125	2240.38571334357
0.685882568359375	-0.00191497802734375	2241.27072334134
0.68145751953125	-0.00190185546875	2242.1557333391
0.677032470703125	-0.00188934326171875	2243.04074333687
0.672607421875	-0.0018768310546875	2243.92575333463
0.668182373046875	-0.00186370849609375	2244.8107633324
0.66375732421875	-0.00185211181640625	2245.69577333016
0.659332275390625	-0.0018402099609375	2246.58078332793
0.6549072265625	-0.00182861328125	2247.46579332569
0.650482177734375	-0.00181793212890625	2248.35080332346
0.64605712890625	-0.00180694580078125	2249.23581332123
0.641632080078125	-0.00179656982421875	2250.12082331899
0.63720703125	-0.001787109375	2251.00583331676
0.632781982421875	-0.0017767333984375	2251.89084331452
0.62835693359375	-0.00176788330078125	2252.77585331229
0.623931884765625	-0.0017626953125	2253.66086331005
0.6195068359375	-0.0017529296875	2254.54587330782
0.615081787109375	-0.0017449951171875	2255.43088330558
0.61065673828125	-0.00173675537109375	2256.31589330335
0.606231689453125	-0.0017291259765625	2257.20090330112
0.601806640625	-0.0017230224609375	2258.08591329888
0.597381591796875	-0.00171722412109375	2258.97092329665
0.59295654296875	-0.00171112060546875	2259.85593329441
0.588531494140625	-0.0017059326171875	2260.74094329218
0.5841064453125	-0.00169921875	2261.62595328994
0.579681396484375	-0.00169586181640625	2262.51096328771
0.57525634765625	-0.0016912841796875	2263.39597328547
0.570831298828125	-0.001688232421875	2264.28098328324
0.56640625	-0.00168487548828125	2265.16599328101
0.561981201171875	-0.0016815185546875	2266.05100327877
0.55755615234375	-0.00167938232421875	2266.93601327654
0.553131103515625	-0.00167694091796875	2267.8210232743
0.5487060546875	-0.00167510986328125	2268.70603327207
0.544281005859375	-0.0016729736328125	2269.59104326983
0.53985595703125	-0.0016717529296875	2270.4760532676
0.535430908203125	-0.0016705322265625	2271.36106326536
0.531005859375	-0.00167083740234375	2272.24607326313
0.526580810546875	-0.001669921875	2273.1310832609
0.52215576171875	-0.00167022705078125	2274.01609325866
0.517730712890625	-0.001671142578125	2274.90110325643
0.5133056640625	-0.001671142578125	2275.78611325419
0.508880615234375	-0.0016717529296875	2276.67112325196
0.50445556640625	-0.00167236328125	2277.55613324972
0.500030517578125	-0.00167327880859375	2278.44114324749
0.49560546875	-0.0016748046875	2279.32615324525
0.491180419921875	-0.00167572021484375	2280.21116324302
0.48675537109375	-0.00167724609375	2281.09617324079
0.482330322265625	-0.00167877197265625	2281.98118323855
0.4779052734375	-0.00168060302734375	2282.86619323632
0.473480224609375	-0.0016827392578125	2283.75120323408
0.46905517578125	-0.00168426513671875	2284.63621323185
0.464630126953125	-0.001685791015625	2285.52122322961
0.460205078125	-0.00168792724609375	2286.40623322738
0.455780029296875	-0.00168975830078125	2287.29124322514
0.45135498046875	-0.00169219970703125	2288.17625322291
0.446929931640625	-0.0016949462890625	2289.06126322068
0.4425048828125	-0.00169677734375	2289.94627321844
0.438079833984375	-0.00169921875	2290.83128321621
0.43365478515625	-0.00170196533203125	2291.71629321397
0.429229736328125	-0.0017041015625	2292.60130321174
0.4248046875	-0.0017071533203125	2293.4863132095
0.420379638671875	-0.001708984375	2294.37132320727
0.41595458984375	-0.00171142578125	2295.25633320503
0.411529541015625	-0.0017144775390625	2296.1413432028
0.4071044921875	-0.00171630859375	2297.02635320057
0.402679443359375	-0.0017193603515625	2297.91136319833
0.39825439453125	-0.00172210693359375	2298.7963731961
0.393829345703125	-0.00172515869140625	2299.68138319386
0.389404296875	-0.00172698974609375	2300.56639319163
0.384979248046875	-0.0017303466796875	2301.45140318939
0.38055419921875	-0.0017327880859375	2302.33641318716
0.376129150390625	-0.00173736572265625	2303.22142318492
0.3717041015625	-0.00173980712890625	2304.10643318269
0.367279052734375	-0.00174407958984375	2304.99144318046
0.36285400390625	-0.00174774169921875	2305.87645317822
0.358428955078125	-0.00175079345703125	2306.76146317599
0.35400390625	-0.0017547607421875	2307.64647317375
0.349578857421875	-0.00175689697265625	2308.53148317152
0.34515380859375	-0.0017608642578125	2309.41649316928
0.340728759765625	-0.00176544189453125	2310.30150316705
0.3363037109375	-0.0017694091796875	2311.18651316482
0.331878662109375	-0.00177337646484375	2312.07152316258
0.32745361328125	-0.00177825927734375	2312.95653316035
0.323028564453125	-0.00178253173828125	2313.84154315811
0.318603515625	-0.001787109375	2314.72655315588
0.314178466796875	-0.00179107666015625	2315.61156315364
0.30975341796875	-0.001798095703125	2316.49657315141
0.305328369140625	-0.00180267333984375	2317.38158314917
0.3009033203125	-0.0018072509765625	2318.26659314694
0.296478271484375	-0.00181182861328125	2319.1516031447
0.29205322265625	-0.00181671142578125	2320.03661314247
0.287628173828125	-0.00182159423828125	2320.92162314024
0.283203125	-0.001827392578125	2321.806633138
0.278778076171875	-0.0018328857421875	2322.69164313577
0.27435302734375	-0.00183746337890625	2323.57665313353
0.269927978515625	-0.00184295654296875	2324.4616631313
0.2655029296875	-0.00184906005859375	2325.34667312906
0.261077880859375	-0.001854248046875	2326.23168312683
0.25665283203125	-0.00186004638671875	2327.1166931246
0.252227783203125	-0.0018658447265625	2328.00170312236
0.247802734375	-0.0018719482421875	2328.88671312013
0.243377685546875	-0.0018780517578125	2329.77172311789
0.23895263671875	-0.0018841552734375	2330.65673311566
0.234527587890625	-0.00189056396484375	2331.54174311342
0.2301025390625	-0.00189605712890625	2332.42675311119
0.225677490234375	-0.00190216064453125	2333.31176310895
0.22125244140625	-0.00190887451171875	2334.19677310672
0.216827392578125	-0.001915283203125	2335.08178310449
0.21240234375	-0.0019219970703125	2335.96679310225
0.207977294921875	-0.0019287109375	2336.85180310002
0.20355224609375	-0.00193572998046875	2337.73681309778
0.199127197265625	-0.00194244384765625	2338.62182309555
0.1947021484375	-0.00194915771484375	2339.50683309331
0.190277099609375	-0.00195648193359375	2340.39184309108
0.18585205078125	-0.00196380615234375	2341.27685308884
0.181427001953125	-0.0019708251953125	2342.16186308661
0.177001953125	-0.00197845458984375	2343.04687308438
0.172576904296875	-0.00198638916015625	2343.93188308214
0.16815185546875	-0.001993408203125	2344.81689307991
0.163726806640625	-0.00200042724609375	2345.70190307767
0.1593017578125	-0.00200897216796875	2346.58691307544
0.154876708984375	-0.0020166015625	2347.4719230732
0.15045166015625	-0.00202545166015625	2348.35693307097
0.146026611328125	-0.00203338623046875	2349.24194306873
0.1416015625	-0.002042236328125	2350.1269530665
0.137176513671875	-0.00205108642578125	2351.01196306427
0.13275146484375	-0.00205963134765625	2351.89697306203
0.128326416015625	-0.00206939697265625	2352.7819830598
0.1239013671875	-0.002078857421875	2353.66699305756
0.119476318359375	-0.0020880126953125	2354.55200305533
0.11505126953125	-0.00209747314453125	2355.43701305309
0.110626220703125	-0.00210784912109375	2356.32202305086
0.106201171875	-0.0021173095703125	2357.20703304862
0.101776123046875	-0.0021282958984375	2358.09204304639
0.09735107421875	-0.002138671875	2358.97705304416
0.092926025390625	-0.0021490478515625	2359.86206304192
0.0885009765625	-0.00216033935546875	2360.74707303969
0.084075927734375	-0.0021710205078125	2361.63208303745
0.07965087890625	-0.00218170166015625	2362.51709303522
0.075225830078125	-0.002191162109375	2363.40210303298
0.07080078125	-0.0022015380859375	2364.28711303075
0.066375732421875	-0.0022125244140625	2365.17212302851
0.06195068359375	-0.0022235107421875	2366.05713302628
0.057525634765625	-0.0022344970703125	2366.94214302405
0.0531005859375	-0.00224517822265625	2367.82715302181
0.048675537109375	-0.0022552490234375	2368.71216301958
0.04425048828125	-0.0022662353515625	2369.59717301734
0.039825439453125	-0.00227752685546875	2370.48218301511
0.035400390625	-0.00228790283203125	2371.36719301287
0.030975341796875	-0.0022998046875	2372.25220301064
0.02655029296875	-0.0023114013671875	2373.1372130084
0.022125244140625	-0.0023223876953125	2374.02222300617
0.0177001953125	-0.0023345947265625	2374.90723300394
0.013275146484375	-0.00234588623046875	2375.7922430017
0.00885009765625	-0.0023583984375	2376.67725299947
0.004425048828125	-0.002371826171875	2377.56226299723
0	-0.002384033203125	2378.447272995
0.004425048828125	-0.0017950439453125	2379.33228299276
0.00885009765625	-0.00134307861328125	2380.21729299053
0.013275146484375	-0.00098114013671875	2381.10230298829
0.0177001953125	-0.00068328857421875	2381.98731298606
0.022125244140625	-0.000433746337890625	2382.87232298383
0.02655029296875	-0.000221343994140625	2383.75733298159
0.030975341796875	-3.98590087890625E-05	2384.64234297936
0.035400390625	0.000116943359375	2385.52735297712
0.039825439453125	0.000253570556640625	2386.41236297489
0.04425048828125	0.000373321533203125	2387.29737297265
0.048675537109375	0.000478485107421875	2388.18238297042
0.0531005859375	0.000571197509765625	2389.06739296818
0.057525634765625	0.000653289794921875	2389.95240296595
0.06195068359375	0.00072601318359375	2390.83741296372
0.066375732421875	0.0007904052734375	2391.72242296148
0.07080078125	0.00084869384765625	2392.60743295925
0.075225830078125	0.00090087890625	2393.49244295701
0.07965087890625	0.0009466552734375	2394.37745295478
0.084075927734375	0.0009893798828125	2395.26246295254
0.0885009765625	0.0010272216796875	2396.14747295031
0.092926025390625	0.0010626220703125	2397.03248294807
0.09735107421875	0.00109405517578125	2397.91749294584
0.101776123046875	0.001123046875	2398.80250294361
0.106201171875	0.00114959716796875	2399.68751294137
0.110626220703125	0.001173095703125	2400.57252293914
0.11505126953125	0.00119537353515625	2401.4575329369
0.119476318359375	0.00121490478515625	2402.34254293467
0.1239013671875	0.001234130859375	2403.22755293243
0.128326416015625	0.0012518310546875	2404.1125629302
0.13275146484375	0.00126800537109375	2404.99757292796
0.137176513671875	0.0012835693359375	2405.88258292573
0.1416015625	0.0012982177734375	2406.7675929235
0.146026611328125	0.00131195068359375	2407.65260292126
0.15045166015625	0.001324462890625	2408.53761291903
0.154876708984375	0.00133697509765625	2409.42262291679
0.1593017578125	0.0013482666015625	2410.30763291456
0.163726806640625	0.00135894775390625	2411.19264291232
0.16815185546875	0.00136962890625	2412.07765291009
0.172576904296875	0.00137939453125	2412.96266290785
0.177001953125	0.00138946533203125	2413.84767290562
0.181427001953125	0.00139862060546875	2414.73268290339
0.18585205078125	0.0014068603515625	2415.61769290115
0.190277099609375	0.0014154052734375	2416.50270289892
0.1947021484375	0.00142425537109375	2417.38771289668
0.199127197265625	0.00143280029296875	2418.27272289445
0.20355224609375	0.00144073486328125	2419.15773289221
0.207977294921875	0.0014483642578125	2420.04274288998
0.21240234375	0.00145660400390625	2420.92775288775
0.216827392578125	0.00146484375	2421.81276288551
0.22125244140625	0.0014715576171875	2422.69777288328
0.225677490234375	0.00147918701171875	2423.58278288104
0.2301025390625	0.00148681640625	2424.46779287881
0.234527587890625	0.00149322509765625	2425.35280287657
0.23895263671875	0.00150146484375	2426.23781287434
0.243377685546875	0.0015093994140625	2427.1228228721
0.247802734375	0.00151702880859375	2428.00783286987
0.252227783203125	0.0015240478515625	2428.89284286763
0.25665283203125	0.00153076171875	2429.7778528654
0.261077880859375	0.00153778076171875	2430.66286286317
0.2655029296875	0.00154510498046875	2431.54787286093
0.269927978515625	0.0015521240234375	2432.4328828587
0.27435302734375	0.001558837890625	2433.31789285646
0.278778076171875	0.001566162109375	2434.20290285423
0.283203125	0.001573486328125	2435.08791285199
0.287628173828125	0.00158050537109375	2435.97292284976
0.29205322265625	0.0015875244140625	2436.85793284753
0.296478271484375	0.00159393310546875	2437.74294284529
0.3009033203125	0.0016009521484375	2438.62795284306
0.305328369140625	0.001607666015625	2439.51296284082
0.30975341796875	0.0016143798828125	2440.39797283859
0.314178466796875	0.0016229248046875	2441.28298283635
0.318603515625	0.0016290283203125	2442.16799283412
0.323028564453125	0.00163543701171875	2443.05300283188
0.32745361328125	0.001641845703125	2443.93801282965
0.331878662109375	0.00164764404296875	2444.82302282742
0.3363037109375	0.0016546630859375	2445.70803282518
0.340728759765625	0.00166046142578125	2446.59304282295
0.34515380859375	0.00166656494140625	2447.47805282071
0.349578857421875	0.0016729736328125	2448.36306281848
0.35400390625	0.00167694091796875	2449.24807281624
0.358428955078125	0.00168304443359375	2450.13308281401
0.36285400390625	0.00168914794921875	2451.01809281177
0.367279052734375	0.00169403076171875	2451.90310280954
0.3717041015625	0.00169952392578125	2452.78811280731
0.376129150390625	0.001705322265625	2453.67312280507
0.38055419921875	0.001710205078125	2454.55813280284
0.384979248046875	0.001715087890625	2455.4431428006
0.389404296875	0.0017193603515625	2456.32815279837
0.393829345703125	0.001722412109375	2457.21316279613
0.39825439453125	0.0017266845703125	2458.0981727939
0.402679443359375	0.00173065185546875	2458.98318279166
0.4071044921875	0.00173431396484375	2459.86819278943
0.411529541015625	0.00173797607421875	2460.7532027872
0.41595458984375	0.00174102783203125	2461.63821278496
0.420379638671875	0.00174468994140625	2462.52322278273
0.4248046875	0.001748046875	2463.40823278049
0.429229736328125	0.00175048828125	2464.29324277826
0.43365478515625	0.00175323486328125	2465.17825277602
0.438079833984375	0.00175567626953125	2466.06326277379
0.4425048828125	0.0017578125	2466.94827277155
0.446929931640625	0.00176055908203125	2467.83328276932
0.45135498046875	0.00176300048828125	2468.71829276709
0.455780029296875	0.0017645263671875	2469.60330276485
0.460205078125	0.00176666259765625	2470.48831276262
0.464630126953125	0.001768798828125	2471.37332276038
0.46905517578125	0.00177032470703125	2472.25833275815
0.473480224609375	0.00177154541015625	2473.14334275591
0.4779052734375	0.00177337646484375	2474.02835275368
0.482330322265625	0.001773681640625	2474.91336275144
0.48675537109375	0.00177520751953125	2475.79837274921
0.491180419921875	0.001776123046875	2476.68338274698
0.49560546875	0.0017767333984375	2477.56839274474
0.500030517578125	0.00177734375	2478.45340274251
0.50445556640625	0.00177764892578125	2479.33841274027
0.508880615234375	0.0017779541015625	2480.22342273804
0.5133056640625	0.001778564453125	2481.1084327358
0.517730712890625	0.001778564453125	2481.99344273357
0.52215576171875	0.0017791748046875	2482.87845273133
0.526580810546875	0.00177947998046875	2483.7634627291
0.531005859375	0.0017791748046875	2484.64847272687
0.535430908203125	0.00177886962890625	2485.53348272463
0.53985595703125	0.0017791748046875	2486.4184927224
0.544281005859375	0.0017791748046875	2487.30350272016
0.5487060546875	0.001778564453125	2488.18851271793
0.553131103515625	0.0017791748046875	2489.07352271569
0.55755615234375	0.0017791748046875	2489.95853271346
0.561981201171875	0.00177947998046875	2490.84354271122
0.56640625	0.00177947998046875	2491.72855270899
0.570831298828125	0.0017803955078125	2492.61356270676
0.57525634765625	0.001781005859375	2493.49857270452
0.579681396484375	0.00178131103515625	2494.38358270229
0.5841064453125	0.0017822265625	2495.26859270005
0.588531494140625	0.00178192138671875	2496.15360269782
0.59295654296875	0.00178314208984375	2497.03861269558
0.597381591796875	0.00178497314453125	2497.92362269335
0.601806640625	0.001785888671875	2498.80863269111
0.606231689453125	0.0017877197265625	2499.69364268888
0.61065673828125	0.00178955078125	2500.57865268665
0.615081787109375	0.00179107666015625	2501.46366268441
0.6195068359375	0.0017938232421875	2502.34867268218
0.623931884765625	0.001795654296875	2503.23368267994
0.62835693359375	0.001800537109375	2504.11869267771
0.632781982421875	0.001802978515625	2505.00370267547
0.63720703125	0.0018048095703125	2505.88871267324
0.641632080078125	0.00180755615234375	2506.773722671
0.64605712890625	0.0018109130859375	2507.65873266877
0.650482177734375	0.0018145751953125	2508.54374266654
0.6549072265625	0.00181793212890625	2509.4287526643
0.659332275390625	0.00182281494140625	2510.31376266207
0.66375732421875	0.0018267822265625	2511.19877265983
0.668182373046875	0.00183135986328125	2512.0837826576
0.672607421875	0.0018359375	2512.96879265536
0.677032470703125	0.00184112548828125	2513.85380265313
0.68145751953125	0.0018475341796875	2514.73881265089
0.685882568359375	0.00185302734375	2515.62382264866
0.6903076171875	0.0018597412109375	2516.50883264643
0.694732666015625	0.001866455078125	2517.39384264419
0.69915771484375	0.0018743896484375	2518.27885264196
0.703582763671875	0.0018804931640625	2519.16386263972
0.7080078125	0.00188873291015625	2520.04887263749
0.712432861328125	0.00189788818359375	2520.93388263525
0.71685791015625	0.00190704345703125	2521.81889263302
0.721282958984375	0.0019171142578125	2522.70390263078
0.7257080078125	0.0019268798828125	2523.58891262855
0.730133056640625	0.0019384765625	2524.47392262632
0.73455810546875	0.0019500732421875	2525.35893262408
0.738983154296875	0.00196136474609375	2526.24394262185
0.743408203125	0.00197357177734375	2527.12895261961
0.747833251953125	0.00198760986328125	2528.01396261738
0.75225830078125	0.002001953125	2528.89897261514
0.756683349609375	0.00201751708984375	2529.78398261291
0.7611083984375	0.00203399658203125	2530.66899261068
0.765533447265625	0.00205108642578125	2531.55400260844
0.76995849609375	0.0020697021484375	2532.43901260621
0.774383544921875	0.00208892822265625	2533.32402260397
0.77880859375	0.002109375	2534.20903260174
0.783233642578125	0.00213043212890625	2535.0940425995
0.78765869140625	0.0021533203125	2535.97905259727
0.792083740234375	0.00217681884765625	2536.86406259503
0.7965087890625	0.00220245361328125	2537.7490725928
0.800933837890625	0.0022283935546875	2538.63408259056
0.80535888671875	0.00225677490234375	2539.51909258833
0.809783935546875	0.00228607177734375	2540.4041025861
0.814208984375	0.00231597900390625	2541.28911258386
0.818634033203125	0.00234832763671875	2542.17412258163
0.82305908203125	0.00238128662109375	2543.05913257939
0.827484130859375	0.00241729736328125	2543.94414257716
0.8319091796875	0.0024542236328125	2544.82915257492
0.836334228515625	0.00249237060546875	2545.71416257269
0.84075927734375	0.00253326416015625	2546.59917257046
0.845184326171875	0.002574462890625	2547.48418256822
0.849609375	0.0026171875	2548.36919256599
0.854034423828125	0.00266265869140625	2549.25420256375
0.85845947265625	0.00270904541015625	2550.13921256152
0.862884521484375	0.002757568359375	2551.02422255928
0.8673095703125	0.0028076171875	2551.90923255705
0.871734619140625	0.00285888671875	2552.79424255481
0.87615966796875	0.00291351318359375	2553.67925255258
0.880584716796875	0.00296905517578125	2554.56426255035
0.885009765625	0.0030255126953125	2555.44927254811
0.889434814453125	0.0030853271484375	2556.33428254588
0.89385986328125	0.00314544677734375	2557.21929254364
0.898284912109375	0.00320770263671875	2558.10430254141
0.9027099609375	0.00327301025390625	2558.98931253917
0.907135009765625	0.0033380126953125	2559.87432253694
0.91156005859375	0.0034063720703125	2560.7593325347
0.915985107421875	0.0034759521484375	2561.64434253247
0.92041015625	0.0035467529296875	2562.52935253024
0.924835205078125	0.00362091064453125	2563.414362528
0.92926025390625	0.00369537353515625	2564.29937252577
0.933685302734375	0.00377166748046875	2565.18438252353
0.9381103515625	0.00385223388671875	2566.0693925213
0.942535400390625	0.00393157958984375	2566.95440251906
0.94696044921875	0.00401275634765625	2567.83941251683
0.951385498046875	0.00409637451171875	2568.72442251459
0.955810546875	0.00417999267578125	2569.60943251236
0.960235595703125	0.004267578125	2570.49444251013
0.96466064453125	0.00435516357421875	2571.37945250789
0.969085693359375	0.00444427490234375	2572.26446250566
0.9735107421875	0.00453643798828125	2573.14947250342
0.977935791015625	0.0046270751953125	2574.03448250119
0.98236083984375	0.0047216796875	2574.91949249895
0.986785888671875	0.0048193359375	2575.80450249672
0.9912109375	0.0049169921875	2576.68951249448
