Potential applied (V)	WE(1).Current (A)	Time (s)
0.004425048828125	-0.0833282470703125	3843.58364429588
0.00885009765625	-0.0805389404296875	3843.60576929583
0.013275146484375	-0.0781494140625	3843.62789429577
0.0177001953125	-0.0760406494140625	3843.65001929572
0.022125244140625	-0.0741119384765625	3843.67214429566
0.02655029296875	-0.072320556640625	3843.6942692956
0.030975341796875	-0.0706329345703125	3843.71639429555
0.035400390625	-0.0690338134765625	3843.73851929549
0.039825439453125	-0.0675201416015625	3843.76064429544
0.04425048828125	-0.066064453125	3843.78276929538
0.048675537109375	-0.0646728515625	3843.80489429533
0.0531005859375	-0.0633270263671875	3843.82701929527
0.057525634765625	-0.0620452880859375	3843.84914429521
0.06195068359375	-0.060784912109375	3843.87126929516
0.066375732421875	-0.059564208984375	3843.8933942951
0.07080078125	-0.058367919921875	3843.91551929505
0.075225830078125	-0.0572052001953125	3843.93764429499
0.07965087890625	-0.0560791015625	3843.95976929493
0.084075927734375	-0.054962158203125	3843.98189429488
0.0885009765625	-0.05389404296875	3844.00401929482
0.092926025390625	-0.0528289794921875	3844.02614429477
0.09735107421875	-0.051800537109375	3844.04826929471
0.101776123046875	-0.0507781982421875	3844.07039429466
0.106201171875	-0.049798583984375	3844.0925192946
0.110626220703125	-0.0488128662109375	3844.11464429454
0.11505126953125	-0.0478759765625	3844.13676929449
0.119476318359375	-0.046929931640625	3844.15889429443
0.1239013671875	-0.0460174560546875	3844.18101929438
0.128326416015625	-0.0451171875	3844.20314429432
0.13275146484375	-0.04422607421875	3844.22526929426
0.137176513671875	-0.043359375	3844.24739429421
0.1416015625	-0.0424896240234375	3844.26951929415
0.146026611328125	-0.0416534423828125	3844.2916442941
0.15045166015625	-0.040814208984375	3844.31376929404
0.154876708984375	-0.04000244140625	3844.33589429398
0.1593017578125	-0.0391876220703125	3844.35801929393
0.163726806640625	-0.0384033203125	3844.38014429387
0.16815185546875	-0.0376129150390625	3844.40226929382
0.172576904296875	-0.036846923828125	3844.42439429376
0.177001953125	-0.0360809326171875	3844.44651929371
0.181427001953125	-0.0353363037109375	3844.46864429365
0.18585205078125	-0.0345947265625	3844.49076929359
0.190277099609375	-0.0338623046875	3844.51289429354
0.1947021484375	-0.0331451416015625	3844.53501929348
0.199127197265625	-0.0324310302734375	3844.55714429343
0.20355224609375	-0.0317352294921875	3844.57926929337
0.207977294921875	-0.0310333251953125	3844.60139429331
0.21240234375	-0.0303558349609375	3844.62351929326
0.216827392578125	-0.0296722412109375	3844.6456442932
0.22125244140625	-0.029010009765625	3844.66776929315
0.225677490234375	-0.0283477783203125	3844.68989429309
0.2301025390625	-0.02769775390625	3844.71201929304
0.234527587890625	-0.027056884765625	3844.73414429298
0.23895263671875	-0.0264190673828125	3844.75626929292
0.243377685546875	-0.02579345703125	3844.77839429287
0.247802734375	-0.025164794921875	3844.80051929281
0.252227783203125	-0.0245574951171875	3844.82264429276
0.25665283203125	-0.023944091796875	3844.8447692927
0.261077880859375	-0.0233489990234375	3844.86689429264
0.2655029296875	-0.022747802734375	3844.88901929259
0.269927978515625	-0.0221649169921875	3844.91114429253
0.27435302734375	-0.02158203125	3844.93326929248
0.278778076171875	-0.02100830078125	3844.95539429242
0.283203125	-0.0204376220703125	3844.97751929236
0.287628173828125	-0.019879150390625	3844.99964429231
0.29205322265625	-0.0193206787109375	3845.02176929225
0.296478271484375	-0.0187652587890625	3845.0438942922
0.3009033203125	-0.01822509765625	3845.06601929214
0.305328369140625	-0.017681884765625	3845.08814429209
0.30975341796875	-0.0171539306640625	3845.11026929203
0.314178466796875	-0.0166168212890625	3845.13239429197
0.318603515625	-0.0160980224609375	3845.15451929192
0.323028564453125	-0.015576171875	3845.17664429186
0.32745361328125	-0.0150665283203125	3845.19876929181
0.331878662109375	-0.014556884765625	3845.22089429175
0.3363037109375	-0.014056396484375	3845.24301929169
0.340728759765625	-0.0135589599609375	3845.26514429164
0.34515380859375	-0.0130645751953125	3845.28726929158
0.349578857421875	-0.0125762939453125	3845.30939429153
0.35400390625	-0.0120941162109375	3845.33151929147
0.358428955078125	-0.0116180419921875	3845.35364429142
0.36285400390625	-0.011138916015625	3845.37576929136
0.367279052734375	-0.010675048828125	3845.3978942913
0.3717041015625	-0.0102081298828125	3845.42001929125
0.376129150390625	-0.009747314453125	3845.44214429119
0.38055419921875	-0.0092926025390625	3845.46426929114
0.384979248046875	-0.008837890625	3845.48639429108
0.389404296875	-0.008392333984375	3845.50851929102
0.393829345703125	-0.00794677734375	3845.53064429097
0.39825439453125	-0.0075103759765625	3845.55276929091
0.402679443359375	-0.007073974609375	3845.57489429086
0.4071044921875	-0.0066436767578125	3845.5970192908
0.411529541015625	-0.00621337890625	3845.61914429074
0.41595458984375	-0.0057891845703125	3845.64126929069
0.420379638671875	-0.00537109375	3845.66339429063
0.4248046875	-0.00495635986328125	3845.68551929058
0.429229736328125	-0.0045428466796875	3845.70764429052
0.43365478515625	-0.0041357421875	3845.72976929047
0.438079833984375	-0.00373046875	3845.75189429041
0.4425048828125	-0.00332855224609375	3845.77401929035
0.446929931640625	-0.00294219970703125	3845.7961442903
0.45135498046875	-0.0025457763671875	3845.81826929024
0.455780029296875	-0.002154541015625	3845.84039429019
0.460205078125	-0.00176544189453125	3845.86251929013
0.464630126953125	-0.00138092041015625	3845.88464429007
0.46905517578125	-0.000999755859375	3845.90676929002
0.473480224609375	-0.00062164306640625	3845.92889428996
0.4779052734375	-0.00024652099609375	3845.95101928991
0.482330322265625	0.000124755859375	3845.97314428985
0.48675537109375	0.0004925537109375	3845.9952692898
0.491180419921875	0.00085845947265625	3846.01739428974
0.49560546875	0.001220703125	3846.03951928968
0.500030517578125	0.00158111572265625	3846.06164428963
0.50445556640625	0.00193695068359375	3846.08376928957
0.508880615234375	0.0022906494140625	3846.10589428952
0.5133056640625	0.00264007568359375	3846.12801928946
0.517730712890625	0.00298675537109375	3846.1501442894
0.52215576171875	0.003330078125	3846.17226928935
0.526580810546875	0.0036700439453125	3846.19439428929
0.531005859375	0.0040093994140625	3846.21651928924
0.535430908203125	0.004345703125	3846.23864428918
0.53985595703125	0.00467926025390625	3846.26076928913
0.544281005859375	0.0050091552734375	3846.28289428907
0.5487060546875	0.0053369140625	3846.30501928901
0.553131103515625	0.0056610107421875	3846.32714428896
0.55755615234375	0.00598419189453125	3846.3492692889
0.561981201171875	0.00630340576171875	3846.37139428885
0.56640625	0.0066070556640625	3846.39351928879
0.570831298828125	0.0069244384765625	3846.41564428873
0.57525634765625	0.0072357177734375	3846.43776928868
0.579681396484375	0.0075469970703125	3846.45989428862
0.5841064453125	0.00784912109375	3846.48201928857
0.588531494140625	0.0081512451171875	3846.50414428851
0.59295654296875	0.008453369140625	3846.52626928845
0.597381591796875	0.0087554931640625	3846.5483942884
0.601806640625	0.009051513671875	3846.57051928834
0.606231689453125	0.0093475341796875	3846.59264428829
0.61065673828125	0.0096343994140625	3846.61476928823
0.615081787109375	0.0099212646484375	3846.63689428818
0.6195068359375	0.010205078125	3846.65901928812
0.623931884765625	0.01048583984375	3846.68114428806
0.62835693359375	0.010772705078125	3846.70326928801
0.632781982421875	0.01104736328125	3846.72539428795
0.63720703125	0.0113311767578125	3846.7475192879
0.641632080078125	0.011602783203125	3846.76964428784
0.64605712890625	0.01187744140625	3846.79176928778
0.650482177734375	0.01214599609375	3846.81389428773
0.6549072265625	0.0124176025390625	3846.83601928767
0.659332275390625	0.012677001953125	3846.85814428762
0.66375732421875	0.0129425048828125	3846.88026928756
0.668182373046875	0.0132049560546875	3846.90239428751
0.672607421875	0.01346435546875	3846.92451928745
0.677032470703125	0.013720703125	3846.94664428739
0.68145751953125	0.01397705078125	3846.96876928734
0.685882568359375	0.014227294921875	3846.99089428728
0.6903076171875	0.0144775390625	3847.01301928723
0.694732666015625	0.0147308349609375	3847.03514428717
0.69915771484375	0.0149749755859375	3847.05726928711
0.703582763671875	0.01522216796875	3847.07939428706
0.7080078125	0.0154632568359375	3847.101519287
0.712432861328125	0.0157073974609375	3847.12364428695
0.71685791015625	0.0159423828125	3847.14576928689
0.721282958984375	0.0161834716796875	3847.16789428683
0.7257080078125	0.01641845703125	3847.19001928678
0.730133056640625	0.0166534423828125	3847.21214428672
0.73455810546875	0.0168914794921875	3847.23426928667
0.738983154296875	0.017120361328125	3847.25639428661
0.743408203125	0.01734619140625	3847.27851928656
0.747833251953125	0.0175689697265625	3847.3006442865
0.75225830078125	0.0177978515625	3847.32276928644
0.756683349609375	0.0180206298828125	3847.34489428639
0.7611083984375	0.01824951171875	3847.36701928633
0.765533447265625	0.01846923828125	3847.38914428628
0.76995849609375	0.01868896484375	3847.41126928622
0.774383544921875	0.0189056396484375	3847.43339428616
0.77880859375	0.019122314453125	3847.45551928611
0.783233642578125	0.0193359375	3847.47764428605
0.78765869140625	0.0195465087890625	3847.499769286
0.792083740234375	0.0197601318359375	3847.52189428594
0.7965087890625	0.0199676513671875	3847.54401928589
0.800933837890625	0.0201812744140625	3847.56614428583
0.80535888671875	0.020379638671875	3847.58826928577
0.809783935546875	0.0205902099609375	3847.61039428572
0.814208984375	0.02078857421875	3847.63251928566
0.818634033203125	0.02099609375	3847.65464428561
0.82305908203125	0.0211944580078125	3847.67676928555
0.827484130859375	0.0213958740234375	3847.69889428549
0.8319091796875	0.0215911865234375	3847.72101928544
0.836334228515625	0.02178955078125	3847.74314428538
0.84075927734375	0.02198486328125	3847.76526928533
0.845184326171875	0.0221771240234375	3847.78739428527
0.849609375	0.0223724365234375	3847.80951928521
0.854034423828125	0.022564697265625	3847.83164428516
0.85845947265625	0.0227569580078125	3847.8537692851
0.862884521484375	0.0229400634765625	3847.87589428505
0.8673095703125	0.0231353759765625	3847.89801928499
0.871734619140625	0.0233184814453125	3847.92014428494
0.87615966796875	0.023504638671875	3847.94226928488
0.880584716796875	0.0236846923828125	3847.96439428482
0.885009765625	0.023870849609375	3847.98651928477
0.889434814453125	0.024053955078125	3848.00864428471
0.89385986328125	0.0242340087890625	3848.03076928466
0.898284912109375	0.0244171142578125	3848.0528942846
0.9027099609375	0.0245941162109375	3848.07501928454
0.907135009765625	0.0247772216796875	3848.09714428449
0.91156005859375	0.024951171875	3848.11926928443
0.915985107421875	0.0251312255859375	3848.14139428438
0.92041015625	0.0253021240234375	3848.16351928432
0.924835205078125	0.025482177734375	3848.18564428427
0.92926025390625	0.025653076171875	3848.20776928421
0.933685302734375	0.025830078125	3848.22989428415
0.9381103515625	0.0260040283203125	3848.2520192841
0.942535400390625	0.026177978515625	3848.27414428404
0.94696044921875	0.026348876953125	3848.29626928399
0.951385498046875	0.026519775390625	3848.31839428393
0.955810546875	0.0266876220703125	3848.34051928387
0.960235595703125	0.02685546875	3848.36264428382
0.96466064453125	0.0270294189453125	3848.38476928376
0.969085693359375	0.0271942138671875	3848.40689428371
0.9735107421875	0.0273681640625	3848.42901928365
0.977935791015625	0.02752685546875	3848.45114428359
0.98236083984375	0.02769775390625	3848.47326928354
0.986785888671875	0.027862548828125	3848.49539428348
0.9912109375	0.028033447265625	3848.51751928343
0.995635986328125	0.0281951904296875	3848.53964428337
1.00006103515625	0.0283599853515625	3848.56176928332
0.995635986328125	0.02762451171875	3848.58389428326
0.9912109375	0.026910400390625	3848.6060192832
0.986785888671875	0.0262237548828125	3848.62814428315
0.98236083984375	0.0255401611328125	3848.65026928309
0.977935791015625	0.024884033203125	3848.67239428304
0.9735107421875	0.0242279052734375	3848.69451928298
0.969085693359375	0.0235931396484375	3848.71664428292
0.96466064453125	0.02296142578125	3848.73876928287
0.960235595703125	0.0223480224609375	3848.76089428281
0.955810546875	0.0217376708984375	3848.78301928276
0.951385498046875	0.021136474609375	3848.8051442827
0.94696044921875	0.02054443359375	3848.82726928265
0.942535400390625	0.0199615478515625	3848.84939428259
0.9381103515625	0.0193878173828125	3848.87151928253
0.933685302734375	0.0188140869140625	3848.89364428248
0.92926025390625	0.018255615234375	3848.91576928242
0.924835205078125	0.0176971435546875	3848.93789428237
0.92041015625	0.017156982421875	3848.96001928231
0.915985107421875	0.0166107177734375	3848.98214428225
0.91156005859375	0.0160797119140625	3849.0042692822
0.907135009765625	0.0155517578125	3849.02639428214
0.9027099609375	0.0150299072265625	3849.04851928209
0.898284912109375	0.01451416015625	3849.07064428203
0.89385986328125	0.0140045166015625	3849.09276928198
0.889434814453125	0.0135040283203125	3849.11489428192
0.885009765625	0.01300048828125	3849.13701928186
0.880584716796875	0.0125091552734375	3849.15914428181
0.87615966796875	0.012017822265625	3849.18126928175
0.871734619140625	0.01153564453125	3849.2033942817
0.8673095703125	0.0110565185546875	3849.22551928164
0.862884521484375	0.0105865478515625	3849.24764428158
0.85845947265625	0.01011962890625	3849.26976928153
0.854034423828125	0.0096527099609375	3849.29189428147
0.849609375	0.0091949462890625	3849.31401928142
0.845184326171875	0.008740234375	3849.33614428136
0.84075927734375	0.00828857421875	3849.3582692813
0.836334228515625	0.007843017578125	3849.38039428125
0.8319091796875	0.007403564453125	3849.40251928119
0.827484130859375	0.0069671630859375	3849.42464428114
0.82305908203125	0.0065338134765625	3849.44676928108
0.818634033203125	0.006103515625	3849.46889428103
0.814208984375	0.0056793212890625	3849.49101928097
0.809783935546875	0.0052581787109375	3849.51314428091
0.80535888671875	0.00484283447265625	3849.53526928086
0.800933837890625	0.0044293212890625	3849.5573942808
0.7965087890625	0.0040203857421875	3849.57951928075
0.792083740234375	0.00361541748046875	3849.60164428069
0.78765869140625	0.003214111328125	3849.62376928063
0.783233642578125	0.0028204345703125	3849.64589428058
0.77880859375	0.00242462158203125	3849.66801928052
0.774383544921875	0.0020343017578125	3849.69014428047
0.76995849609375	0.00164581298828125	3849.71226928041
0.765533447265625	0.0012628173828125	3849.73439428035
0.7611083984375	0.00088165283203125	3849.7565192803
0.756683349609375	0.00050506591796875	3849.77864428024
0.75225830078125	0.00013116455078125	3849.80076928019
0.747833251953125	-0.000239410400390625	3849.82289428013
0.743408203125	-0.00060546875	3849.84501928008
0.738983154296875	-0.00096771240234375	3849.86714428002
0.73455810546875	-0.001328125	3849.88926927996
0.730133056640625	-0.00168609619140625	3849.91139427991
0.7257080078125	-0.0020391845703125	3849.93351927985
0.721282958984375	-0.0023907470703125	3849.9556442798
0.71685791015625	-0.002738037109375	3849.97776927974
0.712432861328125	-0.00308319091796875	3849.99989427968
0.7080078125	-0.00342559814453125	3850.02201927963
0.703582763671875	-0.003763427734375	3850.04414427957
0.69915771484375	-0.00409942626953125	3850.06626927952
0.694732666015625	-0.00443115234375	3850.08839427946
0.6903076171875	-0.00476287841796875	3850.11051927941
0.685882568359375	-0.00508880615234375	3850.13264427935
0.68145751953125	-0.00541412353515625	3850.15476927929
0.677032470703125	-0.00573516845703125	3850.17689427924
0.672607421875	-0.00605438232421875	3850.19901927918
0.668182373046875	-0.00634765625	3850.22114427913
0.66375732421875	-0.006658935546875	3850.24326927907
0.659332275390625	-0.00697021484375	3850.26539427901
0.6549072265625	-0.007275390625	3850.28751927896
0.650482177734375	-0.0075836181640625	3850.3096442789
0.64605712890625	-0.007879638671875	3850.33176927885
0.641632080078125	-0.0081817626953125	3850.35389427879
0.63720703125	-0.008477783203125	3850.37601927873
0.632781982421875	-0.0087738037109375	3850.39814427868
0.62835693359375	-0.009063720703125	3850.42026927862
0.623931884765625	-0.0093597412109375	3850.44239427857
0.6195068359375	-0.0096466064453125	3850.46451927851
0.615081787109375	-0.009930419921875	3850.48664427846
0.61065673828125	-0.010211181640625	3850.5087692784
0.606231689453125	-0.010491943359375	3850.53089427834
0.601806640625	-0.010772705078125	3850.55301927829
0.597381591796875	-0.011041259765625	3850.57514427823
0.59295654296875	-0.01131591796875	3850.59726927818
0.588531494140625	-0.0115875244140625	3850.61939427812
0.5841064453125	-0.01185302734375	3850.64151927806
0.579681396484375	-0.01212158203125	3850.66364427801
0.57525634765625	-0.0123870849609375	3850.68576927795
0.570831298828125	-0.012646484375	3850.7078942779
0.56640625	-0.012908935546875	3850.73001927784
0.561981201171875	-0.013165283203125	3850.75214427779
0.55755615234375	-0.013421630859375	3850.77426927773
0.553131103515625	-0.013677978515625	3850.79639427767
0.5487060546875	-0.01392822265625	3850.81851927762
0.544281005859375	-0.014178466796875	3850.84064427756
0.53985595703125	-0.0144256591796875	3850.86276927751
0.535430908203125	-0.0146728515625	3850.88489427745
0.531005859375	-0.0149139404296875	3850.90701927739
0.526580810546875	-0.0151580810546875	3850.92914427734
0.52215576171875	-0.0153961181640625	3850.95126927728
0.517730712890625	-0.0156341552734375	3850.97339427723
0.5133056640625	-0.0158721923828125	3850.99551927717
0.508880615234375	-0.016107177734375	3851.01764427712
0.50445556640625	-0.0163421630859375	3851.03976927706
0.500030517578125	-0.016571044921875	3851.061894277
0.49560546875	-0.01680908203125	3851.08401927695
0.491180419921875	-0.017034912109375	3851.10614427689
0.48675537109375	-0.0172637939453125	3851.12826927684
0.482330322265625	-0.0174896240234375	3851.15039427678
0.4779052734375	-0.01771240234375	3851.17251927672
0.473480224609375	-0.01793212890625	3851.19464427667
0.46905517578125	-0.0181549072265625	3851.21676927661
0.464630126953125	-0.01837158203125	3851.23889427656
0.460205078125	-0.01859130859375	3851.2610192765
0.455780029296875	-0.0188079833984375	3851.28314427644
0.45135498046875	-0.0190216064453125	3851.30526927639
0.446929931640625	-0.01923828125	3851.32739427633
0.4425048828125	-0.01944580078125	3851.34951927628
0.438079833984375	-0.019659423828125	3851.37164427622
0.43365478515625	-0.019866943359375	3851.39376927617
0.429229736328125	-0.02008056640625	3851.41589427611
0.4248046875	-0.0202850341796875	3851.43801927605
0.420379638671875	-0.020489501953125	3851.460144276
0.41595458984375	-0.0206939697265625	3851.48226927594
0.411529541015625	-0.0208953857421875	3851.50439427589
0.4071044921875	-0.0210968017578125	3851.52651927583
0.402679443359375	-0.021295166015625	3851.54864427577
0.39825439453125	-0.02149658203125	3851.57076927572
0.393829345703125	-0.0216888427734375	3851.59289427566
0.389404296875	-0.02188720703125	3851.61501927561
0.384979248046875	-0.022076416015625	3851.63714427555
0.38055419921875	-0.0222747802734375	3851.6592692755
0.376129150390625	-0.0224639892578125	3851.68139427544
0.3717041015625	-0.0226593017578125	3851.70351927538
0.367279052734375	-0.022845458984375	3851.72564427533
0.36285400390625	-0.02303466796875	3851.74776927527
0.358428955078125	-0.023223876953125	3851.76989427522
0.35400390625	-0.0234100341796875	3851.79201927516
0.349578857421875	-0.023590087890625	3851.8141442751
0.34515380859375	-0.023773193359375	3851.83626927505
0.340728759765625	-0.0239593505859375	3851.85839427499
0.3363037109375	-0.024139404296875	3851.88051927494
0.331878662109375	-0.024322509765625	3851.90264427488
0.32745361328125	-0.02449951171875	3851.92476927482
0.323028564453125	-0.0246826171875	3851.94689427477
0.318603515625	-0.0248565673828125	3851.96901927471
0.314178466796875	-0.02503662109375	3851.99114427466
0.30975341796875	-0.025213623046875	3852.0132692746
0.305328369140625	-0.025390625	3852.03539427455
0.3009033203125	-0.0255645751953125	3852.05751927449
0.296478271484375	-0.025738525390625	3852.07964427443
0.29205322265625	-0.025909423828125	3852.10176927438
0.287628173828125	-0.026080322265625	3852.12389427432
0.283203125	-0.0262542724609375	3852.14601927427
0.278778076171875	-0.026422119140625	3852.16814427421
0.27435302734375	-0.026593017578125	3852.19026927415
0.269927978515625	-0.0267578125	3852.2123942741
0.2655029296875	-0.0269287109375	3852.23451927404
0.261077880859375	-0.027093505859375	3852.25664427399
0.25665283203125	-0.0272613525390625	3852.27876927393
0.252227783203125	-0.027423095703125	3852.30089427388
0.247802734375	-0.027587890625	3852.32301927382
0.243377685546875	-0.027752685546875	3852.34514427376
0.23895263671875	-0.027911376953125	3852.36726927371
0.234527587890625	-0.028076171875	3852.38939427365
0.2301025390625	-0.0282318115234375	3852.4115192736
0.225677490234375	-0.0283966064453125	3852.43364427354
0.22125244140625	-0.02855224609375	3852.45576927348
0.216827392578125	-0.028717041015625	3852.47789427343
0.21240234375	-0.02886962890625	3852.50001927337
0.207977294921875	-0.0290313720703125	3852.52214427332
0.20355224609375	-0.029180908203125	3852.54426927326
0.199127197265625	-0.0293426513671875	3852.5663942732
0.1947021484375	-0.0294952392578125	3852.58851927315
0.190277099609375	-0.02965087890625	3852.61064427309
0.18585205078125	-0.0298004150390625	3852.63276927304
0.181427001953125	-0.029949951171875	3852.65489427298
0.177001953125	-0.030108642578125	3852.67701927293
0.172576904296875	-0.0302520751953125	3852.69914427287
0.16815185546875	-0.03040771484375	3852.72126927281
0.163726806640625	-0.0305511474609375	3852.74339427276
0.1593017578125	-0.030706787109375	3852.7655192727
0.154876708984375	-0.0308502197265625	3852.78764427265
0.15045166015625	-0.0310028076171875	3852.80976927259
0.146026611328125	-0.031146240234375	3852.83189427253
0.1416015625	-0.031292724609375	3852.85401927248
0.137176513671875	-0.031439208984375	3852.87614427242
0.13275146484375	-0.031585693359375	3852.89826927237
0.128326416015625	-0.031732177734375	3852.92039427231
0.1239013671875	-0.03187255859375	3852.94251927226
0.119476318359375	-0.03201904296875	3852.9646442722
0.11505126953125	-0.0321533203125	3852.98676927214
0.110626220703125	-0.0323028564453125	3853.00889427209
0.106201171875	-0.0324371337890625	3853.03101927203
0.101776123046875	-0.032586669921875	3853.05314427198
0.09735107421875	-0.032720947265625	3853.07526927192
0.092926025390625	-0.032861328125	3853.09739427186
0.0885009765625	-0.0329986572265625	3853.11951927181
0.084075927734375	-0.033135986328125	3853.14164427175
0.07965087890625	-0.0332763671875	3853.1637692717
0.075225830078125	-0.03341064453125	3853.18589427164
0.07080078125	-0.0335540771484375	3853.20801927158
0.066375732421875	-0.033685302734375	3853.23014427153
0.06195068359375	-0.0338287353515625	3853.25226927147
0.057525634765625	-0.0339569091796875	3853.27439427142
0.0531005859375	-0.03409423828125	3853.29651927136
0.048675537109375	-0.0342254638671875	3853.31864427131
0.04425048828125	-0.0343597412109375	3853.34076927125
0.039825439453125	-0.034490966796875	3853.36289427119
0.035400390625	-0.034625244140625	3853.38501927114
0.030975341796875	-0.0347564697265625	3853.40714427108
0.02655029296875	-0.0348876953125	3853.42926927103
0.022125244140625	-0.0350250244140625	3853.45139427097
0.0177001953125	-0.035150146484375	3853.47351927091
0.013275146484375	-0.035284423828125	3853.49564427086
0.00885009765625	-0.0354095458984375	3853.5177692708
0.004425048828125	-0.0355438232421875	3853.53989427075
0	-0.0356658935546875	3853.56201927069
0.004425048828125	-0.03489990234375	3853.58414427064
0.00885009765625	-0.03414306640625	3853.60626927058
0.013275146484375	-0.0334197998046875	3853.62839427052
0.0177001953125	-0.032696533203125	3853.65051927047
0.022125244140625	-0.032000732421875	3853.67264427041
0.02655029296875	-0.0313079833984375	3853.69476927036
0.030975341796875	-0.03062744140625	3853.7168942703
0.035400390625	-0.029962158203125	3853.73901927024
0.039825439453125	-0.0292999267578125	3853.76114427019
0.04425048828125	-0.028656005859375	3853.78326927013
0.048675537109375	-0.0280120849609375	3853.80539427008
0.0531005859375	-0.0273834228515625	3853.82751927002
0.057525634765625	-0.0267578125	3853.84964426997
0.06195068359375	-0.0261444091796875	3853.87176926991
0.066375732421875	-0.0255340576171875	3853.89389426985
0.07080078125	-0.02493896484375	3853.9160192698
0.075225830078125	-0.0243408203125	3853.93814426974
0.07965087890625	-0.0237579345703125	3853.96026926969
0.084075927734375	-0.0231781005859375	3853.98239426963
0.0885009765625	-0.022601318359375	3854.00451926957
0.092926025390625	-0.0220367431640625	3854.02664426952
0.09735107421875	-0.0214691162109375	3854.04876926946
0.101776123046875	-0.0209228515625	3854.07089426941
0.106201171875	-0.0203643798828125	3854.09301926935
0.110626220703125	-0.019830322265625	3854.11514426929
0.11505126953125	-0.0192901611328125	3854.13726926924
0.119476318359375	-0.0187591552734375	3854.15939426918
0.1239013671875	-0.0182342529296875	3854.18151926913
0.128326416015625	-0.0177093505859375	3854.20364426907
0.13275146484375	-0.017193603515625	3854.22576926902
0.137176513671875	-0.016680908203125	3854.24789426896
0.1416015625	-0.0161773681640625	3854.2700192689
0.146026611328125	-0.0156707763671875	3854.29214426885
0.15045166015625	-0.015179443359375	3854.31426926879
0.154876708984375	-0.0146820068359375	3854.33639426874
0.1593017578125	-0.0141998291015625	3854.35851926868
0.163726806640625	-0.013714599609375	3854.38064426862
0.16815185546875	-0.0132415771484375	3854.40276926857
0.172576904296875	-0.0127593994140625	3854.42489426851
0.177001953125	-0.0122955322265625	3854.44701926846
0.181427001953125	-0.0118255615234375	3854.4691442684
0.18585205078125	-0.0113677978515625	3854.49126926835
0.190277099609375	-0.0109130859375	3854.51339426829
0.1947021484375	-0.010455322265625	3854.53551926823
0.199127197265625	-0.010009765625	3854.55764426818
0.20355224609375	-0.0095611572265625	3854.57976926812
0.207977294921875	-0.009124755859375	3854.60189426807
0.21240234375	-0.008685302734375	3854.62401926801
0.216827392578125	-0.008251953125	3854.64614426795
0.22125244140625	-0.0078216552734375	3854.6682692679
0.225677490234375	-0.0073974609375	3854.69039426784
0.2301025390625	-0.006976318359375	3854.71251926779
0.234527587890625	-0.00655517578125	3854.73464426773
0.23895263671875	-0.0061431884765625	3854.75676926767
0.243377685546875	-0.0057281494140625	3854.77889426762
0.247802734375	-0.005322265625	3854.80101926756
0.252227783203125	-0.00491668701171875	3854.82314426751
0.25665283203125	-0.00451934814453125	3854.84526926745
0.261077880859375	-0.00411773681640625	3854.8673942674
0.2655029296875	-0.0037261962890625	3854.88951926734
0.269927978515625	-0.0033331298828125	3854.91164426728
0.27435302734375	-0.0029583740234375	3854.93376926723
0.278778076171875	-0.00257049560546875	3854.95589426717
0.283203125	-0.0021893310546875	3854.97801926712
0.287628173828125	-0.00180877685546875	3855.00014426706
0.29205322265625	-0.00143280029296875	3855.022269267
0.296478271484375	-0.0010595703125	3855.04439426695
0.3009033203125	-0.000689697265625	3855.06651926689
0.305328369140625	-0.000322662353515625	3855.08864426684
0.30975341796875	4.1229248046875E-05	3855.11076926678
0.314178466796875	0.000405853271484375	3855.13289426673
0.318603515625	0.0007635498046875	3855.15501926667
0.323028564453125	0.0011187744140625	3855.17714426661
0.32745361328125	0.001470947265625	3855.19926926656
0.331878662109375	0.00182220458984375	3855.2213942665
0.3363037109375	0.0021685791015625	3855.24351926645
0.340728759765625	0.00251434326171875	3855.26564426639
0.34515380859375	0.00285491943359375	3855.28776926633
0.349578857421875	0.003194580078125	3855.30989426628
0.35400390625	0.003526611328125	3855.33201926622
0.358428955078125	0.00385894775390625	3855.35414426617
0.36285400390625	0.0041912841796875	3855.37626926611
0.367279052734375	0.004520263671875	3855.39839426605
0.3717041015625	0.00484710693359375	3855.420519266
0.376129150390625	0.00516937255859375	3855.44264426594
0.38055419921875	0.00549224853515625	3855.46476926589
0.384979248046875	0.0058087158203125	3855.48689426583
0.389404296875	0.00612701416015625	3855.50901926578
0.393829345703125	0.006427001953125	3855.53114426572
0.39825439453125	0.0067413330078125	3855.55326926566
0.402679443359375	0.0070465087890625	3855.57539426561
0.4071044921875	0.007354736328125	3855.59751926555
0.411529541015625	0.0076568603515625	3855.6196442655
0.41595458984375	0.0079559326171875	3855.64176926544
0.420379638671875	0.0082550048828125	3855.66389426538
0.4248046875	0.008551025390625	3855.68601926533
0.429229736328125	0.0088470458984375	3855.70814426527
0.43365478515625	0.009136962890625	3855.73026926522
0.438079833984375	0.0094268798828125	3855.75239426516
0.4425048828125	0.0097137451171875	3855.77451926511
0.446929931640625	0.0100006103515625	3855.79664426505
0.45135498046875	0.0102813720703125	3855.81876926499
0.455780029296875	0.010565185546875	3855.84089426494
0.460205078125	0.010845947265625	3855.86301926488
0.464630126953125	0.01112060546875	3855.88514426483
0.46905517578125	0.011395263671875	3855.90726926477
0.473480224609375	0.0116668701171875	3855.92939426471
0.4779052734375	0.0119415283203125	3855.95151926466
0.482330322265625	0.01220703125	3855.9736442646
0.48675537109375	0.0124786376953125	3855.99576926455
0.491180419921875	0.0127349853515625	3856.01789426449
0.49560546875	0.0130035400390625	3856.04001926443
0.500030517578125	0.013262939453125	3856.06214426438
0.50445556640625	0.0135223388671875	3856.08426926432
0.508880615234375	0.0137786865234375	3856.10639426427
0.5133056640625	0.0140350341796875	3856.12851926421
0.517730712890625	0.0142852783203125	3856.15064426416
0.52215576171875	0.0145355224609375	3856.1727692641
0.526580810546875	0.014788818359375	3856.19489426404
0.531005859375	0.015032958984375	3856.21701926399
0.535430908203125	0.0152801513671875	3856.23914426393
0.53985595703125	0.015521240234375	3856.26126926388
0.544281005859375	0.015765380859375	3856.28339426382
0.5487060546875	0.0160003662109375	3856.30551926376
0.553131103515625	0.016241455078125	3856.32764426371
0.55755615234375	0.016473388671875	3856.34976926365
0.561981201171875	0.01671142578125	3856.3718942636
0.56640625	0.016943359375	3856.39401926354
0.570831298828125	0.01717529296875	3856.41614426348
0.57525634765625	0.017401123046875	3856.43826926343
0.579681396484375	0.017626953125	3856.46039426337
0.5841064453125	0.0178619384765625	3856.48251926332
0.588531494140625	0.0180816650390625	3856.50464426326
0.59295654296875	0.0183135986328125	3856.52676926321
0.597381591796875	0.0185333251953125	3856.54889426315
0.601806640625	0.018756103515625	3856.57101926309
0.606231689453125	0.0189727783203125	3856.59314426304
0.61065673828125	0.0191925048828125	3856.61526926298
0.615081787109375	0.0194091796875	3856.63739426293
0.6195068359375	0.019622802734375	3856.65951926287
0.623931884765625	0.01983642578125	3856.68164426282
0.62835693359375	0.0200531005859375	3856.70376926276
0.632781982421875	0.0202667236328125	3856.7258942627
0.63720703125	0.020465087890625	3856.74801926265
0.641632080078125	0.0206756591796875	3856.77014426259
0.64605712890625	0.020880126953125	3856.79226926254
0.650482177734375	0.021087646484375	3856.81439426248
0.6549072265625	0.021282958984375	3856.83651926242
0.659332275390625	0.021484375	3856.85864426237
0.66375732421875	0.0216796875	3856.88076926231
0.668182373046875	0.0218780517578125	3856.90289426226
0.672607421875	0.022076416015625	3856.9250192622
0.677032470703125	0.0222747802734375	3856.94714426214
0.68145751953125	0.0224700927734375	3856.96926926209
0.685882568359375	0.0226593017578125	3856.99139426203
0.6903076171875	0.0228515625	3857.01351926198
0.694732666015625	0.023040771484375	3857.03564426192
0.69915771484375	0.0232330322265625	3857.05776926187
0.703582763671875	0.0234130859375	3857.07989426181
0.7080078125	0.0235992431640625	3857.10201926175
0.712432861328125	0.023779296875	3857.1241442617
0.71685791015625	0.0239654541015625	3857.14626926164
0.721282958984375	0.0241485595703125	3857.16839426159
0.7257080078125	0.0243255615234375	3857.19051926153
0.730133056640625	0.024505615234375	3857.21264426147
0.73455810546875	0.0246826171875	3857.23476926142
0.738983154296875	0.0248626708984375	3857.25689426136
0.743408203125	0.0250274658203125	3857.27901926131
0.747833251953125	0.02520751953125	3857.30114426125
0.75225830078125	0.0253753662109375	3857.3232692612
0.756683349609375	0.0255523681640625	3857.34539426114
0.7611083984375	0.0257171630859375	3857.36751926108
0.765533447265625	0.02589111328125	3857.38964426103
0.76995849609375	0.026055908203125	3857.41176926097
0.774383544921875	0.0262237548828125	3857.43389426092
0.77880859375	0.0263885498046875	3857.45601926086
0.783233642578125	0.0265533447265625	3857.4781442608
0.78765869140625	0.026715087890625	3857.50026926075
0.792083740234375	0.026873779296875	3857.52239426069
0.7965087890625	0.02703857421875	3857.54451926064
0.800933837890625	0.0271942138671875	3857.56664426058
0.80535888671875	0.0273590087890625	3857.58876926052
0.809783935546875	0.027508544921875	3857.61089426047
0.814208984375	0.02767333984375	3857.63301926041
0.818634033203125	0.0278228759765625	3857.65514426036
0.82305908203125	0.0279815673828125	3857.6772692603
0.827484130859375	0.028131103515625	3857.69939426025
0.8319091796875	0.02828369140625	3857.72151926019
0.836334228515625	0.0284332275390625	3857.74364426013
0.84075927734375	0.028582763671875	3857.76576926008
0.845184326171875	0.0287353515625	3857.78789426002
0.849609375	0.0288818359375	3857.81001925997
0.854034423828125	0.0290313720703125	3857.83214425991
0.85845947265625	0.0291748046875	3857.85426925985
0.862884521484375	0.0293243408203125	3857.8763942598
0.8673095703125	0.029461669921875	3857.89851925974
0.871734619140625	0.0296142578125	3857.92064425969
0.87615966796875	0.0297454833984375	3857.94276925963
0.880584716796875	0.0298919677734375	3857.96489425957
0.885009765625	0.0300323486328125	3857.98701925952
0.889434814453125	0.0301727294921875	3858.00914425946
0.89385986328125	0.030316162109375	3858.03126925941
0.898284912109375	0.030450439453125	3858.05339425935
0.9027099609375	0.0305908203125	3858.0755192593
0.907135009765625	0.03072509765625	3858.09764425924
0.91156005859375	0.030865478515625	3858.11976925918
0.915985107421875	0.0309967041015625	3858.14189425913
0.92041015625	0.0311370849609375	3858.16401925907
0.924835205078125	0.03126220703125	3858.18614425902
0.92926025390625	0.031402587890625	3858.20826925896
0.933685302734375	0.03153076171875	3858.2303942589
0.9381103515625	0.031671142578125	3858.25251925885
0.942535400390625	0.0318023681640625	3858.27464425879
0.94696044921875	0.03193359375	3858.29676925874
0.951385498046875	0.0320648193359375	3858.31889425868
0.955810546875	0.0321929931640625	3858.34101925863
0.960235595703125	0.0323272705078125	3858.36314425857
0.96466064453125	0.0324493408203125	3858.38526925851
0.969085693359375	0.0325836181640625	3858.40739425846
0.9735107421875	0.032708740234375	3858.4295192584
0.977935791015625	0.0328369140625	3858.45164425835
0.98236083984375	0.032958984375	3858.47376925829
0.986785888671875	0.03309326171875	3858.49589425823
0.9912109375	0.03321533203125	3858.51801925818
0.995635986328125	0.033343505859375	3858.54014425812
1.00006103515625	0.0334716796875	3858.56226925807
0.995635986328125	0.0326934814453125	3858.58439425801
0.9912109375	0.0319488525390625	3858.60651925795
0.986785888671875	0.0312103271484375	3858.6286442579
0.98236083984375	0.0305023193359375	3858.65076925784
0.977935791015625	0.029791259765625	3858.67289425779
0.9735107421875	0.02911376953125	3858.69501925773
0.969085693359375	0.02843017578125	3858.71714425768
0.96466064453125	0.0277740478515625	3858.73926925762
0.960235595703125	0.0271148681640625	3858.76139425756
0.955810546875	0.02647705078125	3858.78351925751
0.951385498046875	0.0258392333984375	3858.80564425745
0.94696044921875	0.025213623046875	3858.8277692574
0.942535400390625	0.02459716796875	3858.84989425734
0.9381103515625	0.02398681640625	3858.87201925728
0.933685302734375	0.023382568359375	3858.89414425723
0.92926025390625	0.022784423828125	3858.91626925717
0.924835205078125	0.022198486328125	3858.93839425712
0.92041015625	0.0216156005859375	3858.96051925706
0.915985107421875	0.0210479736328125	3858.98264425701
0.91156005859375	0.0204742431640625	3859.00476925695
0.907135009765625	0.019921875	3859.02689425689
0.9027099609375	0.019366455078125	3859.04901925684
0.898284912109375	0.018817138671875	3859.07114425678
0.89385986328125	0.0182769775390625	3859.09326925673
0.889434814453125	0.0177398681640625	3859.11539425667
0.885009765625	0.0172119140625	3859.13751925661
0.880584716796875	0.01668701171875	3859.15964425656
0.87615966796875	0.0161712646484375	3859.1817692565
0.871734619140625	0.015655517578125	3859.20389425645
0.8673095703125	0.0151519775390625	3859.22601925639
0.862884521484375	0.0146453857421875	3859.24814425633
0.85845947265625	0.0141510009765625	3859.27026925628
0.854034423828125	0.01365966796875	3859.29239425622
0.849609375	0.0131744384765625	3859.31451925617
0.845184326171875	0.012689208984375	3859.33664425611
0.84075927734375	0.012213134765625	3859.35876925606
0.836334228515625	0.0117401123046875	3859.380894256
0.8319091796875	0.0112701416015625	3859.40301925594
0.827484130859375	0.0108123779296875	3859.42514425589
0.82305908203125	0.0103485107421875	3859.44726925583
0.818634033203125	0.0098968505859375	3859.46939425578
0.814208984375	0.009442138671875	3859.49151925572
0.809783935546875	0.0089996337890625	3859.51364425566
0.80535888671875	0.00855712890625	3859.53576925561
0.800933837890625	0.00811767578125	3859.55789425555
0.7965087890625	0.0076873779296875	3859.5800192555
0.792083740234375	0.007257080078125	3859.60214425544
0.78765869140625	0.006829833984375	3859.62426925539
0.783233642578125	0.0064056396484375	3859.64639425533
0.77880859375	0.0059906005859375	3859.66851925527
0.774383544921875	0.005572509765625	3859.69064425522
0.76995849609375	0.0051666259765625	3859.71276925516
0.765533447265625	0.004755859375	3859.73489425511
0.7611083984375	0.00435577392578125	3859.75701925505
0.756683349609375	0.0039544677734375	3859.77914425499
0.75225830078125	0.00355987548828125	3859.80126925494
0.747833251953125	0.00316802978515625	3859.82339425488
0.743408203125	0.00278106689453125	3859.84551925483
0.738983154296875	0.00239837646484375	3859.86764425477
0.73455810546875	0.00201446533203125	3859.88976925472
0.730133056640625	0.0016357421875	3859.91189425466
0.7257080078125	0.00125885009765625	3859.9340192546
0.721282958984375	0.000887451171875	3859.95614425455
0.71685791015625	0.00051666259765625	3859.97826925449
0.712432861328125	0.000152435302734375	3860.00039425444
0.7080078125	-0.00021112060546875	3860.02251925438
0.703582763671875	-0.000570068359375	3860.04464425432
0.69915771484375	-0.00092620849609375	3860.06676925427
0.694732666015625	-0.00127960205078125	3860.08889425421
0.6903076171875	-0.001629638671875	3860.11101925416
0.685882568359375	-0.0019781494140625	3860.1331442541
0.68145751953125	-0.00232147216796875	3860.15526925404
0.677032470703125	-0.0026641845703125	3860.17739425399
0.672607421875	-0.0030010986328125	3860.19951925393
0.668182373046875	-0.0033380126953125	3860.22164425388
0.66375732421875	-0.00367034912109375	3860.24376925382
0.659332275390625	-0.0040008544921875	3860.26589425377
0.6549072265625	-0.00432830810546875	3860.28801925371
0.650482177734375	-0.00465240478515625	3860.31014425365
0.64605712890625	-0.0049755859375	3860.3322692536
0.641632080078125	-0.0052935791015625	3860.35439425354
0.63720703125	-0.00561126708984375	3860.37651925349
0.632781982421875	-0.00592376708984375	3860.39864425343
0.62835693359375	-0.006236572265625	3860.42076925337
0.623931884765625	-0.006524658203125	3860.44289425332
0.6195068359375	-0.0068328857421875	3860.46501925326
0.615081787109375	-0.007135009765625	3860.48714425321
0.61065673828125	-0.00743408203125	3860.50926925315
0.606231689453125	-0.007733154296875	3860.5313942531
0.601806640625	-0.0080230712890625	3860.55351925304
0.597381591796875	-0.008319091796875	3860.57564425298
0.59295654296875	-0.0086090087890625	3860.59776925293
0.588531494140625	-0.00889892578125	3860.61989425287
0.5841064453125	-0.0091827392578125	3860.64201925282
0.579681396484375	-0.009466552734375	3860.66414425276
0.57525634765625	-0.009747314453125	3860.6862692527
0.570831298828125	-0.010028076171875	3860.70839425265
0.56640625	-0.010302734375	3860.73051925259
0.561981201171875	-0.0105804443359375	3860.75264425254
0.55755615234375	-0.01085205078125	3860.77476925248
0.553131103515625	-0.0111175537109375	3860.79689425242
0.5487060546875	-0.01138916015625	3860.81901925237
0.544281005859375	-0.0116546630859375	3860.84114425231
0.53985595703125	-0.011920166015625	3860.86326925226
0.535430908203125	-0.0121795654296875	3860.8853942522
0.531005859375	-0.012445068359375	3860.90751925215
0.526580810546875	-0.0126983642578125	3860.92964425209
0.52215576171875	-0.012957763671875	3860.95176925203
0.517730712890625	-0.013214111328125	3860.97389425198
0.5133056640625	-0.0134674072265625	3860.99601925192
0.508880615234375	-0.0137176513671875	3861.01814425187
0.50445556640625	-0.01396484375	3861.04026925181
0.500030517578125	-0.014208984375	3861.06239425175
0.49560546875	-0.014453125	3861.0845192517
0.491180419921875	-0.0147003173828125	3861.10664425164
0.48675537109375	-0.0149383544921875	3861.12876925159
0.482330322265625	-0.0151824951171875	3861.15089425153
0.4779052734375	-0.0154205322265625	3861.17301925148
0.473480224609375	-0.015655517578125	3861.19514425142
0.46905517578125	-0.0158905029296875	3861.21726925136
0.464630126953125	-0.01612548828125	3861.23939425131
0.460205078125	-0.0163604736328125	3861.26151925125
0.455780029296875	-0.0165924072265625	3861.2836442512
0.45135498046875	-0.0168243408203125	3861.30576925114
0.446929931640625	-0.017047119140625	3861.32789425108
0.4425048828125	-0.0172698974609375	3861.35001925103
0.438079833984375	-0.01749267578125	3861.37214425097
0.43365478515625	-0.0177215576171875	3861.39426925092
0.429229736328125	-0.017938232421875	3861.41639425086
0.4248046875	-0.0181640625	3861.4385192508
0.420379638671875	-0.0183807373046875	3861.46064425075
0.41595458984375	-0.0186004638671875	3861.48276925069
0.411529541015625	-0.01881103515625	3861.50489425064
0.4071044921875	-0.0190277099609375	3861.52701925058
0.402679443359375	-0.019244384765625	3861.54914425053
0.39825439453125	-0.0194549560546875	3861.57126925047
0.393829345703125	-0.0196685791015625	3861.59339425041
0.389404296875	-0.0198760986328125	3861.61551925036
0.384979248046875	-0.020086669921875	3861.6376442503
0.38055419921875	-0.0202911376953125	3861.65976925025
0.376129150390625	-0.02049560546875	3861.68189425019
0.3717041015625	-0.020697021484375	3861.70401925013
0.367279052734375	-0.0209014892578125	3861.72614425008
0.36285400390625	-0.021099853515625	3861.74826925002
0.358428955078125	-0.02130126953125	3861.77039424997
0.35400390625	-0.0214996337890625	3861.79251924991
0.349578857421875	-0.0216949462890625	3861.81464424986
0.34515380859375	-0.0218902587890625	3861.8367692498
0.340728759765625	-0.0220855712890625	3861.85889424974
0.3363037109375	-0.0222808837890625	3861.88101924969
0.331878662109375	-0.02247314453125	3861.90314424963
0.32745361328125	-0.02266845703125	3861.92526924958
0.323028564453125	-0.0228546142578125	3861.94739424952
0.318603515625	-0.0230499267578125	3861.96951924946
0.314178466796875	-0.0232330322265625	3861.99164424941
0.30975341796875	-0.0234283447265625	3862.01376924935
0.305328369140625	-0.0236114501953125	3862.0358942493
0.3009033203125	-0.023797607421875	3862.05801924924
0.296478271484375	-0.023980712890625	3862.08014424918
0.29205322265625	-0.024163818359375	3862.10226924913
0.287628173828125	-0.0243499755859375	3862.12439424907
0.283203125	-0.0245269775390625	3862.14651924902
0.278778076171875	-0.024713134765625	3862.16864424896
0.27435302734375	-0.0248870849609375	3862.19076924891
0.269927978515625	-0.025067138671875	3862.21289424885
0.2655029296875	-0.025244140625	3862.23501924879
0.261077880859375	-0.0254241943359375	3862.25714424874
0.25665283203125	-0.02559814453125	3862.27926924868
0.252227783203125	-0.025775146484375	3862.30139424863
0.247802734375	-0.025946044921875	3862.32351924857
0.243377685546875	-0.0261199951171875	3862.34564424851
0.23895263671875	-0.0262939453125	3862.36776924846
0.234527587890625	-0.02646484375	3862.3898942484
0.2301025390625	-0.0266326904296875	3862.41201924835
0.225677490234375	-0.026800537109375	3862.43414424829
0.22125244140625	-0.026971435546875	3862.45626924824
0.216827392578125	-0.02713623046875	3862.47839424818
0.21240234375	-0.02730712890625	3862.50051924812
0.207977294921875	-0.0274688720703125	3862.52264424807
0.20355224609375	-0.02763671875	3862.54476924801
0.199127197265625	-0.0277984619140625	3862.56689424796
0.1947021484375	-0.02796630859375	3862.5890192479
0.190277099609375	-0.028125	3862.61114424784
0.18585205078125	-0.0282867431640625	3862.63326924779
0.181427001953125	-0.0284515380859375	3862.65539424773
0.177001953125	-0.028607177734375	3862.67751924768
0.172576904296875	-0.02877197265625	3862.69964424762
0.16815185546875	-0.028924560546875	3862.72176924757
0.163726806640625	-0.0290863037109375	3862.74389424751
0.1593017578125	-0.0292388916015625	3862.76601924745
0.154876708984375	-0.029400634765625	3862.7881442474
0.15045166015625	-0.0295501708984375	3862.81026924734
0.146026611328125	-0.029705810546875	3862.83239424729
0.1416015625	-0.0298583984375	3862.85451924723
0.137176513671875	-0.0300140380859375	3862.87664424717
0.13275146484375	-0.0301666259765625	3862.89876924712
0.128326416015625	-0.0303192138671875	3862.92089424706
0.1239013671875	-0.0304718017578125	3862.94301924701
0.119476318359375	-0.0306182861328125	3862.96514424695
0.11505126953125	-0.03077392578125	3862.98726924689
0.110626220703125	-0.030914306640625	3863.00939424684
0.106201171875	-0.0310699462890625	3863.03151924678
0.101776123046875	-0.03121337890625	3863.05364424673
0.09735107421875	-0.0313629150390625	3863.07576924667
0.092926025390625	-0.03150634765625	3863.09789424662
0.0885009765625	-0.0316558837890625	3863.12001924656
0.084075927734375	-0.03179931640625	3863.1421442465
0.07965087890625	-0.03194580078125	3863.16426924645
0.075225830078125	-0.0320892333984375	3863.18639424639
0.07080078125	-0.0322296142578125	3863.20851924634
0.066375732421875	-0.032373046875	3863.23064424628
0.06195068359375	-0.032513427734375	3863.25276924622
0.057525634765625	-0.032659912109375	3863.27489424617
0.0531005859375	-0.032794189453125	3863.29701924611
0.048675537109375	-0.032940673828125	3863.31914424606
0.04425048828125	-0.0330718994140625	3863.341269246
0.039825439453125	-0.0332183837890625	3863.36339424595
0.035400390625	-0.0333526611328125	3863.38551924589
0.030975341796875	-0.0334930419921875	3863.40764424583
0.02655029296875	-0.0336273193359375	3863.42976924578
0.022125244140625	-0.0337615966796875	3863.45189424572
0.0177001953125	-0.033905029296875	3863.47401924567
0.013275146484375	-0.0340362548828125	3863.49614424561
0.00885009765625	-0.0341796875	3863.51826924555
0.004425048828125	-0.034307861328125	3863.5403942455
0	-0.0344451904296875	3863.56251924544
0.004425048828125	-0.0336700439453125	3863.58464424539
0.00885009765625	-0.0329315185546875	3863.60676924533
0.013275146484375	-0.0322021484375	3863.62889424527
0.0177001953125	-0.0314971923828125	3863.65101924522
0.022125244140625	-0.0307952880859375	3863.67314424516
0.02655029296875	-0.03011474609375	3863.69526924511
0.030975341796875	-0.029443359375	3863.71739424505
0.035400390625	-0.0287750244140625	3863.739519245
0.039825439453125	-0.0281280517578125	3863.76164424494
0.04425048828125	-0.0274749755859375	3863.78376924488
0.048675537109375	-0.0268463134765625	3863.80589424483
0.0531005859375	-0.0262176513671875	3863.82801924477
0.057525634765625	-0.0256011962890625	3863.85014424472
0.06195068359375	-0.0249908447265625	3863.87226924466
0.066375732421875	-0.0243865966796875	3863.8943942446
0.07080078125	-0.02379150390625	3863.91651924455
0.075225830078125	-0.02320556640625	3863.93864424449
0.07965087890625	-0.0226226806640625	3863.96076924444
0.084075927734375	-0.0220458984375	3863.98289424438
0.0885009765625	-0.021478271484375	3864.00501924433
0.092926025390625	-0.0209136962890625	3864.02714424427
0.09735107421875	-0.020361328125	3864.04926924421
0.101776123046875	-0.0198089599609375	3864.07139424416
0.106201171875	-0.019268798828125	3864.0935192441
0.110626220703125	-0.0187225341796875	3864.11564424405
0.11505126953125	-0.018194580078125	3864.13776924399
0.119476318359375	-0.0176666259765625	3864.15989424393
0.1239013671875	-0.0171478271484375	3864.18201924388
0.128326416015625	-0.0166290283203125	3864.20414424382
0.13275146484375	-0.0161163330078125	3864.22626924377
0.137176513671875	-0.01561279296875	3864.24839424371
0.1416015625	-0.0151092529296875	3864.27051924365
0.146026611328125	-0.01461181640625	3864.2926442436
0.15045166015625	-0.014117431640625	3864.31476924354
0.154876708984375	-0.01363525390625	3864.33689424349
0.1593017578125	-0.0131500244140625	3864.35901924343
0.163726806640625	-0.0126739501953125	3864.38114424338
0.16815185546875	-0.0121978759765625	3864.40326924332
0.172576904296875	-0.01173095703125	3864.42539424326
0.177001953125	-0.0112640380859375	3864.44751924321
0.181427001953125	-0.0108062744140625	3864.46964424315
0.18585205078125	-0.0103515625	3864.4917692431
0.190277099609375	-0.0098968505859375	3864.51389424304
0.1947021484375	-0.0094482421875	3864.53601924298
0.199127197265625	-0.0090057373046875	3864.55814424293
0.20355224609375	-0.0085662841796875	3864.58026924287
0.207977294921875	-0.0081268310546875	3864.60239424282
0.21240234375	-0.0076995849609375	3864.62451924276
0.216827392578125	-0.007269287109375	3864.64664424271
0.22125244140625	-0.0068450927734375	3864.66876924265
0.225677490234375	-0.0064208984375	3864.69089424259
0.2301025390625	-0.006005859375	3864.71301924254
0.234527587890625	-0.0055908203125	3864.73514424248
0.23895263671875	-0.005181884765625	3864.75726924243
0.243377685546875	-0.004776611328125	3864.77939424237
0.247802734375	-0.0043719482421875	3864.80151924231
0.252227783203125	-0.0039739990234375	3864.82364424226
0.25665283203125	-0.0035760498046875	3864.8457692422
0.261077880859375	-0.003184814453125	3864.86789424215
0.2655029296875	-0.00280426025390625	3864.89001924209
0.269927978515625	-0.0024169921875	3864.91214424203
0.27435302734375	-0.002032470703125	3864.93426924198
0.278778076171875	-0.0016510009765625	3864.95639424192
0.283203125	-0.0012744140625	3864.97851924187
0.287628173828125	-0.0008990478515625	3865.00064424181
0.29205322265625	-0.00052825927734375	3865.02276924176
0.296478271484375	-0.00015863037109375	3865.0448942417
0.3009033203125	0.0002052001953125	3865.06701924164
0.305328369140625	0.00056915283203125	3865.08914424159
0.30975341796875	0.000927734375	3865.11126924153
0.314178466796875	0.00128814697265625	3865.13339424148
0.318603515625	0.0016412353515625	3865.15551924142
0.323028564453125	0.0019927978515625	3865.17764424136
0.32745361328125	0.00234130859375	3865.19976924131
0.331878662109375	0.00268524169921875	3865.22189424125
0.3363037109375	0.00302947998046875	3865.2440192412
0.340728759765625	0.00336761474609375	3865.26614424114
0.34515380859375	0.00370513916015625	3865.28826924109
0.349578857421875	0.00403717041015625	3865.31039424103
0.35400390625	0.00436859130859375	3865.33251924097
0.358428955078125	0.00469818115234375	3865.35464424092
0.36285400390625	0.005025634765625	3865.37676924086
0.367279052734375	0.00534942626953125	3865.39889424081
0.3717041015625	0.00567047119140625	3865.42101924075
0.376129150390625	0.0059906005859375	3865.44314424069
0.38055419921875	0.0063067626953125	3865.46526924064
0.384979248046875	0.006610107421875	3865.48739424058
0.389404296875	0.00692138671875	3865.50951924053
0.393829345703125	0.0072296142578125	3865.53164424047
0.39825439453125	0.0075347900390625	3865.55376924042
0.402679443359375	0.0078369140625	3865.57589424036
0.4071044921875	0.0081390380859375	3865.5980192403
0.411529541015625	0.0084381103515625	3865.62014424025
0.41595458984375	0.0087371826171875	3865.64226924019
0.420379638671875	0.0090301513671875	3865.66439424014
0.4248046875	0.009326171875	3865.68651924008
0.429229736328125	0.0096099853515625	3865.70864424002
0.43365478515625	0.0099029541015625	3865.73076923997
0.438079833984375	0.010186767578125	3865.75289423991
0.4425048828125	0.0104705810546875	3865.77501923986
0.446929931640625	0.0107513427734375	3865.7971442398
0.45135498046875	0.011029052734375	3865.81926923974
0.455780029296875	0.0113067626953125	3865.84139423969
0.460205078125	0.01158447265625	3865.86351923963
0.464630126953125	0.0118560791015625	3865.88564423958
0.46905517578125	0.012127685546875	3865.90776923952
0.473480224609375	0.012396240234375	3865.92989423947
0.4779052734375	0.01265869140625	3865.95201923941
0.482330322265625	0.01292724609375	3865.97414423935
0.48675537109375	0.0131866455078125	3865.9962692393
0.491180419921875	0.0134521484375	3866.01839423924
0.49560546875	0.01370849609375	3866.04051923919
0.500030517578125	0.0139678955078125	3866.06264423913
0.50445556640625	0.0142181396484375	3866.08476923907
0.508880615234375	0.014471435546875	3866.10689423902
0.5133056640625	0.0147216796875	3866.12901923896
0.517730712890625	0.014971923828125	3866.15114423891
0.52215576171875	0.01522216796875	3866.17326923885
0.526580810546875	0.01546630859375	3866.19539423879
0.531005859375	0.0157073974609375	3866.21751923874
0.535430908203125	0.015948486328125	3866.23964423868
0.53985595703125	0.016192626953125	3866.26176923863
0.544281005859375	0.016424560546875	3866.28389423857
0.5487060546875	0.01666259765625	3866.30601923852
0.553131103515625	0.01689453125	3866.32814423846
0.55755615234375	0.0171295166015625	3866.3502692384
0.561981201171875	0.0173553466796875	3866.37239423835
0.56640625	0.017584228515625	3866.39451923829
0.570831298828125	0.0178131103515625	3866.41664423824
0.57525634765625	0.0180389404296875	3866.43876923818
0.579681396484375	0.01827392578125	3866.46089423812
0.5841064453125	0.0184967041015625	3866.48301923807
0.588531494140625	0.0187225341796875	3866.50514423801
0.59295654296875	0.018939208984375	3866.52726923796
0.597381591796875	0.0191619873046875	3866.5493942379
0.601806640625	0.0193756103515625	3866.57151923785
0.606231689453125	0.01959228515625	3866.59364423779
0.61065673828125	0.019805908203125	3866.61576923773
0.615081787109375	0.02001953125	3866.63789423768
0.6195068359375	0.020233154296875	3866.66001923762
0.623931884765625	0.020440673828125	3866.68214423757
0.62835693359375	0.020654296875	3866.70426923751
0.632781982421875	0.0208587646484375	3866.72639423745
0.63720703125	0.0210693359375	3866.7485192374
0.641632080078125	0.0212646484375	3866.77064423734
0.64605712890625	0.02147216796875	3866.79276923729
0.650482177734375	0.021661376953125	3866.81489423723
0.6549072265625	0.0218658447265625	3866.83701923717
0.659332275390625	0.02205810546875	3866.85914423712
0.66375732421875	0.022259521484375	3866.88126923706
0.668182373046875	0.022454833984375	3866.90339423701
0.672607421875	0.0226470947265625	3866.92551923695
0.677032470703125	0.02283935546875	3866.9476442369
0.68145751953125	0.023028564453125	3866.96976923684
0.685882568359375	0.0232208251953125	3866.99189423678
0.6903076171875	0.023406982421875	3867.01401923673
0.694732666015625	0.0235931396484375	3867.03614423667
0.69915771484375	0.023773193359375	3867.05826923662
0.703582763671875	0.02396240234375	3867.08039423656
0.7080078125	0.024139404296875	3867.1025192365
0.712432861328125	0.0243255615234375	3867.12464423645
0.71685791015625	0.0245025634765625	3867.14676923639
0.721282958984375	0.0246826171875	3867.16889423634
0.7257080078125	0.024859619140625	3867.19101923628
0.730133056640625	0.0250335693359375	3867.21314423623
0.73455810546875	0.0252105712890625	3867.23526923617
0.738983154296875	0.0253814697265625	3867.25739423611
0.743408203125	0.025555419921875	3867.27951923606
0.747833251953125	0.0257232666015625	3867.301644236
0.75225830078125	0.0258941650390625	3867.32376923595
0.756683349609375	0.0260589599609375	3867.34589423589
0.7611083984375	0.0262298583984375	3867.36801923583
0.765533447265625	0.0263946533203125	3867.39014423578
0.76995849609375	0.0265594482421875	3867.41226923572
0.774383544921875	0.02672119140625	3867.43439423567
0.77880859375	0.026885986328125	3867.45651923561
0.783233642578125	0.0270477294921875	3867.47864423556
0.78765869140625	0.0272064208984375	3867.5007692355
0.792083740234375	0.0273681640625	3867.52289423544
0.7965087890625	0.0275238037109375	3867.54501923539
0.800933837890625	0.0276824951171875	3867.56714423533
0.80535888671875	0.0278350830078125	3867.58926923528
0.809783935546875	0.0279937744140625	3867.61139423522
0.814208984375	0.028143310546875	3867.63351923516
0.818634033203125	0.0282989501953125	3867.65564423511
0.82305908203125	0.028448486328125	3867.67776923505
0.827484130859375	0.02860107421875	3867.699894235
0.8319091796875	0.0287506103515625	3867.72201923494
0.836334228515625	0.028900146484375	3867.74414423488
0.84075927734375	0.029046630859375	3867.76626923483
0.845184326171875	0.029193115234375	3867.78839423477
0.849609375	0.029339599609375	3867.81051923472
0.854034423828125	0.02947998046875	3867.83264423466
0.85845947265625	0.0296295166015625	3867.85476923461
0.862884521484375	0.0297637939453125	3867.87689423455
0.8673095703125	0.0299102783203125	3867.89901923449
0.871734619140625	0.030047607421875	3867.92114423444
0.87615966796875	0.0301910400390625	3867.94326923438
0.880584716796875	0.030328369140625	3867.96539423433
0.885009765625	0.03046875	3867.98751923427
0.889434814453125	0.0306060791015625	3868.00964423421
0.89385986328125	0.030743408203125	3868.03176923416
0.898284912109375	0.0308807373046875	3868.0538942341
0.9027099609375	0.031011962890625	3868.07601923405
0.907135009765625	0.03115234375	3868.09814423399
0.91156005859375	0.031280517578125	3868.12026923394
0.915985107421875	0.0314178466796875	3868.14239423388
0.92041015625	0.0315460205078125	3868.16451923382
0.924835205078125	0.031683349609375	3868.18664423377
0.92926025390625	0.0318115234375	3868.20876923371
0.933685302734375	0.03194580078125	3868.23089423366
0.9381103515625	0.032073974609375	3868.2530192336
0.942535400390625	0.032208251953125	3868.27514423354
0.94696044921875	0.03233642578125	3868.29726923349
0.951385498046875	0.0324615478515625	3868.31939423343
0.955810546875	0.0325958251953125	3868.34151923338
0.960235595703125	0.0327178955078125	3868.36364423332
0.96466064453125	0.0328460693359375	3868.38576923326
0.969085693359375	0.0329681396484375	3868.40789423321
0.9735107421875	0.033099365234375	3868.43001923315
0.977935791015625	0.0332183837890625	3868.4521442331
0.98236083984375	0.033349609375	3868.47426923304
0.986785888671875	0.0334686279296875	3868.49639423299
0.9912109375	0.0335968017578125	3868.51851923293
0.995635986328125	0.033721923828125	3868.54064423287
1.00006103515625	0.0338470458984375	3868.56276923282
0.995635986328125	0.0330657958984375	3868.58489423276
0.9912109375	0.0323150634765625	3868.60701923271
0.986785888671875	0.0315826416015625	3868.62914423265
0.98236083984375	0.030859375	3868.65126923259
0.977935791015625	0.03016357421875	3868.67339423254
0.9735107421875	0.0294708251953125	3868.69551923248
0.969085693359375	0.0287994384765625	3868.71764423243
0.96466064453125	0.0281280517578125	3868.73976923237
0.960235595703125	0.0274749755859375	3868.76189423232
0.955810546875	0.026824951171875	3868.78401923226
0.951385498046875	0.0261932373046875	3868.8061442322
0.94696044921875	0.0255615234375	3868.82826923215
0.942535400390625	0.0249420166015625	3868.85039423209
0.9381103515625	0.02432861328125	3868.87251923204
0.933685302734375	0.02371826171875	3868.89464423198
0.92926025390625	0.0231292724609375	3868.91676923192
0.924835205078125	0.0225341796875	3868.93889423187
0.92041015625	0.0219573974609375	3868.96101923181
0.915985107421875	0.0213775634765625	3868.98314423176
0.91156005859375	0.02081298828125	3869.0052692317
0.907135009765625	0.02025146484375	3869.02739423164
0.9027099609375	0.019696044921875	3869.04951923159
0.898284912109375	0.019146728515625	3869.07164423153
0.89385986328125	0.018603515625	3869.09376923148
0.889434814453125	0.01806640625	3869.11589423142
0.885009765625	0.0175323486328125	3869.13801923137
0.880584716796875	0.0170135498046875	3869.16014423131
0.87615966796875	0.016485595703125	3869.18226923125
0.871734619140625	0.0159759521484375	3869.2043942312
0.8673095703125	0.0154632568359375	3869.22651923114
0.862884521484375	0.0149627685546875	3869.24864423109
0.85845947265625	0.0144622802734375	3869.27076923103
0.854034423828125	0.0139739990234375	3869.29289423097
0.849609375	0.0134796142578125	3869.31501923092
0.845184326171875	0.0129974365234375	3869.33714423086
0.84075927734375	0.012518310546875	3869.35926923081
0.836334228515625	0.012042236328125	3869.38139423075
0.8319091796875	0.0115753173828125	3869.4035192307
0.827484130859375	0.0111053466796875	3869.42564423064
0.82305908203125	0.010650634765625	3869.44776923058
0.818634033203125	0.0101898193359375	3869.46989423053
0.814208984375	0.0097412109375	3869.49201923047
0.809783935546875	0.0092926025390625	3869.51414423042
0.80535888671875	0.00885009765625	3869.53626923036
0.800933837890625	0.0084075927734375	3869.5583942303
0.7965087890625	0.0079742431640625	3869.58051923025
0.792083740234375	0.0075439453125	3869.60264423019
0.78765869140625	0.00711669921875	3869.62476923014
0.783233642578125	0.006695556640625	3869.64689423008
0.77880859375	0.0062713623046875	3869.66901923002
0.774383544921875	0.005859375	3869.69114422997
0.76995849609375	0.0054443359375	3869.71326922991
0.765533447265625	0.0050384521484375	3869.73539422986
0.7611083984375	0.0046331787109375	3869.7575192298
0.756683349609375	0.0042333984375	3869.77964422975
0.75225830078125	0.0038360595703125	3869.80176922969
0.747833251953125	0.0034423828125	3869.82389422963
0.743408203125	0.003052978515625	3869.84601922958
0.738983154296875	0.00267059326171875	3869.86814422952
0.73455810546875	0.00228759765625	3869.89026922947
0.730133056640625	0.001905517578125	3869.91239422941
0.7257080078125	0.00152984619140625	3869.93451922935
0.721282958984375	0.00115478515625	3869.9566442293
0.71685791015625	0.00078521728515625	3869.97876922924
0.712432861328125	0.00041693115234375	3870.00089422919
0.7080078125	5.3680419921875E-05	3870.02301922913
0.703582763671875	-0.00030755615234375	3870.04514422908
0.69915771484375	-0.00066375732421875	3870.06726922902
0.694732666015625	-0.00101806640625	3870.08939422896
0.6903076171875	-0.001370849609375	3870.11151922891
0.685882568359375	-0.00171783447265625	3870.13364422885
0.68145751953125	-0.0020648193359375	3870.1557692288
0.677032470703125	-0.00240631103515625	3870.17789422874
0.672607421875	-0.00274688720703125	3870.20001922868
0.668182373046875	-0.00308349609375	3870.22214422863
0.66375732421875	-0.00341796875	3870.24426922857
0.659332275390625	-0.00374908447265625	3870.26639422852
0.6549072265625	-0.00407745361328125	3870.28851922846
0.650482177734375	-0.00440338134765625	3870.31064422841
0.64605712890625	-0.00472564697265625	3870.33276922835
0.641632080078125	-0.00504669189453125	3870.35489422829
0.63720703125	-0.00536376953125	3870.37701922824
0.632781982421875	-0.005679931640625	3870.39914422818
0.62835693359375	-0.00599090576171875	3870.42126922813
0.623931884765625	-0.00630645751953125	3870.44339422807
0.6195068359375	-0.0065887451171875	3870.46551922801
0.615081787109375	-0.0068939208984375	3870.48764422796
0.61065673828125	-0.007196044921875	3870.5097692279
0.606231689453125	-0.0074951171875	3870.53189422785
0.601806640625	-0.0077911376953125	3870.55401922779
0.597381591796875	-0.0080810546875	3870.57614422773
0.59295654296875	-0.0083740234375	3870.59826922768
0.588531494140625	-0.0086639404296875	3870.62039422762
0.5841064453125	-0.0089508056640625	3870.64251922757
0.579681396484375	-0.009234619140625	3870.66464422751
0.57525634765625	-0.009515380859375	3870.68676922746
0.570831298828125	-0.009796142578125	3870.7088942274
0.56640625	-0.0100738525390625	3870.73101922734
0.561981201171875	-0.0103515625	3870.75314422729
0.55755615234375	-0.0106231689453125	3870.77526922723
0.553131103515625	-0.0108978271484375	3870.79739422718
0.5487060546875	-0.011163330078125	3870.81951922712
0.544281005859375	-0.0114288330078125	3870.84164422706
0.53985595703125	-0.0116943359375	3870.86376922701
0.535430908203125	-0.011956787109375	3870.88589422695
0.531005859375	-0.01221923828125	3870.9080192269
0.526580810546875	-0.0124786376953125	3870.93014422684
0.52215576171875	-0.0127349853515625	3870.95226922679
0.517730712890625	-0.0129913330078125	3870.97439422673
0.5133056640625	-0.0132476806640625	3870.99651922667
0.508880615234375	-0.0134979248046875	3871.01864422662
0.50445556640625	-0.013751220703125	3871.04076922656
0.500030517578125	-0.013995361328125	3871.06289422651
0.49560546875	-0.014239501953125	3871.08501922645
0.491180419921875	-0.0144805908203125	3871.10714422639
0.48675537109375	-0.014727783203125	3871.12926922634
0.482330322265625	-0.0149627685546875	3871.15139422628
0.4779052734375	-0.0152069091796875	3871.17351922623
0.473480224609375	-0.0154449462890625	3871.19564422617
0.46905517578125	-0.0156768798828125	3871.21776922611
0.464630126953125	-0.015911865234375	3871.23989422606
0.460205078125	-0.0161468505859375	3871.262019226
0.455780029296875	-0.0163787841796875	3871.28414422595
0.45135498046875	-0.0166107177734375	3871.30626922589
0.446929931640625	-0.0168426513671875	3871.32839422584
0.4425048828125	-0.0170654296875	3871.35051922578
0.438079833984375	-0.0172882080078125	3871.37264422572
0.43365478515625	-0.017510986328125	3871.39476922567
0.429229736328125	-0.01773681640625	3871.41689422561
0.4248046875	-0.0179534912109375	3871.43901922556
0.420379638671875	-0.01817626953125	3871.4611442255
0.41595458984375	-0.0183929443359375	3871.48326922544
0.411529541015625	-0.0186126708984375	3871.50539422539
0.4071044921875	-0.0188262939453125	3871.52751922533
0.402679443359375	-0.019036865234375	3871.54964422528
0.39825439453125	-0.0192535400390625	3871.57176922522
0.393829345703125	-0.019464111328125	3871.59389422517
0.389404296875	-0.0196746826171875	3871.61601922511
0.384979248046875	-0.01988525390625	3871.63814422505
0.38055419921875	-0.0200958251953125	3871.660269225
0.376129150390625	-0.02030029296875	3871.68239422494
0.3717041015625	-0.020501708984375	3871.70451922489
0.367279052734375	-0.020703125	3871.72664422483
0.36285400390625	-0.0209075927734375	3871.74876922477
0.358428955078125	-0.02110595703125	3871.77089422472
0.35400390625	-0.021307373046875	3871.79301922466
0.349578857421875	-0.021502685546875	3871.81514422461
0.34515380859375	-0.021697998046875	3871.83726922455
0.340728759765625	-0.021893310546875	3871.85939422449
0.3363037109375	-0.022088623046875	3871.88151922444
0.331878662109375	-0.0222869873046875	3871.90364422438
0.32745361328125	-0.0224761962890625	3871.92576922433
0.323028564453125	-0.02266845703125	3871.94789422427
0.318603515625	-0.022857666015625	3871.97001922422
0.314178466796875	-0.0230499267578125	3871.99214422416
0.30975341796875	-0.0232391357421875	3872.0142692241
0.305328369140625	-0.02342529296875	3872.03639422405
0.3009033203125	-0.0236083984375	3872.05851922399
0.296478271484375	-0.0237945556640625	3872.08064422394
0.29205322265625	-0.023980712890625	3872.10276922388
0.287628173828125	-0.024163818359375	3872.12489422382
0.283203125	-0.024346923828125	3872.14701922377
0.278778076171875	-0.0245269775390625	3872.16914422371
0.27435302734375	-0.0247100830078125	3872.19126922366
0.269927978515625	-0.0248870849609375	3872.2133942236
0.2655029296875	-0.0250640869140625	3872.23551922354
0.261077880859375	-0.025238037109375	3872.25764422349
0.25665283203125	-0.0254180908203125	3872.27976922343
0.252227783203125	-0.025592041015625	3872.30189422338
0.247802734375	-0.02576904296875	3872.32401922332
0.243377685546875	-0.02593994140625	3872.34614422327
0.23895263671875	-0.0261138916015625	3872.36826922321
0.234527587890625	-0.026287841796875	3872.39039422315
0.2301025390625	-0.0264556884765625	3872.4125192231
0.225677490234375	-0.02662353515625	3872.43464422304
0.22125244140625	-0.0267913818359375	3872.45676922299
0.216827392578125	-0.0269622802734375	3872.47889422293
0.21240234375	-0.0271270751953125	3872.50101922287
0.207977294921875	-0.027294921875	3872.52314422282
0.20355224609375	-0.0274566650390625	3872.54526922276
0.199127197265625	-0.0276275634765625	3872.56739422271
0.1947021484375	-0.027789306640625	3872.58951922265
0.190277099609375	-0.0279541015625	3872.6116442226
0.18585205078125	-0.0281158447265625	3872.63376922254
0.181427001953125	-0.0282745361328125	3872.65589422248
0.177001953125	-0.028436279296875	3872.67801922243
0.172576904296875	-0.028594970703125	3872.70014422237
0.16815185546875	-0.0287567138671875	3872.72226922232
0.163726806640625	-0.028912353515625	3872.74439422226
0.1593017578125	-0.029071044921875	3872.7665192222
0.154876708984375	-0.0292266845703125	3872.78864422215
0.15045166015625	-0.0293853759765625	3872.81076922209
0.146026611328125	-0.0295379638671875	3872.83289422204
0.1416015625	-0.029693603515625	3872.85501922198
0.137176513671875	-0.0298431396484375	3872.87714422192
0.13275146484375	-0.029998779296875	3872.89926922187
0.128326416015625	-0.0301513671875	3872.92139422181
0.1239013671875	-0.0303009033203125	3872.94351922176
0.119476318359375	-0.0304534912109375	3872.9656442217
0.11505126953125	-0.030596923828125	3872.98776922165
0.110626220703125	-0.030755615234375	3873.00989422159
0.106201171875	-0.0308990478515625	3873.03201922153
0.101776123046875	-0.0310516357421875	3873.05414422148
0.09735107421875	-0.031195068359375	3873.07626922142
0.092926025390625	-0.031341552734375	3873.09839422137
0.0885009765625	-0.0314849853515625	3873.12051922131
0.084075927734375	-0.031634521484375	3873.14264422126
0.07965087890625	-0.0317779541015625	3873.1647692212
0.075225830078125	-0.03192138671875	3873.18689422114
0.07080078125	-0.0320648193359375	3873.20901922109
0.066375732421875	-0.0322052001953125	3873.23114422103
0.06195068359375	-0.0323516845703125	3873.25326922098
0.057525634765625	-0.032489013671875	3873.27539422092
0.0531005859375	-0.032635498046875	3873.29751922086
0.048675537109375	-0.032769775390625	3873.31964422081
0.04425048828125	-0.03291015625	3873.34176922075
0.039825439453125	-0.0330474853515625	3873.3638942207
0.035400390625	-0.0331878662109375	3873.38601922064
0.030975341796875	-0.0333251953125	3873.40814422058
0.02655029296875	-0.033465576171875	3873.43026922053
0.022125244140625	-0.033599853515625	3873.45239422047
0.0177001953125	-0.033734130859375	3873.47451922042
0.013275146484375	-0.03387451171875	3873.49664422036
0.00885009765625	-0.0340057373046875	3873.51876922031
0.004425048828125	-0.0341461181640625	3873.54089422025
0	-0.03427734375	3873.56301922019
0.004425048828125	-0.033514404296875	3873.58514422014
0.00885009765625	-0.0327667236328125	3873.60726922008
0.013275146484375	-0.03204345703125	3873.62939422003
0.0177001953125	-0.0313262939453125	3873.65151921997
0.022125244140625	-0.030633544921875	3873.67364421991
0.02655029296875	-0.0299468994140625	3873.69576921986
0.030975341796875	-0.0292724609375	3873.7178942198
0.035400390625	-0.02861328125	3873.74001921975
0.039825439453125	-0.0279571533203125	3873.76214421969
0.04425048828125	-0.0273193359375	3873.78426921964
0.048675537109375	-0.0266754150390625	3873.80639421958
0.0531005859375	-0.026055908203125	3873.82851921952
0.057525634765625	-0.0254364013671875	3873.85064421947
0.06195068359375	-0.0248291015625	3873.87276921941
0.066375732421875	-0.0242218017578125	3873.89489421936
0.07080078125	-0.023626708984375	3873.9170192193
0.075225830078125	-0.0230377197265625	3873.93914421924
0.07965087890625	-0.0224578857421875	3873.96126921919
0.084075927734375	-0.0218841552734375	3873.98339421913
0.0885009765625	-0.0213134765625	3874.00551921908
0.092926025390625	-0.0207550048828125	3874.02764421902
0.09735107421875	-0.020196533203125	3874.04976921896
0.101776123046875	-0.0196502685546875	3874.07189421891
0.106201171875	-0.0191009521484375	3874.09401921885
0.110626220703125	-0.01856689453125	3874.1161442188
0.11505126953125	-0.01802978515625	3874.13826921874
0.119476318359375	-0.0175048828125	3874.16039421869
0.1239013671875	-0.016986083984375	3874.18251921863
0.128326416015625	-0.01646728515625	3874.20464421857
0.13275146484375	-0.01595458984375	3874.22676921852
0.137176513671875	-0.0154510498046875	3874.24889421846
0.1416015625	-0.014947509765625	3874.27101921841
0.146026611328125	-0.0144500732421875	3874.29314421835
0.15045166015625	-0.0139617919921875	3874.31526921829
0.154876708984375	-0.0134735107421875	3874.33739421824
0.1593017578125	-0.012994384765625	3874.35951921818
0.163726806640625	-0.01251220703125	3874.38164421813
0.16815185546875	-0.012042236328125	3874.40376921807
0.172576904296875	-0.011572265625	3874.42589421801
0.177001953125	-0.0111083984375	3874.44801921796
0.181427001953125	-0.0106475830078125	3874.4701442179
0.18585205078125	-0.0101898193359375	3874.49226921785
0.190277099609375	-0.0097412109375	3874.51439421779
0.1947021484375	-0.0092926025390625	3874.53651921774
0.199127197265625	-0.00885009765625	3874.55864421768
0.20355224609375	-0.0084075927734375	3874.58076921762
0.207977294921875	-0.0079742431640625	3874.60289421757
0.21240234375	-0.0075439453125	3874.62501921751
0.216827392578125	-0.0071136474609375	3874.64714421746
0.22125244140625	-0.006689453125	3874.6692692174
0.225677490234375	-0.006268310546875	3874.69139421734
0.2301025390625	-0.0058502197265625	3874.71351921729
0.234527587890625	-0.005438232421875	3874.73564421723
0.23895263671875	-0.005029296875	3874.75776921718
0.243377685546875	-0.0046240234375	3874.77989421712
0.247802734375	-0.00422271728515625	3874.80201921707
0.252227783203125	-0.003822021484375	3874.82414421701
0.25665283203125	-0.003427734375	3874.84626921695
0.261077880859375	-0.003033447265625	3874.8683942169
0.2655029296875	-0.00265533447265625	3874.89051921684
0.269927978515625	-0.00226776123046875	3874.91264421679
0.27435302734375	-0.00188446044921875	3874.93476921673
0.278778076171875	-0.00150390625	3874.95689421667
0.283203125	-0.0011260986328125	3874.97901921662
0.287628173828125	-0.000753173828125	3875.00114421656
0.29205322265625	-0.000380950927734375	3875.02326921651
0.296478271484375	-1.37481689453125E-05	3875.04539421645
0.3009033203125	0.000351287841796875	3875.06751921639
0.305328369140625	0.0007122802734375	3875.08964421634
0.30975341796875	0.00107208251953125	3875.11176921628
0.314178466796875	0.00143035888671875	3875.13389421623
0.318603515625	0.00178466796875	3875.15601921617
0.323028564453125	0.002135009765625	3875.17814421612
0.32745361328125	0.0024822998046875	3875.20026921606
0.331878662109375	0.0028277587890625	3875.222394216
0.3363037109375	0.00316864013671875	3875.24451921595
0.340728759765625	0.00350799560546875	3875.26664421589
0.34515380859375	0.00384246826171875	3875.28876921584
0.349578857421875	0.0041766357421875	3875.31089421578
0.35400390625	0.00450592041015625	3875.33301921572
0.358428955078125	0.00483612060546875	3875.35514421567
0.36285400390625	0.0051617431640625	3875.37726921561
0.367279052734375	0.00548553466796875	3875.39939421556
0.3717041015625	0.00580657958984375	3875.4215192155
0.376129150390625	0.00612548828125	3875.44364421545
0.38055419921875	0.0064300537109375	3875.46576921539
0.384979248046875	0.006744384765625	3875.48789421533
0.389404296875	0.0070556640625	3875.51001921528
0.393829345703125	0.00736083984375	3875.53214421522
0.39825439453125	0.0076690673828125	3875.55426921517
0.402679443359375	0.0079681396484375	3875.57639421511
0.4071044921875	0.008270263671875	3875.59851921505
0.411529541015625	0.0085693359375	3875.620644215
0.41595458984375	0.0088653564453125	3875.64276921494
0.420379638671875	0.0091583251953125	3875.66489421489
0.4248046875	0.0094482421875	3875.68701921483
0.429229736328125	0.0097412109375	3875.70914421477
0.43365478515625	0.010028076171875	3875.73126921472
0.438079833984375	0.0103118896484375	3875.75339421466
0.4425048828125	0.010595703125	3875.77551921461
0.446929931640625	0.0108795166015625	3875.79764421455
0.45135498046875	0.0111541748046875	3875.8197692145
0.455780029296875	0.011431884765625	3875.84189421444
0.460205078125	0.0117034912109375	3875.86401921438
0.464630126953125	0.0119781494140625	3875.88614421433
0.46905517578125	0.0122467041015625	3875.90826921427
0.473480224609375	0.0125152587890625	3875.93039421422
0.4779052734375	0.01278076171875	3875.95251921416
0.482330322265625	0.013043212890625	3875.9746442141
0.48675537109375	0.0133087158203125	3875.99676921405
0.491180419921875	0.0135650634765625	3876.01889421399
0.49560546875	0.0138275146484375	3876.04101921394
0.500030517578125	0.0140777587890625	3876.06314421388
0.50445556640625	0.0143341064453125	3876.08526921383
0.508880615234375	0.01458740234375	3876.10739421377
0.5133056640625	0.014837646484375	3876.12951921371
0.517730712890625	0.0150848388671875	3876.15164421366
0.52215576171875	0.01533203125	3876.1737692136
0.526580810546875	0.0155792236328125	3876.19589421355
0.531005859375	0.0158172607421875	3876.21801921349
0.535430908203125	0.0160614013671875	3876.24014421343
0.53985595703125	0.0162994384765625	3876.26226921338
0.544281005859375	0.0165374755859375	3876.28439421332
0.5487060546875	0.0167694091796875	3876.30651921327
0.553131103515625	0.0170074462890625	3876.32864421321
0.55755615234375	0.0172332763671875	3876.35076921316
0.561981201171875	0.0174652099609375	3876.3728942131
0.56640625	0.017694091796875	3876.39501921304
0.570831298828125	0.017919921875	3876.41714421299
0.57525634765625	0.01815185546875	3876.43926921293
0.579681396484375	0.0183807373046875	3876.46139421288
0.5841064453125	0.0186065673828125	3876.48351921282
0.588531494140625	0.0188232421875	3876.50564421276
0.59295654296875	0.01904296875	3876.52776921271
0.597381591796875	0.0192596435546875	3876.54989421265
0.601806640625	0.0194793701171875	3876.5720192126
0.606231689453125	0.0196929931640625	3876.59414421254
0.61065673828125	0.01990966796875	3876.61626921248
0.615081787109375	0.0201202392578125	3876.63839421243
0.6195068359375	0.020330810546875	3876.66051921237
0.623931884765625	0.020538330078125	3876.68264421232
0.62835693359375	0.0207489013671875	3876.70476921226
0.632781982421875	0.02095947265625	3876.72689421221
0.63720703125	0.0211578369140625	3876.74901921215
0.641632080078125	0.0213623046875	3876.77114421209
0.64605712890625	0.0215576171875	3876.79326921204
0.650482177734375	0.021759033203125	3876.81539421198
0.6549072265625	0.021954345703125	3876.83751921193
0.659332275390625	0.02215576171875	3876.85964421187
0.66375732421875	0.02235107421875	3876.88176921181
0.668182373046875	0.0225494384765625	3876.90389421176
0.672607421875	0.02274169921875	3876.9260192117
0.677032470703125	0.022930908203125	3876.94814421165
0.68145751953125	0.0231231689453125	3876.97026921159
0.685882568359375	0.023309326171875	3876.99239421154
0.6903076171875	0.0234954833984375	3877.01451921148
0.694732666015625	0.023681640625	3877.03664421142
0.69915771484375	0.0238677978515625	3877.05876921137
0.703582763671875	0.0240478515625	3877.08089421131
0.7080078125	0.02423095703125	3877.10301921126
0.712432861328125	0.024407958984375	3877.1251442112
0.71685791015625	0.024591064453125	3877.14726921114
0.721282958984375	0.02476806640625	3877.16939421109
0.7257080078125	0.024945068359375	3877.19151921103
0.730133056640625	0.0251190185546875	3877.21364421098
0.73455810546875	0.02529296875	3877.23576921092
0.738983154296875	0.0254669189453125	3877.25789421086
0.743408203125	0.025634765625	3877.28001921081
0.747833251953125	0.0258056640625	3877.30214421075
0.75225830078125	0.025970458984375	3877.3242692107
0.756683349609375	0.0261444091796875	3877.34639421064
0.7611083984375	0.02630615234375	3877.36851921059
0.765533447265625	0.02647705078125	3877.39064421053
0.76995849609375	0.0266357421875	3877.41276921047
0.774383544921875	0.026800537109375	3877.43489421042
0.77880859375	0.0269622802734375	3877.45701921036
0.783233642578125	0.0271209716796875	3877.47914421031
0.78765869140625	0.02728271484375	3877.50126921025
0.792083740234375	0.0274383544921875	3877.52339421019
0.7965087890625	0.0275970458984375	3877.54551921014
0.800933837890625	0.027752685546875	3877.56764421008
0.80535888671875	0.027911376953125	3877.58976921003
0.809783935546875	0.02806396484375	3877.61189420997
0.814208984375	0.028216552734375	3877.63401920992
0.818634033203125	0.0283660888671875	3877.65614420986
0.82305908203125	0.0285186767578125	3877.6782692098
0.827484130859375	0.0286651611328125	3877.70039420975
0.8319091796875	0.02882080078125	3877.72251920969
0.836334228515625	0.0289642333984375	3877.74464420964
0.84075927734375	0.0291107177734375	3877.76676920958
0.845184326171875	0.02926025390625	3877.78889420952
0.849609375	0.0294036865234375	3877.81101920947
0.854034423828125	0.0295501708984375	3877.83314420941
0.85845947265625	0.0296875	3877.85526920936
0.862884521484375	0.0298309326171875	3877.8773942093
0.8673095703125	0.02996826171875	3877.89951920924
0.871734619140625	0.03011474609375	3877.92164420919
0.87615966796875	0.0302490234375	3877.94376920913
0.880584716796875	0.030389404296875	3877.96589420908
0.885009765625	0.0305267333984375	3877.98801920902
0.889434814453125	0.0306640625	3878.01014420897
0.89385986328125	0.03079833984375	3878.03226920891
0.898284912109375	0.030938720703125	3878.05439420885
0.9027099609375	0.031072998046875	3878.0765192088
0.907135009765625	0.0312042236328125	3878.09864420874
0.91156005859375	0.031341552734375	3878.12076920869
0.915985107421875	0.0314666748046875	3878.14289420863
0.92041015625	0.03160400390625	3878.16501920857
0.924835205078125	0.031732177734375	3878.18714420852
0.92926025390625	0.0318695068359375	3878.20926920846
0.933685302734375	0.0319976806640625	3878.23139420841
0.9381103515625	0.03212890625	3878.25351920835
0.942535400390625	0.032257080078125	3878.2756442083
0.94696044921875	0.03238525390625	3878.29776920824
0.951385498046875	0.032513427734375	3878.31989420818
0.955810546875	0.0326416015625	3878.34201920813
0.960235595703125	0.032769775390625	3878.36414420807
0.96466064453125	0.0328887939453125	3878.38626920802
0.969085693359375	0.03302001953125	3878.40839420796
0.9735107421875	0.03314208984375	3878.4305192079
0.977935791015625	0.033270263671875	3878.45264420785
0.98236083984375	0.033392333984375	3878.47476920779
0.986785888671875	0.0335205078125	3878.49689420774
0.9912109375	0.0336395263671875	3878.51901920768
