Potential applied (V)	WE(1).Current (A)	Time (s)
0.004425048828125	-0.0844879150390625	3630.67298783343
0.00885009765625	-0.079437255859375	3630.76148883321
0.013275146484375	-0.07515869140625	3630.84998983299
0.0177001953125	-0.07138671875	3630.93849083276
0.022125244140625	-0.0679779052734375	3631.02699183254
0.02655029296875	-0.0648651123046875	3631.11549283231
0.030975341796875	-0.0619873046875	3631.20399383209
0.035400390625	-0.059326171875	3631.29249483187
0.039825439453125	-0.0568267822265625	3631.38099583164
0.04425048828125	-0.05447998046875	3631.46949683142
0.048675537109375	-0.052276611328125	3631.5579978312
0.0531005859375	-0.050177001953125	3631.64649883097
0.057525634765625	-0.0482025146484375	3631.73499983075
0.06195068359375	-0.0463165283203125	3631.82350083053
0.066375732421875	-0.044525146484375	3631.9120018303
0.07080078125	-0.0428131103515625	3632.00050283008
0.075225830078125	-0.0411712646484375	3632.08900382986
0.07965087890625	-0.0396087646484375	3632.17750482963
0.084075927734375	-0.0381011962890625	3632.26600582941
0.0885009765625	-0.0366546630859375	3632.35450682919
0.092926025390625	-0.035272216796875	3632.44300782896
0.09735107421875	-0.033941650390625	3632.53150882874
0.101776123046875	-0.0326568603515625	3632.62000982852
0.106201171875	-0.031414794921875	3632.70851082829
0.110626220703125	-0.0302215576171875	3632.79701182807
0.11505126953125	-0.0290740966796875	3632.88551282785
0.119476318359375	-0.0279693603515625	3632.97401382762
0.1239013671875	-0.0268951416015625	3633.0625148274
0.128326416015625	-0.0258514404296875	3633.15101582718
0.13275146484375	-0.024847412109375	3633.23951682695
0.137176513671875	-0.0238739013671875	3633.32801782673
0.1416015625	-0.0229339599609375	3633.41651882651
0.146026611328125	-0.0220245361328125	3633.50501982628
0.15045166015625	-0.021142578125	3633.59352082606
0.154876708984375	-0.0202880859375	3633.68202182583
0.1593017578125	-0.0194580078125	3633.77052282561
0.163726806640625	-0.0186492919921875	3633.85902382539
0.16815185546875	-0.01787109375	3633.94752482516
0.172576904296875	-0.0171142578125	3634.03602582494
0.177001953125	-0.0163787841796875	3634.12452682472
0.181427001953125	-0.0156585693359375	3634.21302782449
0.18585205078125	-0.0149627685546875	3634.30152882427
0.190277099609375	-0.0142852783203125	3634.39002982405
0.1947021484375	-0.0136322021484375	3634.47853082382
0.199127197265625	-0.012994384765625	3634.5670318236
0.20355224609375	-0.0123748779296875	3634.65553282338
0.207977294921875	-0.011767578125	3634.74403382315
0.21240234375	-0.0111785888671875	3634.83253482293
0.216827392578125	-0.01060791015625	3634.92103582271
0.22125244140625	-0.010052490234375	3635.00953682248
0.225677490234375	-0.00950927734375	3635.09803782226
0.2301025390625	-0.008984375	3635.18653882204
0.234527587890625	-0.0084716796875	3635.27503982181
0.23895263671875	-0.0079681396484375	3635.36354082159
0.243377685546875	-0.00748291015625	3635.45204182137
0.247802734375	-0.0070098876953125	3635.54054282114
0.252227783203125	-0.00654296875	3635.62904382092
0.25665283203125	-0.0060943603515625	3635.7175448207
0.261077880859375	-0.00565185546875	3635.80604582047
0.2655029296875	-0.0052215576171875	3635.89454682025
0.269927978515625	-0.004805908203125	3635.98304782003
0.27435302734375	-0.004398193359375	3636.0715488198
0.278778076171875	-0.00400054931640625	3636.16004981958
0.283203125	-0.00361328125	3636.24855081935
0.287628173828125	-0.0032342529296875	3636.33705181913
0.29205322265625	-0.00287567138671875	3636.42555281891
0.296478271484375	-0.002513427734375	3636.51405381868
0.3009033203125	-0.0021612548828125	3636.60255481846
0.305328369140625	-0.001817626953125	3636.69105581824
0.30975341796875	-0.00148223876953125	3636.77955681801
0.314178466796875	-0.00115142822265625	3636.86805781779
0.318603515625	-0.00083160400390625	3636.95655881757
0.323028564453125	-0.00051849365234375	3637.04505981734
0.32745361328125	-0.000213958740234375	3637.13356081712
0.331878662109375	8.392333984375E-05	3637.2220618169
0.3363037109375	0.00037457275390625	3637.31056281667
0.340728759765625	0.0006591796875	3637.39906381645
0.34515380859375	0.00093719482421875	3637.48756481623
0.349578857421875	0.00120849609375	3637.576065816
0.35400390625	0.00147125244140625	3637.66456681578
0.358428955078125	0.001729736328125	3637.75306781556
0.36285400390625	0.001982421875	3637.84156881533
0.367279052734375	0.00223052978515625	3637.93006981511
0.3717041015625	0.0024725341796875	3638.01857081489
0.376129150390625	0.00270843505859375	3638.10707181466
0.38055419921875	0.002939453125	3638.19557281444
0.384979248046875	0.0031646728515625	3638.28407381422
0.389404296875	0.00338470458984375	3638.37257481399
0.393829345703125	0.0035992431640625	3638.46107581377
0.39825439453125	0.0038104248046875	3638.54957681355
0.402679443359375	0.004014892578125	3638.63807781332
0.4071044921875	0.004215087890625	3638.7265788131
0.411529541015625	0.0044122314453125	3638.81507981287
0.41595458984375	0.00460540771484375	3638.90358081265
0.420379638671875	0.00479461669921875	3638.99208181243
0.4248046875	0.00497894287109375	3639.0805828122
0.429229736328125	0.00515899658203125	3639.16908381198
0.43365478515625	0.00533477783203125	3639.25758481176
0.438079833984375	0.00550994873046875	3639.34608581153
0.4425048828125	0.00568023681640625	3639.43458681131
0.446929931640625	0.005845947265625	3639.52308781109
0.45135498046875	0.00600799560546875	3639.61158881086
0.455780029296875	0.006158447265625	3639.70008981064
0.460205078125	0.00631103515625	3639.78859081042
0.464630126953125	0.0064605712890625	3639.87709181019
0.46905517578125	0.0066070556640625	3639.96559280997
0.473480224609375	0.00675048828125	3640.05409380975
0.4779052734375	0.006890869140625	3640.14259480952
0.482330322265625	0.0070281982421875	3640.2310958093
0.48675537109375	0.0071624755859375	3640.31959680908
0.491180419921875	0.007293701171875	3640.40809780885
0.49560546875	0.0074249267578125	3640.49659880863
0.500030517578125	0.0075531005859375	3640.58509980841
0.50445556640625	0.0076751708984375	3640.67360080818
0.508880615234375	0.00780029296875	3640.76210180796
0.5133056640625	0.007916259765625	3640.85060280774
0.517730712890625	0.0080322265625	3640.93910380751
0.52215576171875	0.0081451416015625	3641.02760480729
0.526580810546875	0.0082611083984375	3641.11610580707
0.531005859375	0.008367919921875	3641.20460680684
0.535430908203125	0.008477783203125	3641.29310780662
0.53985595703125	0.00858154296875	3641.38160880639
0.544281005859375	0.0086822509765625	3641.47010980617
0.5487060546875	0.008782958984375	3641.55861080595
0.553131103515625	0.008880615234375	3641.64711180572
0.55755615234375	0.008978271484375	3641.7356128055
0.561981201171875	0.0090728759765625	3641.82411380528
0.56640625	0.00916748046875	3641.91261480505
0.570831298828125	0.0092559814453125	3642.00111580483
0.57525634765625	0.009344482421875	3642.08961680461
0.579681396484375	0.009429931640625	3642.17811780438
0.5841064453125	0.009515380859375	3642.26661880416
0.588531494140625	0.0095977783203125	3642.35511980394
0.59295654296875	0.00968017578125	3642.44362080371
0.597381591796875	0.009759521484375	3642.53212180349
0.601806640625	0.0098388671875	3642.62062280327
0.606231689453125	0.009918212890625	3642.70912380304
0.61065673828125	0.0099945068359375	3642.79762480282
0.615081787109375	0.0100677490234375	3642.8861258026
0.6195068359375	0.0101409912109375	3642.97462680237
0.623931884765625	0.010211181640625	3643.06312780215
0.62835693359375	0.010284423828125	3643.15162880193
0.632781982421875	0.0103515625	3643.2401298017
0.63720703125	0.0104217529296875	3643.32863080148
0.641632080078125	0.01048583984375	3643.41713180126
0.64605712890625	0.010552978515625	3643.50563280103
0.650482177734375	0.010614013671875	3643.59413380081
0.6549072265625	0.010675048828125	3643.68263480059
0.659332275390625	0.010736083984375	3643.77113580036
0.66375732421875	0.010797119140625	3643.85963680014
0.668182373046875	0.010858154296875	3643.94813779992
0.672607421875	0.0109130859375	3644.03663879969
0.677032470703125	0.010968017578125	3644.12513979947
0.68145751953125	0.01102294921875	3644.21364079924
0.685882568359375	0.0110748291015625	3644.30214179902
0.6903076171875	0.0111297607421875	3644.3906427988
0.694732666015625	0.0111846923828125	3644.47914379857
0.69915771484375	0.0112335205078125	3644.56764479835
0.703582763671875	0.0112823486328125	3644.65614579813
0.7080078125	0.0113311767578125	3644.7446467979
0.712432861328125	0.011383056640625	3644.83314779768
0.71685791015625	0.011431884765625	3644.92164879746
0.721282958984375	0.0114776611328125	3645.01014979723
0.7257080078125	0.011529541015625	3645.09865079701
0.730133056640625	0.0115753173828125	3645.18715179679
0.73455810546875	0.01162109375	3645.27565279656
0.738983154296875	0.0116668701171875	3645.36415379634
0.743408203125	0.0117095947265625	3645.45265479612
0.747833251953125	0.0117523193359375	3645.54115579589
0.75225830078125	0.011798095703125	3645.62965679567
0.756683349609375	0.0118408203125	3645.71815779545
0.7611083984375	0.011883544921875	3645.80665879522
0.765533447265625	0.0119232177734375	3645.895159795
0.76995849609375	0.011968994140625	3645.98366079478
0.774383544921875	0.01201171875	3646.07216179455
0.77880859375	0.012054443359375	3646.16066279433
0.783233642578125	0.0120941162109375	3646.24916379411
0.78765869140625	0.0121368408203125	3646.33766479388
0.792083740234375	0.012176513671875	3646.42616579366
0.7965087890625	0.01221923828125	3646.51466679344
0.800933837890625	0.012261962890625	3646.60316779321
0.80535888671875	0.0123046875	3646.69166879299
0.809783935546875	0.0123443603515625	3646.78016979277
0.814208984375	0.0123870849609375	3646.86867079254
0.818634033203125	0.0124267578125	3646.95717179232
0.82305908203125	0.012469482421875	3647.04567279209
0.827484130859375	0.01251220703125	3647.13417379187
0.8319091796875	0.012554931640625	3647.22267479165
0.836334228515625	0.01259765625	3647.31117579142
0.84075927734375	0.012640380859375	3647.3996767912
0.845184326171875	0.01268310546875	3647.48817779098
0.849609375	0.012725830078125	3647.57667879075
0.854034423828125	0.0127716064453125	3647.66517979053
0.85845947265625	0.0128204345703125	3647.75368079031
0.862884521484375	0.0128662109375	3647.84218179008
0.8673095703125	0.0129119873046875	3647.93068278986
0.871734619140625	0.012957763671875	3648.01918378964
0.87615966796875	0.013006591796875	3648.10768478941
0.880584716796875	0.0130584716796875	3648.19618578919
0.885009765625	0.0131072998046875	3648.28468678897
0.889434814453125	0.0131591796875	3648.37318778874
0.89385986328125	0.0132110595703125	3648.46168878852
0.898284912109375	0.013262939453125	3648.5501897883
0.9027099609375	0.01331787109375	3648.63869078807
0.907135009765625	0.0133758544921875	3648.72719178785
0.91156005859375	0.0134307861328125	3648.81569278763
0.915985107421875	0.013494873046875	3648.9041937874
0.92041015625	0.0135498046875	3648.99269478718
0.924835205078125	0.01361083984375	3649.08119578696
0.92926025390625	0.0136749267578125	3649.16969678673
0.933685302734375	0.0137420654296875	3649.25819778651
0.9381103515625	0.013812255859375	3649.34669878629
0.942535400390625	0.0138824462890625	3649.43519978606
0.94696044921875	0.0139556884765625	3649.52370078584
0.951385498046875	0.0140228271484375	3649.61220178562
0.955810546875	0.0140960693359375	3649.70070278539
0.960235595703125	0.01417236328125	3649.78920378517
0.96466064453125	0.014251708984375	3649.87770478494
0.969085693359375	0.014337158203125	3649.96620578472
0.9735107421875	0.0144195556640625	3650.0547067845
0.977935791015625	0.014501953125	3650.14320778427
0.98236083984375	0.0145904541015625	3650.23170878405
0.986785888671875	0.0146820068359375	3650.32020978383
0.9912109375	0.0147735595703125	3650.4087107836
0.995635986328125	0.0148681640625	3650.49721178338
1.00006103515625	0.0149658203125	3650.58571278316
0.995635986328125	0.0141998291015625	3650.67421378293
0.9912109375	0.01348876953125	3650.76271478271
0.986785888671875	0.0128082275390625	3650.85121578249
0.98236083984375	0.012158203125	3650.93971678226
0.977935791015625	0.0115325927734375	3651.02821778204
0.9735107421875	0.010931396484375	3651.11671878182
0.969085693359375	0.010345458984375	3651.20521978159
0.96466064453125	0.00977783203125	3651.29372078137
0.960235595703125	0.0092315673828125	3651.38222178115
0.955810546875	0.008697509765625	3651.47072278092
0.951385498046875	0.0081817626953125	3651.5592237807
0.94696044921875	0.0076812744140625	3651.64772478048
0.942535400390625	0.00718994140625	3651.73622578025
0.9381103515625	0.0067138671875	3651.82472678003
0.933685302734375	0.0062469482421875	3651.91322777981
0.92926025390625	0.005792236328125	3652.00172877958
0.924835205078125	0.0053497314453125	3652.09022977936
0.92041015625	0.0049176025390625	3652.17873077914
0.915985107421875	0.004495849609375	3652.26723177891
0.91156005859375	0.00408233642578125	3652.35573277869
0.907135009765625	0.003680419921875	3652.44423377846
0.9027099609375	0.00328704833984375	3652.53273477824
0.898284912109375	0.0029052734375	3652.62123577802
0.89385986328125	0.00252838134765625	3652.70973677779
0.889434814453125	0.00215972900390625	3652.79823777757
0.885009765625	0.00179840087890625	3652.88673877735
0.880584716796875	0.0014459228515625	3652.97523977712
0.87615966796875	0.00110076904296875	3653.0637407769
0.871734619140625	0.0007635498046875	3653.15224177668
0.8673095703125	0.00043267822265625	3653.24074277645
0.862884521484375	0.000108795166015625	3653.32924377623
0.85845947265625	-0.00020672607421875	3653.41774477601
0.854034423828125	-0.000516357421875	3653.50624577578
0.849609375	-0.0008197021484375	3653.59474677556
0.845184326171875	-0.00111572265625	3653.68324777534
0.84075927734375	-0.00140655517578125	3653.77174877511
0.836334228515625	-0.00169097900390625	3653.86024977489
0.8319091796875	-0.001968994140625	3653.94875077467
0.827484130859375	-0.0022406005859375	3654.03725177444
0.82305908203125	-0.00250640869140625	3654.12575277422
0.818634033203125	-0.00276641845703125	3654.214253774
0.814208984375	-0.003021240234375	3654.30275477377
0.809783935546875	-0.003270263671875	3654.39125577355
0.80535888671875	-0.0035137939453125	3654.47975677333
0.800933837890625	-0.00375152587890625	3654.5682577731
0.7965087890625	-0.0039837646484375	3654.65675877288
0.792083740234375	-0.00421142578125	3654.74525977266
0.78765869140625	-0.00443389892578125	3654.83376077243
0.783233642578125	-0.00465118408203125	3654.92226177221
0.77880859375	-0.00486328125	3655.01076277198
0.774383544921875	-0.00507080078125	3655.09926377176
0.76995849609375	-0.0052734375	3655.18776477154
0.765533447265625	-0.00547210693359375	3655.27626577131
0.7611083984375	-0.00566619873046875	3655.36476677109
0.756683349609375	-0.00585601806640625	3655.45326777087
0.75225830078125	-0.00604095458984375	3655.54176877064
0.747833251953125	-0.0061981201171875	3655.63026977042
0.743408203125	-0.0063720703125	3655.7187707702
0.738983154296875	-0.00654296875	3655.80727176997
0.73455810546875	-0.0067138671875	3655.89577276975
0.730133056640625	-0.006878662109375	3655.98427376953
0.7257080078125	-0.007037353515625	3656.0727747693
0.721282958984375	-0.0071929931640625	3656.16127576908
0.71685791015625	-0.007342529296875	3656.24977676886
0.712432861328125	-0.0074920654296875	3656.33827776863
0.7080078125	-0.0076385498046875	3656.42677876841
0.703582763671875	-0.007781982421875	3656.51527976819
0.69915771484375	-0.007916259765625	3656.60378076796
0.694732666015625	-0.008050537109375	3656.69228176774
0.6903076171875	-0.0081817626953125	3656.78078276752
0.685882568359375	-0.0083099365234375	3656.86928376729
0.68145751953125	-0.0084381103515625	3656.95778476707
0.677032470703125	-0.0085601806640625	3657.04628576685
0.672607421875	-0.00867919921875	3657.13478676662
0.668182373046875	-0.0087982177734375	3657.2232877664
0.66375732421875	-0.0089111328125	3657.31178876618
0.659332275390625	-0.0090240478515625	3657.40028976595
0.6549072265625	-0.0091339111328125	3657.48879076573
0.650482177734375	-0.0092376708984375	3657.5772917655
0.64605712890625	-0.0093414306640625	3657.66579276528
0.641632080078125	-0.0094390869140625	3657.75429376506
0.63720703125	-0.0095367431640625	3657.84279476483
0.632781982421875	-0.00963134765625	3657.93129576461
0.62835693359375	-0.009722900390625	3658.01979676439
0.623931884765625	-0.009820556640625	3658.10829776416
0.6195068359375	-0.009912109375	3658.19679876394
0.615081787109375	-0.00999755859375	3658.28529976372
0.61065673828125	-0.0100799560546875	3658.37380076349
0.606231689453125	-0.010162353515625	3658.46230176327
0.601806640625	-0.01024169921875	3658.55080276305
0.597381591796875	-0.010321044921875	3658.63930376282
0.59295654296875	-0.0103973388671875	3658.7278047626
0.588531494140625	-0.0104736328125	3658.81630576238
0.5841064453125	-0.0105438232421875	3658.90480676215
0.579681396484375	-0.010614013671875	3658.99330776193
0.57525634765625	-0.0106842041015625	3659.08180876171
0.570831298828125	-0.01075439453125	3659.17030976148
0.56640625	-0.010821533203125	3659.25881076126
0.561981201171875	-0.0108856201171875	3659.34731176104
0.55755615234375	-0.0109466552734375	3659.43581276081
0.553131103515625	-0.0110076904296875	3659.52431376059
0.5487060546875	-0.0110687255859375	3659.61281476037
0.544281005859375	-0.0111297607421875	3659.70131576014
0.53985595703125	-0.0111907958984375	3659.78981675992
0.535430908203125	-0.011248779296875	3659.8783177597
0.531005859375	-0.0113037109375	3659.96681875947
0.526580810546875	-0.011358642578125	3660.05531975925
0.52215576171875	-0.01141357421875	3660.14382075903
0.517730712890625	-0.011468505859375	3660.2323217588
0.5133056640625	-0.0115234375	3660.32082275858
0.508880615234375	-0.0115753173828125	3660.40932375835
0.50445556640625	-0.0116241455078125	3660.49782475813
0.500030517578125	-0.0116729736328125	3660.58632575791
0.49560546875	-0.011724853515625	3660.67482675768
0.491180419921875	-0.011773681640625	3660.76332775746
0.48675537109375	-0.011822509765625	3660.85182875724
0.482330322265625	-0.011871337890625	3660.94032975701
0.4779052734375	-0.0119171142578125	3661.02883075679
0.473480224609375	-0.011962890625	3661.11733175657
0.46905517578125	-0.0120086669921875	3661.20583275634
0.464630126953125	-0.012054443359375	3661.29433375612
0.460205078125	-0.0121002197265625	3661.3828347559
0.455780029296875	-0.01214599609375	3661.47133575567
0.45135498046875	-0.012188720703125	3661.55983675545
0.446929931640625	-0.0122314453125	3661.64833775523
0.4425048828125	-0.012274169921875	3661.736838755
0.438079833984375	-0.01231689453125	3661.82533975478
0.43365478515625	-0.012359619140625	3661.91384075456
0.429229736328125	-0.01240234375	3662.00234175433
0.4248046875	-0.012445068359375	3662.09084275411
0.420379638671875	-0.0124847412109375	3662.17934375389
0.41595458984375	-0.0125244140625	3662.26784475366
0.411529541015625	-0.0125640869140625	3662.35634575344
0.4071044921875	-0.0126068115234375	3662.44484675322
0.402679443359375	-0.012646484375	3662.53334775299
0.39825439453125	-0.0126861572265625	3662.62184875277
0.393829345703125	-0.012725830078125	3662.71034975255
0.389404296875	-0.012762451171875	3662.79885075232
0.384979248046875	-0.0128021240234375	3662.8873517521
0.38055419921875	-0.0128448486328125	3662.97585275188
0.376129150390625	-0.012884521484375	3663.06435375165
0.3717041015625	-0.012921142578125	3663.15285475143
0.367279052734375	-0.012957763671875	3663.2413557512
0.36285400390625	-0.012994384765625	3663.32985675098
0.358428955078125	-0.0130340576171875	3663.41835775076
0.35400390625	-0.01307373046875	3663.50685875053
0.349578857421875	-0.0131072998046875	3663.59535975031
0.34515380859375	-0.01314697265625	3663.68386075009
0.340728759765625	-0.0131805419921875	3663.77236174986
0.3363037109375	-0.0132171630859375	3663.86086274964
0.331878662109375	-0.0132568359375	3663.94936374942
0.32745361328125	-0.0132904052734375	3664.03786474919
0.323028564453125	-0.0133270263671875	3664.12636574897
0.318603515625	-0.0133636474609375	3664.21486674875
0.314178466796875	-0.013397216796875	3664.30336774852
0.30975341796875	-0.013433837890625	3664.3918687483
0.305328369140625	-0.013470458984375	3664.48036974808
0.3009033203125	-0.0135040283203125	3664.56887074785
0.296478271484375	-0.0135406494140625	3664.65737174763
0.29205322265625	-0.01357421875	3664.74587274741
0.287628173828125	-0.0136077880859375	3664.83437374718
0.283203125	-0.013641357421875	3664.92287474696
0.278778076171875	-0.0136749267578125	3665.01137574674
0.27435302734375	-0.01370849609375	3665.09987674651
0.269927978515625	-0.0137420654296875	3665.18837774629
0.2655029296875	-0.013775634765625	3665.27687874607
0.261077880859375	-0.01380615234375	3665.36537974584
0.25665283203125	-0.013836669921875	3665.45388074562
0.252227783203125	-0.0138702392578125	3665.5423817454
0.247802734375	-0.0139007568359375	3665.63088274517
0.243377685546875	-0.013934326171875	3665.71938374495
0.23895263671875	-0.01396484375	3665.80788474473
0.234527587890625	-0.0139984130859375	3665.8963857445
0.2301025390625	-0.01402587890625	3665.98488674428
0.225677490234375	-0.0140533447265625	3666.07338774405
0.22125244140625	-0.0140838623046875	3666.16188874383
0.216827392578125	-0.014117431640625	3666.25038974361
0.21240234375	-0.0141448974609375	3666.33889074338
0.207977294921875	-0.0141754150390625	3666.42739174316
0.20355224609375	-0.0142059326171875	3666.51589274294
0.199127197265625	-0.0142364501953125	3666.60439374271
0.1947021484375	-0.0142669677734375	3666.69289474249
0.190277099609375	-0.0142974853515625	3666.78139574227
0.18585205078125	-0.0143280029296875	3666.86989674204
0.181427001953125	-0.0143585205078125	3666.95839774182
0.177001953125	-0.0143890380859375	3667.0468987416
0.172576904296875	-0.01441650390625	3667.13539974137
0.16815185546875	-0.0144500732421875	3667.22390074115
0.163726806640625	-0.0144805908203125	3667.31240174093
0.1593017578125	-0.0145111083984375	3667.4009027407
0.154876708984375	-0.0145416259765625	3667.48940374048
0.15045166015625	-0.014569091796875	3667.57790474026
0.146026611328125	-0.014599609375	3667.66640574003
0.1416015625	-0.014630126953125	3667.75490673981
0.137176513671875	-0.0146636962890625	3667.84340773959
0.13275146484375	-0.0146942138671875	3667.93190873936
0.128326416015625	-0.0147247314453125	3668.02040973914
0.1239013671875	-0.014752197265625	3668.10891073892
0.119476318359375	-0.01478271484375	3668.19741173869
0.11505126953125	-0.014813232421875	3668.28591273847
0.110626220703125	-0.01484375	3668.37441373825
0.106201171875	-0.0148773193359375	3668.46291473802
0.101776123046875	-0.0149078369140625	3668.5514157378
0.09735107421875	-0.01494140625	3668.63991673757
0.092926025390625	-0.014971923828125	3668.72841773735
0.0885009765625	-0.0150054931640625	3668.81691873713
0.084075927734375	-0.0150390625	3668.9054197369
0.07965087890625	-0.0150726318359375	3668.99392073668
0.075225830078125	-0.015106201171875	3669.08242173646
0.07080078125	-0.0151397705078125	3669.17092273623
0.066375732421875	-0.0151702880859375	3669.25942373601
0.06195068359375	-0.015203857421875	3669.34792473579
0.057525634765625	-0.015240478515625	3669.43642573556
0.0531005859375	-0.015277099609375	3669.52492673534
0.048675537109375	-0.0153106689453125	3669.61342773512
0.04425048828125	-0.0153472900390625	3669.70192873489
0.039825439453125	-0.015380859375	3669.79042973467
0.035400390625	-0.01541748046875	3669.87893073445
0.030975341796875	-0.0154541015625	3669.96743173422
0.02655029296875	-0.01549072265625	3670.055932734
0.022125244140625	-0.0155303955078125	3670.14443373378
0.0177001953125	-0.0155670166015625	3670.23293473355
0.013275146484375	-0.0156036376953125	3670.32143573333
0.00885009765625	-0.0156402587890625	3670.40993673311
0.004425048828125	-0.0156768798828125	3670.49843773288
0	-0.0157196044921875	3670.58693873266
0.004425048828125	-0.0149139404296875	3670.67543973244
0.00885009765625	-0.014154052734375	3670.76394073221
0.013275146484375	-0.0134368896484375	3670.85244173199
0.0177001953125	-0.012744140625	3670.94094273177
0.022125244140625	-0.0120819091796875	3671.02944373154
0.02655029296875	-0.011444091796875	3671.11794473132
0.030975341796875	-0.0108306884765625	3671.20644573109
0.035400390625	-0.010235595703125	3671.29494673087
0.039825439453125	-0.0096588134765625	3671.38344773065
0.04425048828125	-0.0091033935546875	3671.47194873042
0.048675537109375	-0.008563232421875	3671.5604497302
0.0531005859375	-0.008038330078125	3671.64895072998
0.057525634765625	-0.00753173828125	3671.73745172975
0.06195068359375	-0.007037353515625	3671.82595272953
0.066375732421875	-0.00655517578125	3671.91445372931
0.07080078125	-0.0060882568359375	3672.00295472908
0.075225830078125	-0.005633544921875	3672.09145572886
0.07965087890625	-0.005194091796875	3672.17995672864
0.084075927734375	-0.0047650146484375	3672.26845772841
0.0885009765625	-0.0043463134765625	3672.35695872819
0.092926025390625	-0.0039373779296875	3672.44545972797
0.09735107421875	-0.0035394287109375	3672.53396072774
0.101776123046875	-0.00315216064453125	3672.62246172752
0.106201171875	-0.0027850341796875	3672.7109627273
0.110626220703125	-0.002415771484375	3672.79946372707
0.11505126953125	-0.0020556640625	3672.88796472685
0.119476318359375	-0.00170623779296875	3672.97646572663
0.1239013671875	-0.00136322021484375	3673.0649667264
0.128326416015625	-0.001029052734375	3673.15346772618
0.13275146484375	-0.00070281982421875	3673.24196872596
0.137176513671875	-0.00038397216796875	3673.33046972573
0.1416015625	-7.305908203125E-05	3673.41897072551
0.146026611328125	0.00023138427734375	3673.50747172529
0.15045166015625	0.00052825927734375	3673.59597272506
0.154876708984375	0.00081817626953125	3673.68447372484
0.1593017578125	0.0011004638671875	3673.77297472461
0.163726806640625	0.0013775634765625	3673.86147572439
0.16815185546875	0.00164764404296875	3673.94997672417
0.172576904296875	0.0019110107421875	3674.03847772394
0.177001953125	0.0021697998046875	3674.12697872372
0.181427001953125	0.00242218017578125	3674.2154797235
0.18585205078125	0.00266815185546875	3674.30398072327
0.190277099609375	0.00290924072265625	3674.39248172305
0.1947021484375	0.00314483642578125	3674.48098272283
0.199127197265625	0.0033746337890625	3674.5694837226
0.20355224609375	0.003599853515625	3674.65798472238
0.207977294921875	0.00381927490234375	3674.74648572216
0.21240234375	0.0040338134765625	3674.83498672193
0.216827392578125	0.00424285888671875	3674.92348772171
0.22125244140625	0.00444732666015625	3675.01198872149
0.225677490234375	0.00464691162109375	3675.10048972126
0.2301025390625	0.004842529296875	3675.18899072104
0.234527587890625	0.005032958984375	3675.27749172082
0.23895263671875	0.005220947265625	3675.36599272059
0.243377685546875	0.00540496826171875	3675.45449372037
0.247802734375	0.00558502197265625	3675.54299472015
0.252227783203125	0.00576141357421875	3675.63149571992
0.25665283203125	0.00593353271484375	3675.7199967197
0.261077880859375	0.0061016845703125	3675.80849771948
0.2655029296875	0.006256103515625	3675.89699871925
0.269927978515625	0.0064178466796875	3675.98549971903
0.27435302734375	0.006573486328125	3676.07400071881
0.278778076171875	0.0067291259765625	3676.16250171858
0.283203125	0.006878662109375	3676.25100271836
0.287628173828125	0.007025146484375	3676.33950371813
0.29205322265625	0.00716552734375	3676.42800471791
0.296478271484375	0.007305908203125	3676.51650571769
0.3009033203125	0.0074462890625	3676.60500671746
0.305328369140625	0.00758056640625	3676.69350771724
0.30975341796875	0.0077117919921875	3676.78200871702
0.314178466796875	0.0078399658203125	3676.87050971679
0.318603515625	0.0079681396484375	3676.95901071657
0.323028564453125	0.00809326171875	3677.04751171635
0.32745361328125	0.00821533203125	3677.13601271612
0.331878662109375	0.0083343505859375	3677.2245137159
0.3363037109375	0.008453369140625	3677.31301471568
0.340728759765625	0.0085662841796875	3677.40151571545
0.34515380859375	0.00867919921875	3677.49001671523
0.349578857421875	0.0087890625	3677.57851771501
0.35400390625	0.0088958740234375	3677.66701871478
0.358428955078125	0.0089996337890625	3677.75551971456
0.36285400390625	0.0091033935546875	3677.84402071434
0.367279052734375	0.0092071533203125	3677.93252171411
0.3717041015625	0.0093048095703125	3678.02102271389
0.376129150390625	0.0093994140625	3678.10952371367
0.38055419921875	0.0094970703125	3678.19802471344
0.384979248046875	0.0095916748046875	3678.28652571322
0.389404296875	0.0096832275390625	3678.375026713
0.393829345703125	0.0097747802734375	3678.46352771277
0.39825439453125	0.00986328125	3678.55202871255
0.402679443359375	0.00994873046875	3678.64052971233
0.4071044921875	0.0100341796875	3678.7290307121
0.411529541015625	0.01011962890625	3678.81753171188
0.41595458984375	0.0102020263671875	3678.90603271165
0.420379638671875	0.0102813720703125	3678.99453371143
0.4248046875	0.0103607177734375	3679.08303471121
0.429229736328125	0.0104400634765625	3679.17153571098
0.43365478515625	0.010516357421875	3679.26003671076
0.438079833984375	0.0105926513671875	3679.34853771054
0.4425048828125	0.0106658935546875	3679.43703871031
0.446929931640625	0.0107391357421875	3679.52553971009
0.45135498046875	0.010809326171875	3679.61404070987
0.455780029296875	0.0108795166015625	3679.70254170964
0.460205078125	0.0109466552734375	3679.79104270942
0.464630126953125	0.0110137939453125	3679.8795437092
0.46905517578125	0.0110809326171875	3679.96804470897
0.473480224609375	0.01114501953125	3680.05654570875
0.4779052734375	0.0112091064453125	3680.14504670853
0.482330322265625	0.011273193359375	3680.2335477083
0.48675537109375	0.011334228515625	3680.32204870808
0.491180419921875	0.0113983154296875	3680.41054970786
0.49560546875	0.0114593505859375	3680.49905070763
0.500030517578125	0.011517333984375	3680.58755170741
0.50445556640625	0.0115753173828125	3680.67605270719
0.508880615234375	0.0116302490234375	3680.76455370696
0.5133056640625	0.011688232421875	3680.85305470674
0.517730712890625	0.0117401123046875	3680.94155570652
0.52215576171875	0.0117950439453125	3681.03005670629
0.526580810546875	0.011846923828125	3681.11855770607
0.531005859375	0.0118988037109375	3681.20705870585
0.535430908203125	0.01195068359375	3681.29555970562
0.53985595703125	0.01199951171875	3681.3840607054
0.544281005859375	0.01204833984375	3681.47256170518
0.5487060546875	0.01209716796875	3681.56106270495
0.553131103515625	0.0121429443359375	3681.64956370473
0.55755615234375	0.012188720703125	3681.7380647045
0.561981201171875	0.0122344970703125	3681.82656570428
0.56640625	0.0122772216796875	3681.91506670406
0.570831298828125	0.012322998046875	3682.00356770383
0.57525634765625	0.01236572265625	3682.09206870361
0.579681396484375	0.012408447265625	3682.18056970339
0.5841064453125	0.0124481201171875	3682.26907070316
0.588531494140625	0.0124847412109375	3682.35757170294
0.59295654296875	0.0125213623046875	3682.44607270272
0.597381591796875	0.01256103515625	3682.53457370249
0.601806640625	0.0126007080078125	3682.62307470227
0.606231689453125	0.0126373291015625	3682.71157570205
0.61065673828125	0.0126739501953125	3682.80007670182
0.615081787109375	0.01270751953125	3682.8885777016
0.6195068359375	0.0127410888671875	3682.97707870138
0.623931884765625	0.0127777099609375	3683.06557970115
0.62835693359375	0.0128143310546875	3683.15408070093
0.632781982421875	0.012847900390625	3683.24258170071
0.63720703125	0.0128814697265625	3683.33108270048
0.641632080078125	0.0129119873046875	3683.41958370026
0.64605712890625	0.012939453125	3683.50808470004
0.650482177734375	0.0129730224609375	3683.59658569981
0.6549072265625	0.01300048828125	3683.68508669959
0.659332275390625	0.013031005859375	3683.77358769937
0.66375732421875	0.0130615234375	3683.86208869914
0.668182373046875	0.0130859375	3683.95058969892
0.672607421875	0.0131134033203125	3684.0390906987
0.677032470703125	0.013140869140625	3684.12759169847
0.68145751953125	0.0131683349609375	3684.21609269825
0.685882568359375	0.0131927490234375	3684.30459369803
0.6903076171875	0.01322021484375	3684.3930946978
0.694732666015625	0.01324462890625	3684.48159569758
0.69915771484375	0.0132659912109375	3684.57009669735
0.703582763671875	0.0132904052734375	3684.65859769713
0.7080078125	0.0133148193359375	3684.74709869691
0.712432861328125	0.0133392333984375	3684.83559969668
0.71685791015625	0.0133636474609375	3684.92410069646
0.721282958984375	0.013385009765625	3685.01260169624
0.7257080078125	0.013409423828125	3685.10110269601
0.730133056640625	0.0134307861328125	3685.18960369579
0.73455810546875	0.0134521484375	3685.27810469557
0.738983154296875	0.0134765625	3685.36660569534
0.743408203125	0.0134979248046875	3685.45510669512
0.747833251953125	0.013519287109375	3685.5436076949
0.75225830078125	0.0135406494140625	3685.63210869467
0.756683349609375	0.01356201171875	3685.72060969445
0.7611083984375	0.0135833740234375	3685.80911069423
0.765533447265625	0.0136077880859375	3685.897611694
0.76995849609375	0.013629150390625	3685.98611269378
0.774383544921875	0.0136505126953125	3686.07461369356
0.77880859375	0.0136749267578125	3686.16311469333
0.783233642578125	0.0136962890625	3686.25161569311
0.78765869140625	0.0137176513671875	3686.34011669289
0.792083740234375	0.0137420654296875	3686.42861769266
0.7965087890625	0.0137664794921875	3686.51711869244
0.800933837890625	0.013787841796875	3686.60561969222
0.80535888671875	0.013812255859375	3686.69412069199
0.809783935546875	0.0138336181640625	3686.78262169177
0.814208984375	0.0138580322265625	3686.87112269155
0.818634033203125	0.013885498046875	3686.95962369132
0.82305908203125	0.013909912109375	3687.0481246911
0.827484130859375	0.013934326171875	3687.13662569088
0.8319091796875	0.0139617919921875	3687.22512669065
0.836334228515625	0.0139862060546875	3687.31362769043
0.84075927734375	0.014013671875	3687.4021286902
0.845184326171875	0.0140411376953125	3687.49062968998
0.849609375	0.014068603515625	3687.57913068976
0.854034423828125	0.01409912109375	3687.66763168953
0.85845947265625	0.014129638671875	3687.75613268931
0.862884521484375	0.0141571044921875	3687.84463368909
0.8673095703125	0.0141876220703125	3687.93313468886
0.871734619140625	0.0142242431640625	3688.02163568864
0.87615966796875	0.0142578125	3688.11013668842
0.880584716796875	0.01429443359375	3688.19863768819
0.885009765625	0.0143310546875	3688.28713868797
0.889434814453125	0.01436767578125	3688.37563968775
0.89385986328125	0.014404296875	3688.46414068752
0.898284912109375	0.014447021484375	3688.5526416873
0.9027099609375	0.01448974609375	3688.64114268708
0.907135009765625	0.014532470703125	3688.72964368685
0.91156005859375	0.0145751953125	3688.81814468663
0.915985107421875	0.0146209716796875	3688.90664568641
0.92041015625	0.0146697998046875	3688.99514668618
0.924835205078125	0.0147186279296875	3689.08364768596
0.92926025390625	0.0147705078125	3689.17214868574
0.933685302734375	0.0148223876953125	3689.26064968551
0.9381103515625	0.01488037109375	3689.34915068529
0.942535400390625	0.014935302734375	3689.43765168507
0.94696044921875	0.0149932861328125	3689.52615268484
0.951385498046875	0.0150543212890625	3689.61465368462
0.955810546875	0.0151153564453125	3689.7031546844
0.960235595703125	0.0151824951171875	3689.79165568417
0.96466064453125	0.0152496337890625	3689.88015668395
0.969085693359375	0.0153167724609375	3689.96865768372
0.9735107421875	0.0153900146484375	3690.0571586835
0.977935791015625	0.015460205078125	3690.14565968328
0.98236083984375	0.0155364990234375	3690.23416068305
0.986785888671875	0.0156158447265625	3690.32266168283
0.9912109375	0.0156951904296875	3690.41116268261
0.995635986328125	0.015777587890625	3690.49966368238
1.00006103515625	0.0158660888671875	3690.58816468216
0.995635986328125	0.0150909423828125	3690.67666568194
0.9912109375	0.0143646240234375	3690.76516668171
0.986785888671875	0.0136749267578125	3690.85366768149
0.98236083984375	0.0130126953125	3690.94216868127
0.977935791015625	0.0123748779296875	3691.03066968104
0.9735107421875	0.011761474609375	3691.11917068082
0.969085693359375	0.011163330078125	3691.2076716806
0.96466064453125	0.0105926513671875	3691.29617268037
0.960235595703125	0.0100341796875	3691.38467368015
0.955810546875	0.009490966796875	3691.47317467993
0.951385498046875	0.0089630126953125	3691.5616756797
0.94696044921875	0.0084503173828125	3691.65017667948
0.942535400390625	0.0079498291015625	3691.73867767926
0.9381103515625	0.007464599609375	3691.82717867903
0.933685302734375	0.006988525390625	3691.91567967881
0.92926025390625	0.006524658203125	3692.00418067859
0.924835205078125	0.006072998046875	3692.09268167836
0.92041015625	0.0056304931640625	3692.18118267814
0.915985107421875	0.0052001953125	3692.26968367792
0.91156005859375	0.00477783203125	3692.35818467769
0.907135009765625	0.00436614990234375	3692.44668567747
0.9027099609375	0.00396514892578125	3692.53518667724
0.898284912109375	0.00357147216796875	3692.62368767702
0.89385986328125	0.0031866455078125	3692.7121886768
0.889434814453125	0.00281219482421875	3692.80068967657
0.885009765625	0.0024444580078125	3692.88919067635
0.880584716796875	0.002083740234375	3692.97769167613
0.87615966796875	0.00173126220703125	3693.0661926759
0.871734619140625	0.001385498046875	3693.15469367568
0.8673095703125	0.00104705810546875	3693.24319467546
0.862884521484375	0.0007159423828125	3693.33169567523
0.85845947265625	0.000393157958984375	3693.42019667501
0.854034423828125	7.623291015625E-05	3693.50869767479
0.849609375	-0.000234283447265625	3693.59719867456
0.845184326171875	-0.0005377197265625	3693.68569967434
0.84075927734375	-0.00083526611328125	3693.77420067412
0.836334228515625	-0.00112640380859375	3693.86270167389
0.8319091796875	-0.00141082763671875	3693.95120267367
0.827484130859375	-0.001689453125	3694.03970367345
0.82305908203125	-0.00196197509765625	3694.12820467322
0.818634033203125	-0.0022283935546875	3694.216705673
0.814208984375	-0.00248992919921875	3694.30520667278
0.809783935546875	-0.00274444580078125	3694.39370767255
0.80535888671875	-0.0029937744140625	3694.48220867233
0.800933837890625	-0.0032379150390625	3694.57070967211
0.7965087890625	-0.00347686767578125	3694.65921067188
0.792083740234375	-0.0037103271484375	3694.74771167166
0.78765869140625	-0.00393829345703125	3694.83621267144
0.783233642578125	-0.0041607666015625	3694.92471367121
0.77880859375	-0.00437835693359375	3695.01321467099
0.774383544921875	-0.0045916748046875	3695.10171567076
0.76995849609375	-0.00480010986328125	3695.19021667054
0.765533447265625	-0.00500396728515625	3695.27871767032
0.7611083984375	-0.00520263671875	3695.36721867009
0.756683349609375	-0.005396728515625	3695.45571966987
0.75225830078125	-0.0055859375	3695.54422066965
0.747833251953125	-0.005771484375	3695.63272166942
0.743408203125	-0.00595306396484375	3695.7212226692
0.738983154296875	-0.00612762451171875	3695.80972366898
0.73455810546875	-0.0062774658203125	3695.89822466875
0.730133056640625	-0.0064453125	3695.98672566853
0.7257080078125	-0.006610107421875	3696.07522666831
0.721282958984375	-0.0067718505859375	3696.16372766808
0.71685791015625	-0.006927490234375	3696.25222866786
0.712432861328125	-0.007080078125	3696.34072966764
0.7080078125	-0.007232666015625	3696.42923066741
0.703582763671875	-0.0073760986328125	3696.51773166719
0.69915771484375	-0.00751953125	3696.60623266697
0.694732666015625	-0.0076568603515625	3696.69473366674
0.6903076171875	-0.0077911376953125	3696.78323466652
0.685882568359375	-0.00792236328125	3696.8717356663
0.68145751953125	-0.008050537109375	3696.96023666607
0.677032470703125	-0.0081787109375	3697.04873766585
0.672607421875	-0.00830078125	3697.13723866563
0.668182373046875	-0.0084197998046875	3697.2257396654
0.66375732421875	-0.008538818359375	3697.31424066518
0.659332275390625	-0.0086517333984375	3697.40274166496
0.6549072265625	-0.0087646484375	3697.49124266473
0.650482177734375	-0.00887451171875	3697.57974366451
0.64605712890625	-0.008978271484375	3697.66824466429
0.641632080078125	-0.00908203125	3697.75674566406
0.63720703125	-0.0091827392578125	3697.84524666384
0.632781982421875	-0.009283447265625	3697.93374766361
0.62835693359375	-0.009381103515625	3698.02224866339
0.623931884765625	-0.0094818115234375	3698.11074966317
0.6195068359375	-0.0095733642578125	3698.19925066294
0.615081787109375	-0.009661865234375	3698.28775166272
0.61065673828125	-0.009747314453125	3698.3762526625
0.606231689453125	-0.0098358154296875	3698.46475366227
0.601806640625	-0.0099212646484375	3698.55325466205
0.597381591796875	-0.010003662109375	3698.64175566183
0.59295654296875	-0.0100830078125	3698.7302566616
0.588531494140625	-0.01015625	3698.81875766138
0.5841064453125	-0.0102325439453125	3698.90725866116
0.579681396484375	-0.010308837890625	3698.99575966093
0.57525634765625	-0.010382080078125	3699.08426066071
0.570831298828125	-0.0104522705078125	3699.17276166049
0.56640625	-0.0105224609375	3699.26126266026
0.561981201171875	-0.010589599609375	3699.34976366004
0.55755615234375	-0.01065673828125	3699.43826465982
0.553131103515625	-0.010723876953125	3699.52676565959
0.5487060546875	-0.0107879638671875	3699.61526665937
0.544281005859375	-0.0108489990234375	3699.70376765915
0.53985595703125	-0.0109100341796875	3699.79226865892
0.535430908203125	-0.010968017578125	3699.8807696587
0.531005859375	-0.011029052734375	3699.96927065848
0.526580810546875	-0.0110870361328125	3700.05777165825
0.52215576171875	-0.01114501953125	3700.14627265803
0.517730712890625	-0.0112030029296875	3700.23477365781
0.5133056640625	-0.0112579345703125	3700.32327465758
0.508880615234375	-0.011309814453125	3700.41177565736
0.50445556640625	-0.01136474609375	3700.50027665714
0.500030517578125	-0.0114166259765625	3700.58877765691
0.49560546875	-0.0114715576171875	3700.67727865669
0.491180419921875	-0.0115234375	3700.76577965646
0.48675537109375	-0.0115753173828125	3700.85428065624
0.482330322265625	-0.0116241455078125	3700.94278165602
0.4779052734375	-0.0116729736328125	3701.03128265579
0.473480224609375	-0.0117218017578125	3701.11978365557
0.46905517578125	-0.0117706298828125	3701.20828465535
0.464630126953125	-0.01181640625	3701.29678565512
0.460205078125	-0.011865234375	3701.3852866549
0.455780029296875	-0.011907958984375	3701.47378765468
0.45135498046875	-0.011956787109375	3701.56228865445
0.446929931640625	-0.0120025634765625	3701.65078965423
0.4425048828125	-0.01204833984375	3701.73929065401
0.438079833984375	-0.0120941162109375	3701.82779165378
0.43365478515625	-0.012139892578125	3701.91629265356
0.429229736328125	-0.0121826171875	3702.00479365334
0.4248046875	-0.012225341796875	3702.09329465311
0.420379638671875	-0.01226806640625	3702.18179565289
0.41595458984375	-0.0123138427734375	3702.27029665267
0.411529541015625	-0.0123565673828125	3702.35879765244
0.4071044921875	-0.0123992919921875	3702.44729865222
0.402679443359375	-0.0124420166015625	3702.535799652
0.39825439453125	-0.012481689453125	3702.62430065177
0.393829345703125	-0.0125213623046875	3702.71280165155
0.389404296875	-0.0125640869140625	3702.80130265133
0.384979248046875	-0.0126068115234375	3702.8898036511
0.38055419921875	-0.012646484375	3702.97830465088
0.376129150390625	-0.0126861572265625	3703.06680565066
0.3717041015625	-0.012725830078125	3703.15530665043
0.367279052734375	-0.0127655029296875	3703.24380765021
0.36285400390625	-0.0128082275390625	3703.33230864998
0.358428955078125	-0.012847900390625	3703.42080964976
0.35400390625	-0.0128875732421875	3703.50931064954
0.349578857421875	-0.0129241943359375	3703.59781164931
0.34515380859375	-0.0129608154296875	3703.68631264909
0.340728759765625	-0.01300048828125	3703.77481364887
0.3363037109375	-0.013037109375	3703.86331464864
0.331878662109375	-0.0130767822265625	3703.95181564842
0.32745361328125	-0.013116455078125	3704.0403166482
0.323028564453125	-0.013153076171875	3704.12881764797
0.318603515625	-0.0131866455078125	3704.21731864775
0.314178466796875	-0.0132232666015625	3704.30581964753
0.30975341796875	-0.013262939453125	3704.3943206473
0.305328369140625	-0.013299560546875	3704.48282164708
0.3009033203125	-0.013336181640625	3704.57132264686
0.296478271484375	-0.0133697509765625	3704.65982364663
0.29205322265625	-0.0134063720703125	3704.74832464641
0.287628173828125	-0.01343994140625	3704.83682564619
0.283203125	-0.0134765625	3704.92532664596
0.278778076171875	-0.0135101318359375	3705.01382764574
0.27435302734375	-0.013543701171875	3705.10232864552
0.269927978515625	-0.0135772705078125	3705.19082964529
0.2655029296875	-0.01361083984375	3705.27933064507
0.261077880859375	-0.0136444091796875	3705.36783164485
0.25665283203125	-0.013677978515625	3705.45633264462
0.252227783203125	-0.0137115478515625	3705.5448336444
0.247802734375	-0.0137451171875	3705.63333464418
0.243377685546875	-0.013775634765625	3705.72183564395
0.23895263671875	-0.01380615234375	3705.81033664373
0.234527587890625	-0.0138397216796875	3705.8988376435
0.2301025390625	-0.0138702392578125	3705.98733864328
0.225677490234375	-0.0139007568359375	3706.07583964306
0.22125244140625	-0.013934326171875	3706.16434064283
0.216827392578125	-0.01396484375	3706.25284164261
0.21240234375	-0.013995361328125	3706.34134264239
0.207977294921875	-0.0140228271484375	3706.42984364216
0.20355224609375	-0.0140533447265625	3706.51834464194
0.199127197265625	-0.0140838623046875	3706.60684564172
0.1947021484375	-0.0141143798828125	3706.69534664149
0.190277099609375	-0.0141448974609375	3706.78384764127
0.18585205078125	-0.01417236328125	3706.87234864105
0.181427001953125	-0.014202880859375	3706.96084964082
0.177001953125	-0.0142333984375	3707.0493506406
0.172576904296875	-0.014263916015625	3707.13785164038
0.16815185546875	-0.01429443359375	3707.22635264015
0.163726806640625	-0.014324951171875	3707.31485363993
0.1593017578125	-0.01435546875	3707.40335463971
0.154876708984375	-0.0143829345703125	3707.49185563948
0.15045166015625	-0.0144134521484375	3707.58035663926
0.146026611328125	-0.0144439697265625	3707.66885763904
0.1416015625	-0.0144744873046875	3707.75735863881
0.137176513671875	-0.014501953125	3707.84585963859
0.13275146484375	-0.014532470703125	3707.93436063837
0.128326416015625	-0.01456298828125	3708.02286163814
0.1239013671875	-0.0145904541015625	3708.11136263792
0.119476318359375	-0.0146209716796875	3708.1998636377
0.11505126953125	-0.0146514892578125	3708.28836463747
0.110626220703125	-0.0146820068359375	3708.37686563725
0.106201171875	-0.01470947265625	3708.46536663702
0.101776123046875	-0.0147430419921875	3708.5538676368
0.09735107421875	-0.0147735595703125	3708.64236863658
0.092926025390625	-0.0148040771484375	3708.73086963635
0.0885009765625	-0.0148345947265625	3708.81937063613
0.084075927734375	-0.0148651123046875	3708.90787163591
0.07965087890625	-0.0148956298828125	3708.99637263568
0.075225830078125	-0.0149261474609375	3709.08487363546
0.07080078125	-0.0149566650390625	3709.17337463524
0.066375732421875	-0.014990234375	3709.26187563501
0.06195068359375	-0.0150238037109375	3709.35037663479
0.057525634765625	-0.015057373046875	3709.43887763457
0.0531005859375	-0.0150909423828125	3709.52737863434
0.048675537109375	-0.0151214599609375	3709.61587963412
0.04425048828125	-0.015155029296875	3709.7043806339
0.039825439453125	-0.015191650390625	3709.79288163367
0.035400390625	-0.0152252197265625	3709.88138263345
0.030975341796875	-0.0152618408203125	3709.96988363323
0.02655029296875	-0.0152984619140625	3710.058384633
0.022125244140625	-0.01533203125	3710.14688563278
0.0177001953125	-0.01536865234375	3710.23538663256
0.013275146484375	-0.0154052734375	3710.32388763233
0.00885009765625	-0.01544189453125	3710.41238863211
0.004425048828125	-0.0154815673828125	3710.50088963189
0	-0.0155181884765625	3710.58939063166
0.004425048828125	-0.0147125244140625	3710.67789163144
0.00885009765625	-0.0139556884765625	3710.76639263122
0.013275146484375	-0.013232421875	3710.85489363099
0.0177001953125	-0.012542724609375	3710.94339463077
0.022125244140625	-0.011883544921875	3711.03189563055
0.02655029296875	-0.01124267578125	3711.12039663032
0.030975341796875	-0.0106292724609375	3711.2088976301
0.035400390625	-0.0100341796875	3711.29739862987
0.039825439453125	-0.0094573974609375	3711.38589962965
0.04425048828125	-0.0089019775390625	3711.47440062943
0.048675537109375	-0.0083648681640625	3711.5629016292
0.0531005859375	-0.0078399658203125	3711.65140262898
0.057525634765625	-0.0073333740234375	3711.73990362876
0.06195068359375	-0.006842041015625	3711.82840462853
0.066375732421875	-0.00635986328125	3711.91690562831
0.07080078125	-0.00589599609375	3712.00540662809
0.075225830078125	-0.0054443359375	3712.09390762786
0.07965087890625	-0.0050018310546875	3712.18240862764
0.084075927734375	-0.0045758056640625	3712.27090962742
0.0885009765625	-0.00415802001953125	3712.35941062719
0.092926025390625	-0.00375152587890625	3712.44791162697
0.09735107421875	-0.00335601806640625	3712.53641262675
0.101776123046875	-0.002969970703125	3712.62491362652
0.106201171875	-0.0026043701171875	3712.7134146263
0.110626220703125	-0.00223663330078125	3712.80191562608
0.11505126953125	-0.00187774658203125	3712.89041662585
0.119476318359375	-0.0015301513671875	3712.97891762563
0.1239013671875	-0.0011895751953125	3713.06741862541
0.128326416015625	-0.00085723876953125	3713.15591962518
0.13275146484375	-0.0005322265625	3713.24442062496
0.137176513671875	-0.000215667724609375	3713.33292162474
0.1416015625	9.4024658203125E-05	3713.42142262451
0.146026611328125	0.000396148681640625	3713.50992362429
0.15045166015625	0.0006915283203125	3713.59842462407
0.154876708984375	0.00097900390625	3713.68692562384
0.1593017578125	0.00126007080078125	3713.77542662362
0.163726806640625	0.00153533935546875	3713.86392762339
0.16815185546875	0.001802978515625	3713.95242862317
0.172576904296875	0.0020654296875	3714.04092962295
0.177001953125	0.00232208251953125	3714.12943062272
0.181427001953125	0.00257232666015625	3714.2179316225
0.18585205078125	0.0028167724609375	3714.30643262228
0.190277099609375	0.00305633544921875	3714.39493362205
0.1947021484375	0.00329010009765625	3714.48343462183
0.199127197265625	0.00351776123046875	3714.57193562161
0.20355224609375	0.00374053955078125	3714.66043662138
0.207977294921875	0.00395843505859375	3714.74893762116
0.21240234375	0.0041717529296875	3714.83743862094
0.216827392578125	0.00437835693359375	3714.92593962071
0.22125244140625	0.00458038330078125	3715.01444062049
0.225677490234375	0.00477813720703125	3715.10294162027
0.2301025390625	0.00497222900390625	3715.19144262004
0.234527587890625	0.0051617431640625	3715.27994361982
0.23895263671875	0.0053485107421875	3715.3684446196
0.243377685546875	0.00553070068359375	3715.45694561937
0.247802734375	0.0057086181640625	3715.54544661915
0.252227783203125	0.005882568359375	3715.63394761893
0.25665283203125	0.00605255126953125	3715.7224486187
0.261077880859375	0.0062103271484375	3715.81094961848
0.2655029296875	0.0063720703125	3715.89945061826
0.269927978515625	0.00653076171875	3715.98795161803
0.27435302734375	0.0066864013671875	3716.07645261781
0.278778076171875	0.0068389892578125	3716.16495361759
0.283203125	0.0069854736328125	3716.25345461736
0.287628173828125	0.00712890625	3716.34195561714
0.29205322265625	0.0072723388671875	3716.43045661691
0.296478271484375	0.0074127197265625	3716.51895761669
0.3009033203125	0.0075469970703125	3716.60745861647
0.305328369140625	0.007684326171875	3716.69595961624
0.30975341796875	0.0078125	3716.78446061602
0.314178466796875	0.0079437255859375	3716.8729616158
0.318603515625	0.00806884765625	3716.96146261557
0.323028564453125	0.00819091796875	3717.04996361535
0.32745361328125	0.0083099365234375	3717.13846461513
0.331878662109375	0.008428955078125	3717.2269656149
0.3363037109375	0.008544921875	3717.31546661468
0.340728759765625	0.008660888671875	3717.40396761446
0.34515380859375	0.008770751953125	3717.49246861423
0.349578857421875	0.008880615234375	3717.58096961401
0.35400390625	0.008984375	3717.66947061379
0.358428955078125	0.009088134765625	3717.75797161356
0.36285400390625	0.009185791015625	3717.84647261334
0.367279052734375	0.0092864990234375	3717.93497361312
0.3717041015625	0.0093841552734375	3718.02347461289
0.376129150390625	0.0094818115234375	3718.11197561267
0.38055419921875	0.009576416015625	3718.20047661245
0.384979248046875	0.00966796875	3718.28897761222
0.389404296875	0.009759521484375	3718.377478612
0.393829345703125	0.0098480224609375	3718.46597961178
0.39825439453125	0.0099365234375	3718.55448061155
0.402679443359375	0.01002197265625	3718.64298161133
0.4071044921875	0.010107421875	3718.73148261111
0.411529541015625	0.010186767578125	3718.81998361088
0.41595458984375	0.0102691650390625	3718.90848461066
0.420379638671875	0.0103485107421875	3718.99698561044
0.4248046875	0.0104278564453125	3719.08548661021
0.429229736328125	0.010504150390625	3719.17398760999
0.43365478515625	0.0105804443359375	3719.26248860976
0.438079833984375	0.0106536865234375	3719.35098960954
0.4425048828125	0.0107269287109375	3719.43949060932
0.446929931640625	0.010797119140625	3719.52799160909
0.45135498046875	0.0108673095703125	3719.61649260887
0.455780029296875	0.0109375	3719.70499360865
0.460205078125	0.011004638671875	3719.79349460842
0.464630126953125	0.01107177734375	3719.8819956082
0.46905517578125	0.0111328125	3719.97049660798
0.473480224609375	0.011199951171875	3720.05899760775
0.4779052734375	0.011260986328125	3720.14749860753
0.482330322265625	0.0113250732421875	3720.23599960731
0.48675537109375	0.0113861083984375	3720.32450060708
0.491180419921875	0.0114471435546875	3720.41300160686
0.49560546875	0.011505126953125	3720.50150260664
0.500030517578125	0.0115631103515625	3720.59000360641
0.50445556640625	0.01162109375	3720.67850460619
0.508880615234375	0.011676025390625	3720.76700560597
0.5133056640625	0.01173095703125	3720.85550660574
0.517730712890625	0.0117828369140625	3720.94400760552
0.52215576171875	0.0118377685546875	3721.0325086053
0.526580810546875	0.0118865966796875	3721.12100960507
0.531005859375	0.0119384765625	3721.20951060485
0.535430908203125	0.0119903564453125	3721.29801160463
0.53985595703125	0.0120391845703125	3721.3865126044
0.544281005859375	0.0120880126953125	3721.47501360418
0.5487060546875	0.0121307373046875	3721.56351460396
0.553131103515625	0.0121795654296875	3721.65201560373
0.55755615234375	0.0122222900390625	3721.74051660351
0.561981201171875	0.01226806640625	3721.82901760329
0.56640625	0.012310791015625	3721.91751860306
0.570831298828125	0.012353515625	3722.00601960284
0.57525634765625	0.012396240234375	3722.09452060261
0.579681396484375	0.0124359130859375	3722.18302160239
0.5841064453125	0.0124755859375	3722.27152260217
0.588531494140625	0.01251220703125	3722.36002360194
0.59295654296875	0.0125518798828125	3722.44852460172
0.597381591796875	0.0125885009765625	3722.5370256015
0.601806640625	0.0126251220703125	3722.62552660127
0.606231689453125	0.0126617431640625	3722.71402760105
0.61065673828125	0.0126983642578125	3722.80252860083
0.615081787109375	0.01273193359375	3722.8910296006
0.6195068359375	0.0127655029296875	3722.97953060038
0.623931884765625	0.012799072265625	3723.06803160016
0.62835693359375	0.012835693359375	3723.15653259993
0.632781982421875	0.0128692626953125	3723.24503359971
0.63720703125	0.0128997802734375	3723.33353459949
0.641632080078125	0.0129302978515625	3723.42203559926
0.64605712890625	0.0129608154296875	3723.51053659904
0.650482177734375	0.0129913330078125	3723.59903759882
0.6549072265625	0.013018798828125	3723.68753859859
0.659332275390625	0.0130462646484375	3723.77603959837
0.66375732421875	0.01307373046875	3723.86454059815
0.668182373046875	0.0131011962890625	3723.95304159792
0.672607421875	0.013128662109375	3724.0415425977
0.677032470703125	0.0131561279296875	3724.13004359748
0.68145751953125	0.0131805419921875	3724.21854459725
0.685882568359375	0.0132080078125	3724.30704559703
0.6903076171875	0.013232421875	3724.39554659681
0.694732666015625	0.0132568359375	3724.48404759658
0.69915771484375	0.01328125	3724.57254859636
0.703582763671875	0.0133026123046875	3724.66104959613
0.7080078125	0.0133270263671875	3724.74955059591
0.712432861328125	0.013348388671875	3724.83805159569
0.71685791015625	0.013372802734375	3724.92655259546
0.721282958984375	0.0133941650390625	3725.01505359524
0.7257080078125	0.01341552734375	3725.10355459502
0.730133056640625	0.01343994140625	3725.19205559479
0.73455810546875	0.0134613037109375	3725.28055659457
0.738983154296875	0.013482666015625	3725.36905759435
0.743408203125	0.0135009765625	3725.45755859412
0.747833251953125	0.013525390625	3725.5460595939
0.75225830078125	0.0135467529296875	3725.63456059368
0.756683349609375	0.013568115234375	3725.72306159345
0.7611083984375	0.0135894775390625	3725.81156259323
0.765533447265625	0.01361083984375	3725.90006359301
0.76995849609375	0.0136322021484375	3725.98856459278
0.774383544921875	0.013653564453125	3726.07706559256
0.77880859375	0.0136749267578125	3726.16556659234
0.783233642578125	0.0136962890625	3726.25406759211
0.78765869140625	0.013720703125	3726.34256859189
0.792083740234375	0.0137420654296875	3726.43106959167
0.7965087890625	0.013763427734375	3726.51957059144
0.800933837890625	0.0137847900390625	3726.60807159122
0.80535888671875	0.0138092041015625	3726.696572591
0.809783935546875	0.01383056640625	3726.78507359077
0.814208984375	0.01385498046875	3726.87357459055
0.818634033203125	0.01387939453125	3726.96207559033
0.82305908203125	0.01390380859375	3727.0505765901
0.827484130859375	0.0139312744140625	3727.13907758988
0.8319091796875	0.0139556884765625	3727.22757858965
0.836334228515625	0.013983154296875	3727.31607958943
0.84075927734375	0.0140106201171875	3727.40458058921
0.845184326171875	0.0140380859375	3727.49308158898
0.849609375	0.0140625	3727.58158258876
0.854034423828125	0.0140899658203125	3727.67008358854
0.85845947265625	0.0141204833984375	3727.75858458831
0.862884521484375	0.0141510009765625	3727.84708558809
0.8673095703125	0.0141815185546875	3727.93558658787
0.871734619140625	0.014215087890625	3728.02408758764
0.87615966796875	0.0142486572265625	3728.11258858742
0.880584716796875	0.0142822265625	3728.2010895872
0.885009765625	0.01431884765625	3728.28959058697
0.889434814453125	0.0143585205078125	3728.37809158675
0.89385986328125	0.0143951416015625	3728.46659258653
0.898284912109375	0.0144378662109375	3728.5550935863
0.9027099609375	0.0144775390625	3728.64359458608
0.907135009765625	0.014520263671875	3728.73209558586
0.91156005859375	0.0145660400390625	3728.82059658563
0.915985107421875	0.0146087646484375	3728.90909758541
0.92041015625	0.0146575927734375	3728.99759858519
0.924835205078125	0.0147064208984375	3729.08609958496
0.92926025390625	0.01475830078125	3729.17460058474
0.933685302734375	0.0148101806640625	3729.26310158452
0.9381103515625	0.0148681640625	3729.35160258429
0.942535400390625	0.014923095703125	3729.44010358407
0.94696044921875	0.014984130859375	3729.52860458385
0.951385498046875	0.0150421142578125	3729.61710558362
0.955810546875	0.0151031494140625	3729.7056065834
0.960235595703125	0.0151702880859375	3729.79410758317
0.96466064453125	0.0152374267578125	3729.88260858295
0.969085693359375	0.0153076171875	3729.97110958273
0.9735107421875	0.0153778076171875	3730.0596105825
0.977935791015625	0.0154510498046875	3730.14811158228
0.98236083984375	0.01552734375	3730.23661258206
0.986785888671875	0.0156036376953125	3730.32511358183
0.9912109375	0.0156829833984375	3730.41361458161
0.995635986328125	0.0157684326171875	3730.50211558139
1.00006103515625	0.0158538818359375	3730.59061658116
0.995635986328125	0.015081787109375	3730.67911758094
0.9912109375	0.0143524169921875	3730.76761858072
0.986785888671875	0.0136627197265625	3730.85611958049
0.98236083984375	0.01300048828125	3730.94462058027
0.977935791015625	0.01236572265625	3731.03312158005
0.9735107421875	0.0117523193359375	3731.12162257982
0.969085693359375	0.0111541748046875	3731.2101235796
0.96466064453125	0.01058349609375	3731.29862457938
0.960235595703125	0.0100250244140625	3731.38712557915
0.955810546875	0.009478759765625	3731.47562657893
0.951385498046875	0.008953857421875	3731.56412757871
0.94696044921875	0.008441162109375	3731.65262857848
0.942535400390625	0.007940673828125	3731.74112957826
0.9381103515625	0.00745849609375	3731.82963057804
0.933685302734375	0.0069793701171875	3731.91813157781
0.92926025390625	0.0065155029296875	3732.00663257759
0.924835205078125	0.0060638427734375	3732.09513357737
0.92041015625	0.005621337890625	3732.18363457714
0.915985107421875	0.0051910400390625	3732.27213557692
0.91156005859375	0.00477081298828125	3732.3606365767
0.907135009765625	0.00435882568359375	3732.44913757647
0.9027099609375	0.003956298828125	3732.53763857625
0.898284912109375	0.0035638427734375	3732.62613957602
0.89385986328125	0.00317962646484375	3732.7146405758
0.889434814453125	0.0028057861328125	3732.80314157558
0.885009765625	0.0024371337890625	3732.89164257535
0.880584716796875	0.00207672119140625	3732.98014357513
0.87615966796875	0.00172393798828125	3733.06864457491
0.871734619140625	0.0013787841796875	3733.15714557468
0.8673095703125	0.001041259765625	3733.24564657446
0.862884521484375	0.00071044921875	3733.33414757424
0.85845947265625	0.00038763427734375	3733.42264857401
0.854034423828125	7.086181640625E-05	3733.51114957379
0.849609375	-0.00023974609375	3733.59965057357
0.845184326171875	-0.0005426025390625	3733.68815157334
0.84075927734375	-0.00083984375	3733.77665257312
0.836334228515625	-0.00113037109375	3733.8651535729
0.8319091796875	-0.00141510009765625	3733.95365457267
0.827484130859375	-0.001693115234375	3734.04215557245
0.82305908203125	-0.00196533203125	3734.13065657223
0.818634033203125	-0.0022314453125	3734.219157572
0.814208984375	-0.0024920654296875	3734.30765857178
0.809783935546875	-0.00274688720703125	3734.39615957156
0.80535888671875	-0.00299652099609375	3734.48466057133
0.800933837890625	-0.00324066162109375	3734.57316157111
0.7965087890625	-0.00347869873046875	3734.66166257089
0.792083740234375	-0.00371124267578125	3734.75016357066
0.78765869140625	-0.00393890380859375	3734.83866457044
0.783233642578125	-0.00416168212890625	3734.92716557022
0.77880859375	-0.00437896728515625	3735.01566656999
0.774383544921875	-0.00459197998046875	3735.10416756977
0.76995849609375	-0.0047998046875	3735.19266856955
0.765533447265625	-0.00500213623046875	3735.28116956932
0.7611083984375	-0.00520050048828125	3735.3696705691
0.756683349609375	-0.005394287109375	3735.45817156887
0.75225830078125	-0.0055841064453125	3735.54667256865
0.747833251953125	-0.00576904296875	3735.63517356843
0.743408203125	-0.00595001220703125	3735.7236745682
0.738983154296875	-0.00612396240234375	3735.81217556798
0.73455810546875	-0.0062744140625	3735.90067656776
0.730133056640625	-0.0064422607421875	3735.98917756753
0.7257080078125	-0.0066070556640625	3736.07767856731
0.721282958984375	-0.0067657470703125	3736.16617956709
0.71685791015625	-0.0069244384765625	3736.25468056686
0.712432861328125	-0.007073974609375	3736.34318156664
0.7080078125	-0.0072235107421875	3736.43168256642
0.703582763671875	-0.0073699951171875	3736.52018356619
0.69915771484375	-0.0075103759765625	3736.60868456597
0.694732666015625	-0.0076507568359375	3736.69718556575
0.6903076171875	-0.0077850341796875	3736.78568656552
0.685882568359375	-0.0079132080078125	3736.8741875653
0.68145751953125	-0.0080413818359375	3736.96268856508
0.677032470703125	-0.00816650390625	3737.05118956485
0.672607421875	-0.0082916259765625	3737.13969056463
0.668182373046875	-0.00841064453125	3737.22819156441
0.66375732421875	-0.008526611328125	3737.31669256418
0.659332275390625	-0.0086395263671875	3737.40519356396
0.6549072265625	-0.00875244140625	3737.49369456374
0.650482177734375	-0.0088592529296875	3737.58219556351
0.64605712890625	-0.008966064453125	3737.67069656329
0.641632080078125	-0.00906982421875	3737.75919756307
0.63720703125	-0.0091705322265625	3737.84769856284
0.632781982421875	-0.0092681884765625	3737.93619956262
0.62835693359375	-0.00936279296875	3738.0247005624
0.623931884765625	-0.00946044921875	3738.11320156217
0.6195068359375	-0.0095550537109375	3738.20170256195
0.615081787109375	-0.0096466064453125	3738.29020356172
0.61065673828125	-0.0097320556640625	3738.3787045615
0.606231689453125	-0.0098175048828125	3738.46720556128
0.601806640625	-0.0099029541015625	3738.55570656105
0.597381591796875	-0.0099822998046875	3738.64420756083
0.59295654296875	-0.0100616455078125	3738.73270856061
0.588531494140625	-0.0101409912109375	3738.82120956038
0.5841064453125	-0.0102142333984375	3738.90971056016
0.579681396484375	-0.0102874755859375	3738.99821155994
0.57525634765625	-0.0103607177734375	3739.08671255971
0.570831298828125	-0.010430908203125	3739.17521355949
0.56640625	-0.0105010986328125	3739.26371455927
0.561981201171875	-0.0105712890625	3739.35221555904
0.55755615234375	-0.010638427734375	3739.44071655882
0.553131103515625	-0.0107025146484375	3739.5292175586
0.5487060546875	-0.0107666015625	3739.61771855837
0.544281005859375	-0.01082763671875	3739.70621955815
0.53985595703125	-0.010888671875	3739.79472055793
0.535430908203125	-0.0109466552734375	3739.8832215577
0.531005859375	-0.011004638671875	3739.97172255748
0.526580810546875	-0.0110626220703125	3740.06022355726
0.52215576171875	-0.01112060546875	3740.14872455703
0.517730712890625	-0.011175537109375	3740.23722555681
0.5133056640625	-0.0112335205078125	3740.32572655659
0.508880615234375	-0.0112884521484375	3740.41422755636
0.50445556640625	-0.0113433837890625	3740.50272855614
0.500030517578125	-0.011395263671875	3740.59122955592
0.49560546875	-0.011444091796875	3740.67973055569
0.491180419921875	-0.0114959716796875	3740.76823155547
0.48675537109375	-0.0115478515625	3740.85673255524
0.482330322265625	-0.0115966796875	3740.94523355502
0.4779052734375	-0.0116485595703125	3741.0337345548
0.473480224609375	-0.0116943359375	3741.12223555457
0.46905517578125	-0.0117431640625	3741.21073655435
0.464630126953125	-0.0117889404296875	3741.29923755413
0.460205078125	-0.011834716796875	3741.3877385539
0.455780029296875	-0.011883544921875	3741.47623955368
0.45135498046875	-0.0119293212890625	3741.56474055346
0.446929931640625	-0.0119781494140625	3741.65324155323
0.4425048828125	-0.0120208740234375	3741.74174255301
0.438079833984375	-0.012066650390625	3741.83024355279
0.43365478515625	-0.012109375	3741.91874455256
0.429229736328125	-0.0121551513671875	3742.00724555234
0.4248046875	-0.0121978759765625	3742.09574655212
0.420379638671875	-0.0122406005859375	3742.18424755189
0.41595458984375	-0.012286376953125	3742.27274855167
0.411529541015625	-0.0123260498046875	3742.36124955145
0.4071044921875	-0.0123687744140625	3742.44975055122
0.402679443359375	-0.0124114990234375	3742.538251551
0.39825439453125	-0.0124542236328125	3742.62675255078
0.393829345703125	-0.0124969482421875	3742.71525355055
0.389404296875	-0.01253662109375	3742.80375455033
0.384979248046875	-0.0125732421875	3742.89225555011
0.38055419921875	-0.012615966796875	3742.98075654988
0.376129150390625	-0.01265869140625	3743.06925754966
0.3717041015625	-0.0126983642578125	3743.15775854944
0.367279052734375	-0.012738037109375	3743.24625954921
0.36285400390625	-0.0127777099609375	3743.33476054899
0.358428955078125	-0.0128173828125	3743.42326154876
0.35400390625	-0.01285400390625	3743.51176254854
0.349578857421875	-0.0128936767578125	3743.60026354832
0.34515380859375	-0.012933349609375	3743.68876454809
0.340728759765625	-0.0129730224609375	3743.77726554787
0.3363037109375	-0.0130096435546875	3743.86576654765
0.331878662109375	-0.0130462646484375	3743.95426754742
0.32745361328125	-0.0130859375	3744.0427685472
0.323028564453125	-0.01312255859375	3744.13126954698
0.318603515625	-0.0131591796875	3744.21977054675
0.314178466796875	-0.01319580078125	3744.30827154653
0.30975341796875	-0.0132354736328125	3744.39677254631
0.305328369140625	-0.0132720947265625	3744.48527354608
0.3009033203125	-0.0133026123046875	3744.57377454586
0.296478271484375	-0.01334228515625	3744.66227554564
0.29205322265625	-0.0133758544921875	3744.75077654541
0.287628173828125	-0.0134124755859375	3744.83927754519
0.283203125	-0.013446044921875	3744.92777854497
0.278778076171875	-0.0134796142578125	3745.01627954474
0.27435302734375	-0.01351318359375	3745.10478054452
0.269927978515625	-0.0135467529296875	3745.1932815443
0.2655029296875	-0.013580322265625	3745.28178254407
0.261077880859375	-0.0136138916015625	3745.37028354385
0.25665283203125	-0.0136474609375	3745.45878454363
0.252227783203125	-0.0136810302734375	3745.5472855434
0.247802734375	-0.0137115478515625	3745.63578654318
0.243377685546875	-0.0137451171875	3745.72428754296
0.23895263671875	-0.0137786865234375	3745.81278854273
0.234527587890625	-0.0138092041015625	3745.90128954251
0.2301025390625	-0.0138397216796875	3745.98979054228
0.225677490234375	-0.0138702392578125	3746.07829154206
0.22125244140625	-0.0139007568359375	3746.16679254184
0.216827392578125	-0.013934326171875	3746.25529354161
0.21240234375	-0.01396484375	3746.34379454139
0.207977294921875	-0.013995361328125	3746.43229554117
0.20355224609375	-0.01402587890625	3746.52079654094
0.199127197265625	-0.0140533447265625	3746.60929754072
0.1947021484375	-0.014080810546875	3746.6977985405
0.190277099609375	-0.014111328125	3746.78629954027
0.18585205078125	-0.014141845703125	3746.87480054005
0.181427001953125	-0.01417236328125	3746.96330153983
0.177001953125	-0.014202880859375	3747.0518025396
0.172576904296875	-0.0142333984375	3747.14030353938
0.16815185546875	-0.0142608642578125	3747.22880453916
0.163726806640625	-0.014288330078125	3747.31730553893
0.1593017578125	-0.01431884765625	3747.40580653871
0.154876708984375	-0.014349365234375	3747.49430753849
0.15045166015625	-0.0143798828125	3747.58280853826
0.146026611328125	-0.014410400390625	3747.67130953804
0.1416015625	-0.0144378662109375	3747.75981053782
0.137176513671875	-0.0144683837890625	3747.84831153759
0.13275146484375	-0.014495849609375	3747.93681253737
0.128326416015625	-0.0145294189453125	3748.02531353715
0.1239013671875	-0.014556884765625	3748.11381453692
0.119476318359375	-0.01458740234375	3748.2023155367
0.11505126953125	-0.0146148681640625	3748.29081653648
0.110626220703125	-0.0146453857421875	3748.37931753625
0.106201171875	-0.0146759033203125	3748.46781853603
0.101776123046875	-0.0147064208984375	3748.5563195358
0.09735107421875	-0.0147369384765625	3748.64482053558
0.092926025390625	-0.0147674560546875	3748.73332153536
0.0885009765625	-0.0147979736328125	3748.82182253513
0.084075927734375	-0.014825439453125	3748.91032353491
0.07965087890625	-0.0148590087890625	3748.99882453469
0.075225830078125	-0.0148895263671875	3749.08732553446
0.07080078125	-0.014923095703125	3749.17582653424
0.066375732421875	-0.01495361328125	3749.26432753402
0.06195068359375	-0.014984130859375	3749.35282853379
0.057525634765625	-0.0150146484375	3749.44132953357
0.0531005859375	-0.01505126953125	3749.52983053335
0.048675537109375	-0.0150848388671875	3749.61833153312
0.04425048828125	-0.015118408203125	3749.7068325329
0.039825439453125	-0.0151519775390625	3749.79533353268
0.035400390625	-0.015185546875	3749.88383453245
0.030975341796875	-0.0152191162109375	3749.97233553223
0.02655029296875	-0.015252685546875	3750.06083653201
0.022125244140625	-0.0152923583984375	3750.14933753178
0.0177001953125	-0.0153289794921875	3750.23783853156
0.013275146484375	-0.0153656005859375	3750.32633953134
0.00885009765625	-0.0154022216796875	3750.41484053111
0.004425048828125	-0.0154388427734375	3750.50334153089
0	-0.0154754638671875	3750.59184253067
0.004425048828125	-0.0146697998046875	3750.68034353044
0.00885009765625	-0.0139129638671875	3750.76884453022
0.013275146484375	-0.0131927490234375	3750.85734553
0.0177001953125	-0.0125	3750.94584652977
0.022125244140625	-0.011834716796875	3751.03434752955
0.02655029296875	-0.0111968994140625	3751.12284852932
0.030975341796875	-0.01058349609375	3751.2113495291
0.035400390625	-0.0099884033203125	3751.29985052888
0.039825439453125	-0.00941162109375	3751.38835152865
0.04425048828125	-0.008856201171875	3751.47685252843
0.048675537109375	-0.0083160400390625	3751.56535352821
0.0531005859375	-0.007794189453125	3751.65385452798
0.057525634765625	-0.00728759765625	3751.74235552776
0.06195068359375	-0.006793212890625	3751.83085652754
0.066375732421875	-0.0063140869140625	3751.91935752731
0.07080078125	-0.0058502197265625	3752.00785852709
0.075225830078125	-0.0053955078125	3752.09635952687
0.07965087890625	-0.00495758056640625	3752.18486052664
0.084075927734375	-0.004530029296875	3752.27336152642
0.0885009765625	-0.00411346435546875	3752.3618625262
0.092926025390625	-0.003707275390625	3752.45036352597
0.09735107421875	-0.00331146240234375	3752.53886452575
0.101776123046875	-0.00293609619140625	3752.62736552553
0.106201171875	-0.0025592041015625	3752.7158665253
0.110626220703125	-0.0021923828125	3752.80436752508
0.11505126953125	-0.00183441162109375	3752.89286852486
0.119476318359375	-0.0014874267578125	3752.98136952463
0.1239013671875	-0.001146240234375	3753.06987052441
0.128326416015625	-0.0008135986328125	3753.15837152419
0.13275146484375	-0.0004888916015625	3753.24687252396
0.137176513671875	-0.0001729736328125	3753.33537352374
0.1416015625	0.000135711669921875	3753.42387452352
0.146026611328125	0.00043768310546875	3753.51237552329
0.15045166015625	0.0007330322265625	3753.60087652307
0.154876708984375	0.0010211181640625	3753.68937752285
0.1593017578125	0.00130096435546875	3753.77787852262
0.163726806640625	0.00157501220703125	3753.8663795224
0.16815185546875	0.00184234619140625	3753.95488052217
0.172576904296875	0.0021051025390625	3754.04338152195
0.177001953125	0.0023614501953125	3754.13188252173
0.181427001953125	0.0026116943359375	3754.2203835215
0.18585205078125	0.002855224609375	3754.30888452128
0.190277099609375	0.0030938720703125	3754.39738552106
0.1947021484375	0.0033270263671875	3754.48588652083
0.199127197265625	0.00355499267578125	3754.57438752061
0.20355224609375	0.0037774658203125	3754.66288852039
0.207977294921875	0.00399444580078125	3754.75138952016
0.21240234375	0.00420654296875	3754.83989051994
0.216827392578125	0.004412841796875	3754.92839151972
0.22125244140625	0.0046142578125	3755.01689251949
0.225677490234375	0.00481292724609375	3755.10539351927
0.2301025390625	0.00500732421875	3755.19389451905
0.234527587890625	0.00519622802734375	3755.28239551882
0.23895263671875	0.00538177490234375	3755.3708965186
0.243377685546875	0.00556365966796875	3755.45939751838
0.247802734375	0.0057415771484375	3755.54789851815
0.252227783203125	0.00591522216796875	3755.63639951793
0.25665283203125	0.00608551025390625	3755.72490051771
0.261077880859375	0.006243896484375	3755.81340151748
0.2655029296875	0.0064056396484375	3755.90190251726
0.269927978515625	0.006561279296875	3755.99040351704
0.27435302734375	0.0067169189453125	3756.07890451681
0.278778076171875	0.0068695068359375	3756.16740551659
0.283203125	0.0070159912109375	3756.25590651637
0.287628173828125	0.007159423828125	3756.34440751614
0.29205322265625	0.0072998046875	3756.43290851592
0.296478271484375	0.0074371337890625	3756.5214095157
0.3009033203125	0.007574462890625	3756.60991051547
0.305328369140625	0.0077117919921875	3756.69841151525
0.30975341796875	0.0078369140625	3756.78691251502
0.314178466796875	0.0079681396484375	3756.8754135148
0.318603515625	0.00809326171875	3756.96391451458
0.323028564453125	0.00821533203125	3757.05241551435
0.32745361328125	0.0083343505859375	3757.14091651413
0.331878662109375	0.0084503173828125	3757.22941751391
0.3363037109375	0.0085693359375	3757.31791851368
0.340728759765625	0.00867919921875	3757.40641951346
0.34515380859375	0.0087890625	3757.49492051324
0.349578857421875	0.008892822265625	3757.58342151301
0.35400390625	0.0089996337890625	3757.67192251279
0.358428955078125	0.0091064453125	3757.76042351257
0.36285400390625	0.0092071533203125	3757.84892451234
0.367279052734375	0.009307861328125	3757.93742551212
0.3717041015625	0.0094024658203125	3758.0259265119
0.376129150390625	0.0094970703125	3758.11442751167
0.38055419921875	0.0095916748046875	3758.20292851145
0.384979248046875	0.0096832275390625	3758.29142951123
0.389404296875	0.00977783203125	3758.379930511
0.393829345703125	0.00986328125	3758.46843151078
0.39825439453125	0.0099517822265625	3758.55693251056
0.402679443359375	0.0100372314453125	3758.64543351033
0.4071044921875	0.01011962890625	3758.73393451011
0.411529541015625	0.0102020263671875	3758.82243550989
0.41595458984375	0.0102813720703125	3758.91093650966
0.420379638671875	0.0103607177734375	3758.99943750944
0.4248046875	0.0104400634765625	3759.08793850922
0.429229736328125	0.010516357421875	3759.17643950899
0.43365478515625	0.010589599609375	3759.26494050877
0.438079833984375	0.0106658935546875	3759.35344150855
0.4425048828125	0.010736083984375	3759.44194250832
0.446929931640625	0.010809326171875	3759.5304435081
0.45135498046875	0.0108795166015625	3759.61894450787
0.455780029296875	0.0109466552734375	3759.70744550765
0.460205078125	0.0110107421875	3759.79594650743
0.464630126953125	0.011077880859375	3759.8844475072
0.46905517578125	0.0111419677734375	3759.97294850698
0.473480224609375	0.0112091064453125	3760.06144950676
0.4779052734375	0.0112701416015625	3760.14995050653
0.482330322265625	0.0113311767578125	3760.23845150631
0.48675537109375	0.0113922119140625	3760.32695250609
0.491180419921875	0.0114501953125	3760.41545350586
0.49560546875	0.01151123046875	3760.50395450564
0.500030517578125	0.0115692138671875	3760.59245550542
0.50445556640625	0.0116241455078125	3760.68095650519
0.508880615234375	0.01168212890625	3760.76945750497
0.5133056640625	0.0117340087890625	3760.85795850475
0.517730712890625	0.0117889404296875	3760.94645950452
0.52215576171875	0.0118408203125	3761.0349605043
0.526580810546875	0.0118927001953125	3761.12346150408
0.531005859375	0.0119415283203125	3761.21196250385
0.535430908203125	0.0119903564453125	3761.30046350363
0.53985595703125	0.0120391845703125	3761.38896450341
0.544281005859375	0.0120880126953125	3761.47746550318
0.5487060546875	0.0121337890625	3761.56596650296
0.553131103515625	0.0121795654296875	3761.65446750274
0.55755615234375	0.012225341796875	3761.74296850251
0.561981201171875	0.01226806640625	3761.83146950229
0.56640625	0.012310791015625	3761.91997050207
0.570831298828125	0.012353515625	3762.00847150184
0.57525634765625	0.0123931884765625	3762.09697250162
0.579681396484375	0.0124359130859375	3762.18547350139
0.5841064453125	0.0124755859375	3762.27397450117
0.588531494140625	0.01251220703125	3762.36247550095
0.59295654296875	0.0125457763671875	3762.45097650072
0.597381591796875	0.0125823974609375	3762.5394775005
0.601806640625	0.0126220703125	3762.62797850028
0.606231689453125	0.01265869140625	3762.71647950005
0.61065673828125	0.0126922607421875	3762.80498049983
0.615081787109375	0.0127288818359375	3762.89348149961
0.6195068359375	0.0127593994140625	3762.98198249938
0.623931884765625	0.01279296875	3763.07048349916
0.62835693359375	0.01282958984375	3763.15898449894
0.632781982421875	0.0128631591796875	3763.24748549871
0.63720703125	0.0128936767578125	3763.33598649849
0.641632080078125	0.0129241943359375	3763.42448749827
0.64605712890625	0.0129547119140625	3763.51298849804
0.650482177734375	0.012982177734375	3763.60148949782
0.6549072265625	0.0130096435546875	3763.6899904976
0.659332275390625	0.0130401611328125	3763.77849149737
0.66375732421875	0.013067626953125	3763.86699249715
0.668182373046875	0.0130950927734375	3763.95549349693
0.672607421875	0.0131195068359375	3764.0439944967
0.677032470703125	0.0131439208984375	3764.13249549648
0.68145751953125	0.01317138671875	3764.22099649626
0.685882568359375	0.01319580078125	3764.30949749603
0.6903076171875	0.01322021484375	3764.39799849581
0.694732666015625	0.01324462890625	3764.48649949559
0.69915771484375	0.01326904296875	3764.57500049536
0.703582763671875	0.0132904052734375	3764.66350149514
0.7080078125	0.013311767578125	3764.75200249491
0.712432861328125	0.013336181640625	3764.84050349469
0.71685791015625	0.013360595703125	3764.92900449447
0.721282958984375	0.0133819580078125	3765.01750549424
0.7257080078125	0.0134033203125	3765.10600649402
0.730133056640625	0.0134246826171875	3765.1945074938
0.73455810546875	0.013446044921875	3765.28300849357
0.738983154296875	0.0134674072265625	3765.37150949335
0.743408203125	0.01348876953125	3765.46001049313
0.747833251953125	0.0135101318359375	3765.5485114929
0.75225830078125	0.0135284423828125	3765.63701249268
0.756683349609375	0.0135498046875	3765.72551349246
0.7611083984375	0.0135711669921875	3765.81401449223
0.765533447265625	0.013592529296875	3765.90251549201
0.76995849609375	0.013616943359375	3765.99101649179
0.774383544921875	0.0136383056640625	3766.07951749156
0.77880859375	0.0136566162109375	3766.16801849134
0.783233642578125	0.013677978515625	3766.25651949112
0.78765869140625	0.0136993408203125	3766.34502049089
0.792083740234375	0.013720703125	3766.43352149067
0.7965087890625	0.0137420654296875	3766.52202249045
0.800933837890625	0.0137664794921875	3766.61052349022
0.80535888671875	0.013787841796875	3766.69902449
0.809783935546875	0.013812255859375	3766.78752548978
0.814208984375	0.0138336181640625	3766.87602648955
0.818634033203125	0.0138580322265625	3766.96452748933
0.82305908203125	0.0138824462890625	3767.05302848911
0.827484130859375	0.013909912109375	3767.14152948888
0.8319091796875	0.013934326171875	3767.23003048866
0.836334228515625	0.013958740234375	3767.31853148843
0.84075927734375	0.0139862060546875	3767.40703248821
0.845184326171875	0.014013671875	3767.49553348799
0.849609375	0.0140411376953125	3767.58403448776
0.854034423828125	0.014068603515625	3767.67253548754
0.85845947265625	0.01409912109375	3767.76103648732
0.862884521484375	0.0141265869140625	3767.84953748709
0.8673095703125	0.0141571044921875	3767.93803848687
0.871734619140625	0.0141876220703125	3768.02653948665
0.87615966796875	0.0142242431640625	3768.11504048642
0.880584716796875	0.0142578125	3768.2035414862
0.885009765625	0.01429443359375	3768.29204248598
0.889434814453125	0.0143310546875	3768.38054348575
0.89385986328125	0.01436767578125	3768.46904448553
0.898284912109375	0.0144073486328125	3768.55754548531
0.9027099609375	0.0144500732421875	3768.64604648508
0.907135009765625	0.0144927978515625	3768.73454748486
0.91156005859375	0.0145355224609375	3768.82304848464
0.915985107421875	0.0145843505859375	3768.91154948441
0.92041015625	0.014630126953125	3769.00005048419
0.924835205078125	0.0146759033203125	3769.08855148397
0.92926025390625	0.014727783203125	3769.17705248374
0.933685302734375	0.01478271484375	3769.26555348352
0.9381103515625	0.0148406982421875	3769.3540544833
0.942535400390625	0.0148956298828125	3769.44255548307
0.94696044921875	0.01495361328125	3769.53105648285
0.951385498046875	0.0150146484375	3769.61955748263
0.955810546875	0.01507568359375	3769.7080584824
0.960235595703125	0.015142822265625	3769.79655948218
0.96466064453125	0.0152099609375	3769.88506048196
0.969085693359375	0.015277099609375	3769.97356148173
0.9735107421875	0.0153472900390625	3770.06206248151
0.977935791015625	0.01541748046875	3770.15056348128
0.98236083984375	0.015496826171875	3770.23906448106
0.986785888671875	0.015576171875	3770.32756548084
0.9912109375	0.015655517578125	3770.41606648061
