Potential applied (V)	WE(1).Current (A)	Time (s)
0.004425048828125	-0.0999969482421875	5084.26450316347
0.00885009765625	-0.0984954833984375	5084.30875316335
0.013275146484375	-0.09544677734375	5084.35300316324
0.0177001953125	-0.09263916015625	5084.39725316313
0.022125244140625	-0.0899993896484375	5084.44150316302
0.02655029296875	-0.0874542236328125	5084.48575316291
0.030975341796875	-0.0850250244140625	5084.5300031628
0.035400390625	-0.0826934814453125	5084.57425316268
0.039825439453125	-0.08043212890625	5084.61850316257
0.04425048828125	-0.0782623291015625	5084.66275316246
0.048675537109375	-0.076153564453125	5084.70700316235
0.0531005859375	-0.07410888671875	5084.75125316224
0.057525634765625	-0.07213134765625	5084.79550316213
0.06195068359375	-0.070208740234375	5084.83975316201
0.066375732421875	-0.0683502197265625	5084.8840031619
0.07080078125	-0.066534423828125	5084.92825316179
0.075225830078125	-0.0647705078125	5084.97250316168
0.07965087890625	-0.0630584716796875	5085.01675316157
0.084075927734375	-0.0613861083984375	5085.06100316146
0.0885009765625	-0.0597625732421875	5085.10525316134
0.092926025390625	-0.0581817626953125	5085.14950316123
0.09735107421875	-0.056640625	5085.19375316112
0.101776123046875	-0.055133056640625	5085.23800316101
0.106201171875	-0.053668212890625	5085.2822531609
0.110626220703125	-0.0522308349609375	5085.32650316078
0.11505126953125	-0.0508331298828125	5085.37075316067
0.119476318359375	-0.0494659423828125	5085.41500316056
0.1239013671875	-0.04813232421875	5085.45925316045
0.128326416015625	-0.0468292236328125	5085.50350316034
0.13275146484375	-0.0455535888671875	5085.54775316023
0.137176513671875	-0.0443084716796875	5085.59200316011
0.1416015625	-0.0430908203125	5085.63625316
0.146026611328125	-0.041900634765625	5085.68050315989
0.15045166015625	-0.0407318115234375	5085.72475315978
0.154876708984375	-0.0395904541015625	5085.76900315967
0.1593017578125	-0.0384735107421875	5085.81325315956
0.163726806640625	-0.0373809814453125	5085.85750315944
0.16815185546875	-0.0363067626953125	5085.90175315933
0.172576904296875	-0.03525390625	5085.94600315922
0.177001953125	-0.0342254638671875	5085.99025315911
0.181427001953125	-0.0332122802734375	5086.034503159
0.18585205078125	-0.0322235107421875	5086.07875315889
0.190277099609375	-0.0312530517578125	5086.12300315877
0.1947021484375	-0.0302978515625	5086.16725315866
0.199127197265625	-0.0293670654296875	5086.21150315855
0.20355224609375	-0.028448486328125	5086.25575315844
0.207977294921875	-0.0275482177734375	5086.30000315833
0.21240234375	-0.0266632080078125	5086.34425315821
0.216827392578125	-0.0257965087890625	5086.3885031581
0.22125244140625	-0.0249420166015625	5086.43275315799
0.225677490234375	-0.024102783203125	5086.47700315788
0.2301025390625	-0.0232818603515625	5086.52125315777
0.234527587890625	-0.0224761962890625	5086.56550315766
0.23895263671875	-0.0216796875	5086.60975315755
0.243377685546875	-0.0208953857421875	5086.65400315743
0.247802734375	-0.0201324462890625	5086.69825315732
0.252227783203125	-0.0193756103515625	5086.74250315721
0.25665283203125	-0.0186309814453125	5086.7867531571
0.261077880859375	-0.0179046630859375	5086.83100315699
0.2655029296875	-0.0171844482421875	5086.87525315687
0.269927978515625	-0.0164794921875	5086.91950315676
0.27435302734375	-0.0157867431640625	5086.96375315665
0.278778076171875	-0.0151031494140625	5087.00800315654
0.283203125	-0.0144287109375	5087.05225315643
0.287628173828125	-0.0137725830078125	5087.09650315632
0.29205322265625	-0.0131195068359375	5087.1407531562
0.296478271484375	-0.012481689453125	5087.18500315609
0.3009033203125	-0.0118499755859375	5087.22925315598
0.305328369140625	-0.01123046875	5087.27350315587
0.30975341796875	-0.0106231689453125	5087.31775315576
0.314178466796875	-0.0100189208984375	5087.36200315565
0.318603515625	-0.0094268798828125	5087.40625315553
0.323028564453125	-0.00885009765625	5087.45050315542
0.32745361328125	-0.0082763671875	5087.49475315531
0.331878662109375	-0.00771484375	5087.5390031552
0.3363037109375	-0.007159423828125	5087.58325315509
0.340728759765625	-0.0066131591796875	5087.62750315498
0.34515380859375	-0.0060760498046875	5087.67175315486
0.349578857421875	-0.0055450439453125	5087.71600315475
0.35400390625	-0.0050262451171875	5087.76025315464
0.358428955078125	-0.0045172119140625	5087.80450315453
0.36285400390625	-0.00401214599609375	5087.84875315442
0.367279052734375	-0.003515625	5087.89300315431
0.3717041015625	-0.00302642822265625	5087.93725315419
0.376129150390625	-0.0025445556640625	5087.98150315408
0.38055419921875	-0.00207855224609375	5088.02575315397
0.384979248046875	-0.00160980224609375	5088.07000315386
0.389404296875	-0.00114837646484375	5088.11425315375
0.393829345703125	-0.0006951904296875	5088.15850315363
0.39825439453125	-0.00024774169921875	5088.20275315352
0.402679443359375	0.000192657470703125	5088.24700315341
0.4071044921875	0.0006268310546875	5088.2912531533
0.411529541015625	0.00105499267578125	5088.33550315319
0.41595458984375	0.00147674560546875	5088.37975315308
0.420379638671875	0.00189208984375	5088.42400315296
0.4248046875	0.00230072021484375	5088.46825315285
0.429229736328125	0.00270233154296875	5088.51250315274
0.43365478515625	0.003099365234375	5088.55675315263
0.438079833984375	0.0034912109375	5088.60100315252
0.4425048828125	0.00387664794921875	5088.64525315241
0.446929931640625	0.00425628662109375	5088.68950315229
0.45135498046875	0.00463043212890625	5088.73375315218
0.455780029296875	0.00499969482421875	5088.77800315207
0.460205078125	0.00536224365234375	5088.82225315196
0.464630126953125	0.00571990966796875	5088.86650315185
0.46905517578125	0.0060723876953125	5088.91075315174
0.473480224609375	0.00640869140625	5088.95500315162
0.4779052734375	0.00675048828125	5088.99925315151
0.482330322265625	0.0070892333984375	5089.0435031514
0.48675537109375	0.007421875	5089.08775315129
0.491180419921875	0.0077484130859375	5089.13200315118
0.49560546875	0.00806884765625	5089.17625315106
0.500030517578125	0.00838623046875	5089.22050315095
0.50445556640625	0.0086944580078125	5089.26475315084
0.508880615234375	0.009002685546875	5089.30900315073
0.5133056640625	0.0093048095703125	5089.35325315062
0.517730712890625	0.009600830078125	5089.39750315051
0.52215576171875	0.00989990234375	5089.4417531504
0.526580810546875	0.01019287109375	5089.48600315028
0.531005859375	0.010479736328125	5089.53025315017
0.535430908203125	0.0107635498046875	5089.57450315006
0.53985595703125	0.0110382080078125	5089.61875314995
0.544281005859375	0.01131591796875	5089.66300314984
0.5487060546875	0.01158447265625	5089.70725314972
0.553131103515625	0.0118499755859375	5089.75150314961
0.55755615234375	0.0121124267578125	5089.7957531495
0.561981201171875	0.0123748779296875	5089.84000314939
0.56640625	0.012628173828125	5089.88425314928
0.570831298828125	0.0128753662109375	5089.92850314917
0.57525634765625	0.0131256103515625	5089.97275314905
0.579681396484375	0.013372802734375	5090.01700314894
0.5841064453125	0.013616943359375	5090.06125314883
0.588531494140625	0.013848876953125	5090.10550314872
0.59295654296875	0.0140838623046875	5090.14975314861
0.597381591796875	0.0143218994140625	5090.1940031485
0.601806640625	0.01455078125	5090.23825314838
0.606231689453125	0.014776611328125	5090.28250314827
0.61065673828125	0.014996337890625	5090.32675314816
0.615081787109375	0.015216064453125	5090.37100314805
0.6195068359375	0.0154327392578125	5090.41525314794
0.623931884765625	0.0156463623046875	5090.45950314783
0.62835693359375	0.0158599853515625	5090.50375314771
0.632781982421875	0.0160675048828125	5090.5480031476
0.63720703125	0.0162750244140625	5090.59225314749
0.641632080078125	0.0164764404296875	5090.63650314738
0.64605712890625	0.0166717529296875	5090.68075314727
0.650482177734375	0.0168701171875	5090.72500314715
0.6549072265625	0.0170623779296875	5090.76925314704
0.659332275390625	0.01724853515625	5090.81350314693
0.66375732421875	0.017437744140625	5090.85775314682
0.668182373046875	0.017620849609375	5090.90200314671
0.672607421875	0.017803955078125	5090.9462531466
0.677032470703125	0.0179840087890625	5090.99050314648
0.68145751953125	0.0181610107421875	5091.03475314637
0.685882568359375	0.0183380126953125	5091.07900314626
0.6903076171875	0.0185089111328125	5091.12325314615
0.694732666015625	0.0186798095703125	5091.16750314604
0.69915771484375	0.01884765625	5091.21175314593
0.703582763671875	0.019012451171875	5091.25600314581
0.7080078125	0.0191741943359375	5091.3002531457
0.712432861328125	0.0193328857421875	5091.34450314559
0.71685791015625	0.0194915771484375	5091.38875314548
0.721282958984375	0.019647216796875	5091.43300314537
0.7257080078125	0.0197967529296875	5091.47725314526
0.730133056640625	0.0199493408203125	5091.52150314514
0.73455810546875	0.020098876953125	5091.56575314503
0.738983154296875	0.0202484130859375	5091.61000314492
0.743408203125	0.0203857421875	5091.65425314481
0.747833251953125	0.0205291748046875	5091.6985031447
0.75225830078125	0.0206695556640625	5091.74275314459
0.756683349609375	0.0208099365234375	5091.78700314447
0.7611083984375	0.0209442138671875	5091.83125314436
0.765533447265625	0.0210784912109375	5091.87550314425
0.76995849609375	0.0212127685546875	5091.91975314414
0.774383544921875	0.021343994140625	5091.96400314403
0.77880859375	0.02147216796875	5092.00825314391
0.783233642578125	0.0215972900390625	5092.0525031438
0.78765869140625	0.0217254638671875	5092.09675314369
0.792083740234375	0.0218475341796875	5092.14100314358
0.7965087890625	0.021966552734375	5092.18525314347
0.800933837890625	0.022088623046875	5092.22950314336
0.80535888671875	0.0222076416015625	5092.27375314324
0.809783935546875	0.0223236083984375	5092.31800314313
0.814208984375	0.0224395751953125	5092.36225314302
0.818634033203125	0.022552490234375	5092.40650314291
0.82305908203125	0.022662353515625	5092.4507531428
0.827484130859375	0.022772216796875	5092.49500314269
0.8319091796875	0.022882080078125	5092.53925314257
0.836334228515625	0.0229888916015625	5092.58350314246
0.84075927734375	0.023095703125	5092.62775314235
0.845184326171875	0.023199462890625	5092.67200314224
0.849609375	0.02330322265625	5092.71625314213
0.854034423828125	0.0234100341796875	5092.76050314202
0.85845947265625	0.0235076904296875	5092.8047531419
0.862884521484375	0.0236053466796875	5092.84900314179
0.8673095703125	0.0237060546875	5092.89325314168
0.871734619140625	0.0238037109375	5092.93750314157
0.87615966796875	0.0238983154296875	5092.98175314146
0.880584716796875	0.023992919921875	5093.02600314135
0.885009765625	0.0240875244140625	5093.07025314123
0.889434814453125	0.0241790771484375	5093.11450314112
0.89385986328125	0.0242706298828125	5093.15875314101
0.898284912109375	0.0243621826171875	5093.2030031409
0.9027099609375	0.0244537353515625	5093.24725314079
0.907135009765625	0.0245452880859375	5093.29150314068
0.91156005859375	0.0246337890625	5093.33575314056
0.915985107421875	0.024725341796875	5093.38000314045
0.92041015625	0.0248138427734375	5093.42425314034
0.924835205078125	0.0248992919921875	5093.46850314023
0.92926025390625	0.024981689453125	5093.51275314012
0.933685302734375	0.0250640869140625	5093.55700314
0.9381103515625	0.0251556396484375	5093.60125313989
0.942535400390625	0.025238037109375	5093.64550313978
0.94696044921875	0.025323486328125	5093.68975313967
0.951385498046875	0.0254058837890625	5093.73400313956
0.955810546875	0.0254913330078125	5093.77825313945
0.960235595703125	0.02557373046875	5093.82250313933
0.96466064453125	0.0256561279296875	5093.86675313922
0.969085693359375	0.0257415771484375	5093.91100313911
0.9735107421875	0.025823974609375	5093.955253139
0.977935791015625	0.0259033203125	5093.99950313889
0.98236083984375	0.0259857177734375	5094.04375313878
0.986785888671875	0.026068115234375	5094.08800313866
0.9912109375	0.0261505126953125	5094.13225313855
0.995635986328125	0.0262359619140625	5094.17650313844
1.00006103515625	0.026318359375	5094.22075313833
0.995635986328125	0.0253662109375	5094.26500313822
0.9912109375	0.024444580078125	5094.30925313811
0.986785888671875	0.02354736328125	5094.35350313799
0.98236083984375	0.0226806640625	5094.39775313788
0.977935791015625	0.021832275390625	5094.44200313777
0.9735107421875	0.021002197265625	5094.48625313766
0.969085693359375	0.0201904296875	5094.53050313755
0.96466064453125	0.01939697265625	5094.57475313744
0.960235595703125	0.01861572265625	5094.61900313732
0.955810546875	0.017852783203125	5094.66325313721
0.951385498046875	0.017108154296875	5094.7075031371
0.94696044921875	0.016375732421875	5094.75175313699
0.942535400390625	0.0156585693359375	5094.79600313688
0.9381103515625	0.01495361328125	5094.84025313676
0.933685302734375	0.0142608642578125	5094.88450313665
0.92926025390625	0.01358642578125	5094.92875313654
0.924835205078125	0.012921142578125	5094.97300313643
0.92041015625	0.0122711181640625	5095.01725313632
0.915985107421875	0.0116302490234375	5095.06150313621
0.91156005859375	0.01099853515625	5095.10575313609
0.907135009765625	0.010382080078125	5095.15000313598
0.9027099609375	0.00977783203125	5095.19425313587
0.898284912109375	0.0091827392578125	5095.23850313576
0.89385986328125	0.00859375	5095.28275313565
0.889434814453125	0.0080169677734375	5095.32700313554
0.885009765625	0.0074554443359375	5095.37125313542
0.880584716796875	0.00689697265625	5095.41550313531
0.87615966796875	0.00634765625	5095.4597531352
0.871734619140625	0.005810546875	5095.50400313509
0.8673095703125	0.0052825927734375	5095.54825313498
0.862884521484375	0.00476043701171875	5095.59250313487
0.85845947265625	0.00425018310546875	5095.63675313475
0.854034423828125	0.003746337890625	5095.68100313464
0.849609375	0.00325103759765625	5095.72525313453
0.845184326171875	0.002763671875	5095.76950313442
0.84075927734375	0.00228546142578125	5095.81375313431
0.836334228515625	0.00181243896484375	5095.8580031342
0.8319091796875	0.00134674072265625	5095.90225313408
0.827484130859375	0.0008892822265625	5095.94650313397
0.82305908203125	0.000438201904296875	5095.99075313386
0.818634033203125	-5.14831542968749E-06	5096.03500313375
0.814208984375	-0.00044158935546875	5096.07925313364
0.809783935546875	-0.00087066650390625	5096.12350313353
0.80535888671875	-0.00129425048828125	5096.16775313341
0.800933837890625	-0.00171051025390625	5096.2120031333
0.7965087890625	-0.00212005615234375	5096.25625313319
0.792083740234375	-0.00252349853515625	5096.30050313308
0.78765869140625	-0.002919921875	5096.34475313297
0.783233642578125	-0.0033111572265625	5096.38900313285
0.77880859375	-0.003695068359375	5096.43325313274
0.774383544921875	-0.00407379150390625	5096.47750313263
0.76995849609375	-0.004447021484375	5096.52175313252
0.765533447265625	-0.00481414794921875	5096.56600313241
0.7611083984375	-0.005174560546875	5096.6102531323
0.756683349609375	-0.00553009033203125	5096.65450313218
0.75225830078125	-0.00587982177734375	5096.69875313207
0.747833251953125	-0.00622406005859375	5096.74300313196
0.743408203125	-0.0065399169921875	5096.78725313185
0.738983154296875	-0.0068695068359375	5096.83150313174
0.73455810546875	-0.007196044921875	5096.87575313163
0.730133056640625	-0.00751953125	5096.92000313151
0.7257080078125	-0.0078338623046875	5096.9642531314
0.721282958984375	-0.0081451416015625	5097.00850313129
0.71685791015625	-0.008453369140625	5097.05275313118
0.712432861328125	-0.0087554931640625	5097.09700313107
0.7080078125	-0.0090545654296875	5097.14125313096
0.703582763671875	-0.009344482421875	5097.18550313084
0.69915771484375	-0.00963134765625	5097.22975313073
0.694732666015625	-0.0099151611328125	5097.27400313062
0.6903076171875	-0.01019287109375	5097.31825313051
0.685882568359375	-0.010467529296875	5097.3625031304
0.68145751953125	-0.0107391357421875	5097.40675313029
0.677032470703125	-0.0110015869140625	5097.45100313017
0.672607421875	-0.0112640380859375	5097.49525313006
0.668182373046875	-0.0115203857421875	5097.53950312995
0.66375732421875	-0.011773681640625	5097.58375312984
0.659332275390625	-0.01202392578125	5097.62800312973
0.6549072265625	-0.0122711181640625	5097.67225312961
0.650482177734375	-0.01251220703125	5097.7165031295
0.64605712890625	-0.012750244140625	5097.76075312939
0.641632080078125	-0.0129852294921875	5097.80500312928
0.63720703125	-0.013214111328125	5097.84925312917
0.632781982421875	-0.01343994140625	5097.89350312906
0.62835693359375	-0.013665771484375	5097.93775312894
0.623931884765625	-0.0138946533203125	5097.98200312883
0.6195068359375	-0.0141082763671875	5098.02625312872
0.615081787109375	-0.0143218994140625	5098.07050312861
0.61065673828125	-0.014532470703125	5098.1147531285
0.606231689453125	-0.014739990234375	5098.15900312839
0.601806640625	-0.01494140625	5098.20325312827
0.597381591796875	-0.0151458740234375	5098.24750312816
0.59295654296875	-0.0153472900390625	5098.29175312805
0.588531494140625	-0.0155426025390625	5098.33600312794
0.5841064453125	-0.015728759765625	5098.38025312783
0.579681396484375	-0.01591796875	5098.42450312772
0.57525634765625	-0.0161102294921875	5098.4687531276
0.570831298828125	-0.01629638671875	5098.51300312749
0.56640625	-0.0164794921875	5098.55725312738
0.561981201171875	-0.0166595458984375	5098.60150312727
0.55755615234375	-0.016839599609375	5098.64575312716
0.553131103515625	-0.0170166015625	5098.69000312705
0.5487060546875	-0.0171875	5098.73425312693
0.544281005859375	-0.0173553466796875	5098.77850312682
0.53985595703125	-0.017523193359375	5098.82275312671
0.535430908203125	-0.0176910400390625	5098.8670031266
0.531005859375	-0.017852783203125	5098.91125312649
0.526580810546875	-0.0180145263671875	5098.95550312638
0.52215576171875	-0.0181732177734375	5098.99975312626
0.517730712890625	-0.0183319091796875	5099.04400312615
0.5133056640625	-0.018487548828125	5099.08825312604
0.508880615234375	-0.01864013671875	5099.13250312593
0.50445556640625	-0.0187896728515625	5099.17675312582
0.500030517578125	-0.0189422607421875	5099.2210031257
0.49560546875	-0.019091796875	5099.26525312559
0.491180419921875	-0.0192413330078125	5099.30950312548
0.48675537109375	-0.019390869140625	5099.35375312537
0.482330322265625	-0.0195343017578125	5099.39800312526
0.4779052734375	-0.0196746826171875	5099.44225312515
0.473480224609375	-0.0198150634765625	5099.48650312503
0.46905517578125	-0.0199554443359375	5099.53075312492
0.464630126953125	-0.0200927734375	5099.57500312481
0.460205078125	-0.02022705078125	5099.6192531247
0.455780029296875	-0.020361328125	5099.66350312459
0.45135498046875	-0.02049560546875	5099.70775312448
0.446929931640625	-0.0206268310546875	5099.75200312436
0.4425048828125	-0.0207611083984375	5099.79625312425
0.438079833984375	-0.020892333984375	5099.84050312414
0.43365478515625	-0.0210235595703125	5099.88475312403
0.429229736328125	-0.0211517333984375	5099.92900312392
0.4248046875	-0.02127685546875	5099.97325312381
0.420379638671875	-0.021405029296875	5100.01750312369
0.41595458984375	-0.021533203125	5100.06175312358
0.411529541015625	-0.0216552734375	5100.10600312347
0.4071044921875	-0.0217803955078125	5100.15025312336
0.402679443359375	-0.0218994140625	5100.19450312325
0.39825439453125	-0.022021484375	5100.23875312314
0.393829345703125	-0.0221435546875	5100.28300312302
0.389404296875	-0.0222625732421875	5100.32725312291
0.384979248046875	-0.0223846435546875	5100.3715031228
0.38055419921875	-0.022503662109375	5100.41575312269
0.376129150390625	-0.02261962890625	5100.46000312258
0.3717041015625	-0.0227386474609375	5100.50425312246
0.367279052734375	-0.0228546142578125	5100.54850312235
0.36285400390625	-0.0229705810546875	5100.59275312224
0.358428955078125	-0.0230865478515625	5100.63700312213
0.35400390625	-0.023199462890625	5100.68125312202
0.349578857421875	-0.0233123779296875	5100.72550312191
0.34515380859375	-0.02342529296875	5100.76975312179
0.340728759765625	-0.02353515625	5100.81400312168
0.3363037109375	-0.0236480712890625	5100.85825312157
0.331878662109375	-0.023760986328125	5100.90250312146
0.32745361328125	-0.023876953125	5100.94675312135
0.323028564453125	-0.02398681640625	5100.99100312124
0.318603515625	-0.0240936279296875	5101.03525312112
0.314178466796875	-0.02420654296875	5101.07950312101
0.30975341796875	-0.0243194580078125	5101.1237531209
0.305328369140625	-0.0244293212890625	5101.16800312079
0.3009033203125	-0.0245361328125	5101.21225312068
0.296478271484375	-0.0246429443359375	5101.25650312056
0.29205322265625	-0.0247528076171875	5101.30075312045
0.287628173828125	-0.024859619140625	5101.34500312034
0.283203125	-0.0249664306640625	5101.38925312023
0.278778076171875	-0.0250732421875	5101.43350312012
0.27435302734375	-0.0251800537109375	5101.47775312001
0.269927978515625	-0.025286865234375	5101.5220031199
0.2655029296875	-0.025390625	5101.56625311978
0.261077880859375	-0.0254974365234375	5101.61050311967
0.25665283203125	-0.0256011962890625	5101.65475311956
0.252227783203125	-0.0257049560546875	5101.69900311945
0.247802734375	-0.0258056640625	5101.74325311934
0.243377685546875	-0.025909423828125	5101.78750311923
0.23895263671875	-0.0260101318359375	5101.83175311911
0.234527587890625	-0.0261138916015625	5101.876003119
0.2301025390625	-0.026214599609375	5101.92025311889
0.225677490234375	-0.0263153076171875	5101.96450311878
0.22125244140625	-0.026416015625	5102.00875311867
0.216827392578125	-0.0265167236328125	5102.05300311855
0.21240234375	-0.026611328125	5102.09725311844
0.207977294921875	-0.026708984375	5102.14150311833
0.20355224609375	-0.026806640625	5102.18575311822
0.199127197265625	-0.026904296875	5102.23000311811
0.1947021484375	-0.0269989013671875	5102.274253118
0.190277099609375	-0.027093505859375	5102.31850311788
0.18585205078125	-0.0271881103515625	5102.36275311777
0.181427001953125	-0.02728271484375	5102.40700311766
0.177001953125	-0.027374267578125	5102.45125311755
0.172576904296875	-0.0274688720703125	5102.49550311744
0.16815185546875	-0.0275634765625	5102.53975311733
0.163726806640625	-0.027655029296875	5102.58400311721
0.1593017578125	-0.0277435302734375	5102.6282531171
0.154876708984375	-0.0278350830078125	5102.67250311699
0.15045166015625	-0.027923583984375	5102.71675311688
0.146026611328125	-0.0280120849609375	5102.76100311677
0.1416015625	-0.028094482421875	5102.80525311665
0.137176513671875	-0.028179931640625	5102.84950311654
0.13275146484375	-0.028265380859375	5102.89375311643
0.128326416015625	-0.0283477783203125	5102.93800311632
0.1239013671875	-0.0284332275390625	5102.98225311621
0.119476318359375	-0.0285125732421875	5103.0265031161
0.11505126953125	-0.028594970703125	5103.07075311599
0.110626220703125	-0.0286773681640625	5103.11500311587
0.106201171875	-0.0287567138671875	5103.15925311576
0.101776123046875	-0.028839111328125	5103.20350311565
0.09735107421875	-0.0289154052734375	5103.24775311554
0.092926025390625	-0.02899169921875	5103.29200311543
0.0885009765625	-0.0290679931640625	5103.33625311531
0.084075927734375	-0.0291412353515625	5103.3805031152
0.07965087890625	-0.0292144775390625	5103.42475311509
0.075225830078125	-0.0292877197265625	5103.46900311498
0.07080078125	-0.0293609619140625	5103.51325311487
0.066375732421875	-0.02943115234375	5103.55750311476
0.06195068359375	-0.0295013427734375	5103.60175311464
0.057525634765625	-0.029571533203125	5103.64600311453
0.0531005859375	-0.029638671875	5103.69025311442
0.048675537109375	-0.029705810546875	5103.73450311431
0.04425048828125	-0.0297698974609375	5103.7787531142
0.039825439453125	-0.0298370361328125	5103.82300311409
0.035400390625	-0.029901123046875	5103.86725311397
0.030975341796875	-0.029962158203125	5103.91150311386
0.02655029296875	-0.030023193359375	5103.95575311375
0.022125244140625	-0.030084228515625	5104.00000311364
0.0177001953125	-0.030145263671875	5104.04425311353
0.013275146484375	-0.030206298828125	5104.08850311341
0.00885009765625	-0.030267333984375	5104.1327531133
0.004425048828125	-0.0303253173828125	5104.17700311319
0	-0.03038330078125	5104.22125311308
0.004425048828125	-0.0294097900390625	5104.26550311297
0.00885009765625	-0.028460693359375	5104.30975311286
0.013275146484375	-0.0275360107421875	5104.35400311274
0.0177001953125	-0.0266326904296875	5104.39825311263
0.022125244140625	-0.025750732421875	5104.44250311252
0.02655029296875	-0.0248870849609375	5104.48675311241
0.030975341796875	-0.0240386962890625	5104.5310031123
0.035400390625	-0.0232086181640625	5104.57525311219
0.039825439453125	-0.022393798828125	5104.61950311208
0.04425048828125	-0.0215972900390625	5104.66375311196
0.048675537109375	-0.02081298828125	5104.70800311185
0.0531005859375	-0.0200469970703125	5104.75225311174
0.057525634765625	-0.019293212890625	5104.79650311163
0.06195068359375	-0.018548583984375	5104.84075311152
0.066375732421875	-0.0178192138671875	5104.8850031114
0.07080078125	-0.0171051025390625	5104.92925311129
0.075225830078125	-0.0163970947265625	5104.97350311118
0.07965087890625	-0.0157073974609375	5105.01775311107
0.084075927734375	-0.01502685546875	5105.06200311096
0.0885009765625	-0.0143585205078125	5105.10625311085
0.092926025390625	-0.0137054443359375	5105.15050311073
0.09735107421875	-0.0130584716796875	5105.19475311062
0.101776123046875	-0.0124237060546875	5105.23900311051
0.106201171875	-0.011798095703125	5105.2832531104
0.110626220703125	-0.011181640625	5105.32750311029
0.11505126953125	-0.0105804443359375	5105.37175311018
0.119476318359375	-0.0099884033203125	5105.41600311006
0.1239013671875	-0.0094024658203125	5105.46025310995
0.128326416015625	-0.0088287353515625	5105.50450310984
0.13275146484375	-0.0082611083984375	5105.54875310973
0.137176513671875	-0.007708740234375	5105.59300310962
0.1416015625	-0.007159423828125	5105.6372531095
0.146026611328125	-0.0066192626953125	5105.68150310939
0.15045166015625	-0.0060882568359375	5105.72575310928
0.154876708984375	-0.0055633544921875	5105.77000310917
0.1593017578125	-0.0050506591796875	5105.81425310906
0.163726806640625	-0.00454803466796875	5105.85850310895
0.16815185546875	-0.0040509033203125	5105.90275310883
0.172576904296875	-0.00356048583984375	5105.94700310872
0.177001953125	-0.00307830810546875	5105.99125310861
0.181427001953125	-0.00260345458984375	5106.0355031085
0.18585205078125	-0.00214447021484375	5106.07975310839
0.190277099609375	-0.0016827392578125	5106.12400310828
0.1947021484375	-0.00122894287109375	5106.16825310816
0.199127197265625	-0.00078155517578125	5106.21250310805
0.20355224609375	-0.000341583251953125	5106.25675310794
0.207977294921875	9.185791015625E-05	5106.30100310783
0.21240234375	0.00051849365234375	5106.34525310772
0.216827392578125	0.00093902587890625	5106.38950310761
0.22125244140625	0.00135406494140625	5106.43375310749
0.225677490234375	0.0017620849609375	5106.47800310738
0.2301025390625	0.0021636962890625	5106.52225310727
0.234527587890625	0.00255706787109375	5106.56650310716
0.23895263671875	0.00294525146484375	5106.61075310705
0.243377685546875	0.0033306884765625	5106.65500310694
0.247802734375	0.00370941162109375	5106.69925310682
0.252227783203125	0.00408172607421875	5106.74350310671
0.25665283203125	0.00444915771484375	5106.7877531066
0.261077880859375	0.00481109619140625	5106.83200310649
0.2655029296875	0.005167236328125	5106.87625310638
0.269927978515625	0.005518798828125	5106.92050310626
0.27435302734375	0.0058642578125	5106.96475310615
0.278778076171875	0.0062054443359375	5107.00900310604
0.283203125	0.00653076171875	5107.05325310593
0.287628173828125	0.0068634033203125	5107.09750310582
0.29205322265625	0.0071868896484375	5107.14175310571
0.296478271484375	0.00750732421875	5107.18600310559
0.3009033203125	0.0078216552734375	5107.23025310548
0.305328369140625	0.0081298828125	5107.27450310537
0.30975341796875	0.0084381103515625	5107.31875310526
0.314178466796875	0.0087432861328125	5107.36300310515
0.318603515625	0.0090423583984375	5107.40725310504
0.323028564453125	0.0093353271484375	5107.45150310492
0.32745361328125	0.009625244140625	5107.49575310481
0.331878662109375	0.009912109375	5107.5400031047
0.3363037109375	0.0101898193359375	5107.58425310459
0.340728759765625	0.010467529296875	5107.62850310448
0.34515380859375	0.0107421875	5107.67275310437
0.349578857421875	0.0110076904296875	5107.71700310425
0.35400390625	0.0112701416015625	5107.76125310414
0.358428955078125	0.0115325927734375	5107.80550310403
0.36285400390625	0.0117889404296875	5107.84975310392
0.367279052734375	0.0120452880859375	5107.89400310381
0.3717041015625	0.0122955322265625	5107.9382531037
0.376129150390625	0.012542724609375	5107.98250310358
0.38055419921875	0.012786865234375	5108.02675310347
0.384979248046875	0.0130279541015625	5108.07100310336
0.389404296875	0.0132659912109375	5108.11525310325
0.393829345703125	0.013494873046875	5108.15950310314
0.39825439453125	0.0137298583984375	5108.20375310303
0.402679443359375	0.013958740234375	5108.24800310291
0.4071044921875	0.0141815185546875	5108.2922531028
0.411529541015625	0.0144012451171875	5108.33650310269
0.41595458984375	0.0146240234375	5108.38075310258
0.420379638671875	0.014837646484375	5108.42500310247
0.4248046875	0.0150543212890625	5108.46925310235
0.429229736328125	0.015264892578125	5108.51350310224
0.43365478515625	0.015472412109375	5108.55775310213
0.438079833984375	0.0156768798828125	5108.60200310202
0.4425048828125	0.01588134765625	5108.64625310191
0.446929931640625	0.016082763671875	5108.6905031018
0.45135498046875	0.0162811279296875	5108.73475310168
0.455780029296875	0.0164764404296875	5108.77900310157
0.460205078125	0.016668701171875	5108.82325310146
0.464630126953125	0.0168670654296875	5108.86750310135
0.46905517578125	0.017059326171875	5108.91175310124
0.473480224609375	0.017242431640625	5108.95600310113
0.4779052734375	0.0174285888671875	5109.00025310101
0.482330322265625	0.0176116943359375	5109.0445031009
0.48675537109375	0.0177947998046875	5109.08875310079
0.491180419921875	0.0179718017578125	5109.13300310068
0.49560546875	0.018145751953125	5109.17725310057
0.500030517578125	0.01832275390625	5109.22150310046
0.50445556640625	0.01849365234375	5109.26575310034
0.508880615234375	0.0186614990234375	5109.31000310023
0.5133056640625	0.0188262939453125	5109.35425310012
0.517730712890625	0.018994140625	5109.39850310001
0.52215576171875	0.019158935546875	5109.4427530999
0.526580810546875	0.01932373046875	5109.48700309979
0.531005859375	0.0194854736328125	5109.53125309967
0.535430908203125	0.0196441650390625	5109.57550309956
0.53985595703125	0.0198028564453125	5109.61975309945
0.544281005859375	0.01995849609375	5109.66400309934
0.5487060546875	0.0201141357421875	5109.70825309923
0.553131103515625	0.0202667236328125	5109.75250309911
0.55755615234375	0.0204132080078125	5109.796753099
0.561981201171875	0.0205596923828125	5109.84100309889
0.56640625	0.0207061767578125	5109.88525309878
0.570831298828125	0.0208526611328125	5109.92950309867
0.57525634765625	0.0209991455078125	5109.97375309856
0.579681396484375	0.0211395263671875	5110.01800309844
0.5841064453125	0.021282958984375	5110.06225309833
0.588531494140625	0.0214202880859375	5110.10650309822
0.59295654296875	0.0215606689453125	5110.15075309811
0.597381591796875	0.0217010498046875	5110.195003098
0.601806640625	0.02183837890625	5110.23925309789
0.606231689453125	0.0219696044921875	5110.28350309777
0.61065673828125	0.0221038818359375	5110.32775309766
0.615081787109375	0.022235107421875	5110.37200309755
0.6195068359375	0.02236328125	5110.41625309744
0.623931884765625	0.0224945068359375	5110.46050309733
0.62835693359375	0.022625732421875	5110.50475309722
0.632781982421875	0.02275390625	5110.5490030971
0.63720703125	0.0228790283203125	5110.59325309699
0.641632080078125	0.023004150390625	5110.63750309688
0.64605712890625	0.0231292724609375	5110.68175309677
0.650482177734375	0.0232513427734375	5110.72600309666
0.6549072265625	0.023370361328125	5110.77025309655
0.659332275390625	0.023486328125	5110.81450309643
0.66375732421875	0.0236053466796875	5110.85875309632
0.668182373046875	0.0237213134765625	5110.90300309621
0.672607421875	0.023834228515625	5110.9472530961
0.677032470703125	0.0239471435546875	5110.99150309599
0.68145751953125	0.02406005859375	5111.03575309588
0.685882568359375	0.0241729736328125	5111.08000309576
0.6903076171875	0.0242828369140625	5111.12425309565
0.694732666015625	0.0243927001953125	5111.16850309554
0.69915771484375	0.0245025634765625	5111.21275309543
0.703582763671875	0.024609375	5111.25700309532
0.7080078125	0.0247161865234375	5111.3012530952
0.712432861328125	0.0248199462890625	5111.34550309509
0.71685791015625	0.0249237060546875	5111.38975309498
0.721282958984375	0.0250213623046875	5111.43400309487
0.7257080078125	0.025115966796875	5111.47825309476
0.730133056640625	0.0252166748046875	5111.52250309465
0.73455810546875	0.0253143310546875	5111.56675309453
0.738983154296875	0.0254119873046875	5111.61100309442
0.743408203125	0.025506591796875	5111.65525309431
0.747833251953125	0.0256011962890625	5111.6995030942
0.75225830078125	0.0256927490234375	5111.74375309409
0.756683349609375	0.0257843017578125	5111.78800309398
0.7611083984375	0.0258758544921875	5111.83225309386
0.765533447265625	0.02596435546875	5111.87650309375
0.76995849609375	0.0260528564453125	5111.92075309364
0.774383544921875	0.0261383056640625	5111.96500309353
0.77880859375	0.026220703125	5112.00925309342
0.783233642578125	0.0263031005859375	5112.05350309331
0.78765869140625	0.0263885498046875	5112.09775309319
0.792083740234375	0.0264678955078125	5112.14200309308
0.7965087890625	0.0265472412109375	5112.18625309297
0.800933837890625	0.02662353515625	5112.23050309286
0.80535888671875	0.026702880859375	5112.27475309275
0.809783935546875	0.0267822265625	5112.31900309264
0.814208984375	0.0268585205078125	5112.36325309252
0.818634033203125	0.0269317626953125	5112.40750309241
0.82305908203125	0.0270050048828125	5112.4517530923
0.827484130859375	0.0270751953125	5112.49600309219
0.8319091796875	0.027142333984375	5112.54025309208
0.836334228515625	0.0272125244140625	5112.58450309196
0.84075927734375	0.0272796630859375	5112.62875309185
0.845184326171875	0.0273468017578125	5112.67300309174
0.849609375	0.0274078369140625	5112.71725309163
0.854034423828125	0.0274749755859375	5112.76150309152
0.85845947265625	0.0275421142578125	5112.80575309141
0.862884521484375	0.027606201171875	5112.85000309129
0.8673095703125	0.027667236328125	5112.89425309118
0.871734619140625	0.0277313232421875	5112.93850309107
0.87615966796875	0.0277923583984375	5112.98275309096
0.880584716796875	0.027850341796875	5113.02700309085
0.885009765625	0.027911376953125	5113.07125309074
0.889434814453125	0.02796630859375	5113.11550309062
0.89385986328125	0.028021240234375	5113.15975309051
0.898284912109375	0.0280792236328125	5113.2040030904
0.9027099609375	0.0281341552734375	5113.24825309029
0.907135009765625	0.0281890869140625	5113.29250309018
0.91156005859375	0.0282440185546875	5113.33675309007
0.915985107421875	0.028302001953125	5113.38100308995
0.92041015625	0.02835693359375	5113.42525308984
0.924835205078125	0.028411865234375	5113.46950308973
0.92926025390625	0.028466796875	5113.51375308962
0.933685302734375	0.0285186767578125	5113.55800308951
0.9381103515625	0.0285736083984375	5113.6022530894
0.942535400390625	0.0286224365234375	5113.64650308928
0.94696044921875	0.02867431640625	5113.69075308917
0.951385498046875	0.0287261962890625	5113.73500308906
0.955810546875	0.028778076171875	5113.77925308895
0.960235595703125	0.0288330078125	5113.82350308884
0.96466064453125	0.0288818359375	5113.86775308873
0.969085693359375	0.028936767578125	5113.91200308861
0.9735107421875	0.0289886474609375	5113.9562530885
0.977935791015625	0.02904052734375	5114.00050308839
0.98236083984375	0.0290924072265625	5114.04475308828
0.986785888671875	0.029144287109375	5114.08900308817
0.9912109375	0.029193115234375	5114.13325308805
0.995635986328125	0.029241943359375	5114.17750308794
1.00006103515625	0.029296875	5114.22175308783
0.995635986328125	0.02830810546875	5114.26600308772
0.9912109375	0.02735595703125	5114.31025308761
0.986785888671875	0.0264312744140625	5114.3545030875
0.98236083984375	0.0255279541015625	5114.39875308738
0.977935791015625	0.02464599609375	5114.44300308727
0.9735107421875	0.023785400390625	5114.48725308716
0.969085693359375	0.022943115234375	5114.53150308705
0.96466064453125	0.0221160888671875	5114.57575308694
0.960235595703125	0.021307373046875	5114.62000308683
0.955810546875	0.0205108642578125	5114.66425308671
0.951385498046875	0.0197357177734375	5114.7085030866
0.94696044921875	0.0189727783203125	5114.75275308649
0.942535400390625	0.01822509765625	5114.79700308638
0.9381103515625	0.0174896240234375	5114.84125308627
0.933685302734375	0.016766357421875	5114.88550308616
0.92926025390625	0.0160614013671875	5114.92975308604
0.924835205078125	0.0153717041015625	5114.97400308593
0.92041015625	0.0146881103515625	5115.01825308582
0.915985107421875	0.014019775390625	5115.06250308571
0.91156005859375	0.013360595703125	5115.1067530856
0.907135009765625	0.0127166748046875	5115.15100308549
0.9027099609375	0.0120819091796875	5115.19525308537
0.898284912109375	0.011456298828125	5115.23950308526
0.89385986328125	0.010845947265625	5115.28375308515
0.889434814453125	0.01024169921875	5115.32800308504
0.885009765625	0.009649658203125	5115.37225308493
0.880584716796875	0.0090667724609375	5115.41650308481
0.87615966796875	0.00849609375	5115.4607530847
0.871734619140625	0.007928466796875	5115.50500308459
0.8673095703125	0.007379150390625	5115.54925308448
0.862884521484375	0.0068359375	5115.59350308437
0.85845947265625	0.006298828125	5115.63775308426
0.854034423828125	0.0057708740234375	5115.68200308414
0.849609375	0.0052490234375	5115.72625308403
0.845184326171875	0.0047393798828125	5115.77050308392
0.84075927734375	0.00423583984375	5115.81475308381
0.836334228515625	0.00374237060546875	5115.8590030837
0.8319091796875	0.0032550048828125	5115.90325308359
0.827484130859375	0.0027764892578125	5115.94750308347
0.82305908203125	0.00230621337890625	5115.99175308336
0.818634033203125	0.0018414306640625	5116.03600308325
0.814208984375	0.00138397216796875	5116.08025308314
0.809783935546875	0.000933837890625	5116.12450308303
0.80535888671875	0.0004901123046875	5116.16875308292
0.800933837890625	5.3436279296875E-05	5116.2130030828
0.7965087890625	-0.000376129150390625	5116.25725308269
0.792083740234375	-0.00079864501953125	5116.30150308258
0.78765869140625	-0.00121551513671875	5116.34575308247
0.783233642578125	-0.0016253662109375	5116.39000308236
0.77880859375	-0.00202789306640625	5116.43425308225
0.774383544921875	-0.00242523193359375	5116.47850308213
0.76995849609375	-0.002816162109375	5116.52275308202
0.765533447265625	-0.0032012939453125	5116.56700308191
0.7611083984375	-0.00358062744140625	5116.6112530818
0.756683349609375	-0.0039532470703125	5116.65550308169
0.75225830078125	-0.0043212890625	5116.69975308158
0.747833251953125	-0.00468292236328125	5116.74400308146
0.743408203125	-0.0050384521484375	5116.78825308135
0.738983154296875	-0.00538604736328125	5116.83250308124
0.73455810546875	-0.00573089599609375	5116.87675308113
0.730133056640625	-0.0060693359375	5116.92100308102
0.7257080078125	-0.006378173828125	5116.9652530809
0.721282958984375	-0.006707763671875	5117.00950308079
0.71685791015625	-0.00703125	5117.05375308068
0.712432861328125	-0.0073486328125	5117.09800308057
0.7080078125	-0.0076629638671875	5117.14225308046
0.703582763671875	-0.0079681396484375	5117.18650308035
0.69915771484375	-0.008270263671875	5117.23075308023
0.694732666015625	-0.0085693359375	5117.27500308012
0.6903076171875	-0.0088623046875	5117.31925308001
0.685882568359375	-0.0091522216796875	5117.3635030799
0.68145751953125	-0.00943603515625	5117.40775307979
0.677032470703125	-0.0097137451171875	5117.45200307968
0.672607421875	-0.009991455078125	5117.49625307956
0.668182373046875	-0.010260009765625	5117.54050307945
0.66375732421875	-0.010528564453125	5117.58475307934
0.659332275390625	-0.0107940673828125	5117.62900307923
0.6549072265625	-0.0110504150390625	5117.67325307912
0.650482177734375	-0.0113067626953125	5117.71750307901
0.64605712890625	-0.0115570068359375	5117.76175307889
0.641632080078125	-0.01180419921875	5117.80600307878
0.63720703125	-0.01204833984375	5117.85025307867
0.632781982421875	-0.0122894287109375	5117.89450307856
0.62835693359375	-0.0125213623046875	5117.93875307845
0.623931884765625	-0.0127593994140625	5117.98300307834
0.6195068359375	-0.0129913330078125	5118.02725307822
0.615081787109375	-0.0132171630859375	5118.07150307811
0.61065673828125	-0.01343994140625	5118.115753078
0.606231689453125	-0.01365966796875	5118.16000307789
0.601806640625	-0.0138763427734375	5118.20425307778
0.597381591796875	-0.0140869140625	5118.24850307766
0.59295654296875	-0.01429443359375	5118.29275307755
0.588531494140625	-0.014501953125	5118.33700307744
0.5841064453125	-0.0147064208984375	5118.38125307733
0.579681396484375	-0.014910888671875	5118.42550307722
0.57525634765625	-0.0151092529296875	5118.46975307711
0.570831298828125	-0.0153076171875	5118.51400307699
0.56640625	-0.0154998779296875	5118.55825307688
0.561981201171875	-0.01568603515625	5118.60250307677
0.55755615234375	-0.015875244140625	5118.64675307666
0.553131103515625	-0.0160614013671875	5118.69100307655
0.5487060546875	-0.01624755859375	5118.73525307644
0.544281005859375	-0.016424560546875	5118.77950307632
0.53985595703125	-0.0166046142578125	5118.82375307621
0.535430908203125	-0.0167816162109375	5118.8680030761
0.531005859375	-0.0169586181640625	5118.91225307599
0.526580810546875	-0.017132568359375	5118.95650307588
0.52215576171875	-0.0173004150390625	5119.00075307577
0.517730712890625	-0.0174652099609375	5119.04500307565
0.5133056640625	-0.017633056640625	5119.08925307554
0.508880615234375	-0.0177947998046875	5119.13350307543
0.50445556640625	-0.01795654296875	5119.17775307532
0.500030517578125	-0.018115234375	5119.22200307521
0.49560546875	-0.01827392578125	5119.26625307509
0.491180419921875	-0.0184326171875	5119.31050307498
0.48675537109375	-0.0185882568359375	5119.35475307487
0.482330322265625	-0.0187408447265625	5119.39900307476
0.4779052734375	-0.018890380859375	5119.44325307465
0.473480224609375	-0.0190399169921875	5119.48750307454
0.46905517578125	-0.019189453125	5119.53175307443
0.464630126953125	-0.0193328857421875	5119.57600307431
0.460205078125	-0.0194793701171875	5119.6202530742
0.455780029296875	-0.019622802734375	5119.66450307409
0.45135498046875	-0.01976318359375	5119.70875307398
0.446929931640625	-0.0199066162109375	5119.75300307387
0.4425048828125	-0.0200469970703125	5119.79725307375
0.438079833984375	-0.0201873779296875	5119.84150307364
0.43365478515625	-0.0203216552734375	5119.88575307353
0.429229736328125	-0.020458984375	5119.93000307342
0.4248046875	-0.02059326171875	5119.97425307331
0.420379638671875	-0.0207275390625	5120.0185030732
0.41595458984375	-0.02086181640625	5120.06275307308
0.411529541015625	-0.0209930419921875	5120.10700307297
0.4071044921875	-0.021124267578125	5120.15125307286
0.402679443359375	-0.02125244140625	5120.19550307275
0.39825439453125	-0.021380615234375	5120.23975307264
0.393829345703125	-0.0215087890625	5120.28400307253
0.389404296875	-0.0216339111328125	5120.32825307241
0.384979248046875	-0.0217620849609375	5120.3725030723
0.38055419921875	-0.02188720703125	5120.41675307219
0.376129150390625	-0.0220123291015625	5120.46100307208
0.3717041015625	-0.022137451171875	5120.50525307197
0.367279052734375	-0.022259521484375	5120.54950307186
0.36285400390625	-0.0223846435546875	5120.59375307174
0.358428955078125	-0.022503662109375	5120.63800307163
0.35400390625	-0.022625732421875	5120.68225307152
0.349578857421875	-0.0227386474609375	5120.72650307141
0.34515380859375	-0.022857666015625	5120.7707530713
0.340728759765625	-0.0229766845703125	5120.81500307118
0.3363037109375	-0.023095703125	5120.85925307107
0.331878662109375	-0.0232177734375	5120.90350307096
0.32745361328125	-0.023333740234375	5120.94775307085
0.323028564453125	-0.02344970703125	5120.99200307074
0.318603515625	-0.023565673828125	5121.03625307063
0.314178466796875	-0.023681640625	5121.08050307051
0.30975341796875	-0.0238006591796875	5121.1247530704
0.305328369140625	-0.0239166259765625	5121.16900307029
0.3009033203125	-0.024029541015625	5121.21325307018
0.296478271484375	-0.0241424560546875	5121.25750307007
0.29205322265625	-0.02425537109375	5121.30175306996
0.287628173828125	-0.024365234375	5121.34600306984
0.283203125	-0.0244781494140625	5121.39025306973
0.278778076171875	-0.0245880126953125	5121.43450306962
0.27435302734375	-0.0247039794921875	5121.47875306951
0.269927978515625	-0.02481689453125	5121.5230030694
0.2655029296875	-0.0249267578125	5121.56725306929
0.261077880859375	-0.025030517578125	5121.61150306917
0.25665283203125	-0.0251434326171875	5121.65575306906
0.252227783203125	-0.025250244140625	5121.70000306895
0.247802734375	-0.0253570556640625	5121.74425306884
0.243377685546875	-0.0254638671875	5121.78850306873
0.23895263671875	-0.0255706787109375	5121.83275306862
0.234527587890625	-0.0256744384765625	5121.8770030685
0.2301025390625	-0.0257781982421875	5121.92125306839
0.225677490234375	-0.0258819580078125	5121.96550306828
0.22125244140625	-0.0259857177734375	5122.00975306817
0.216827392578125	-0.0260894775390625	5122.05400306806
0.21240234375	-0.0261932373046875	5122.09825306794
0.207977294921875	-0.026300048828125	5122.14250306783
0.20355224609375	-0.026397705078125	5122.18675306772
0.199127197265625	-0.0264984130859375	5122.23100306761
0.1947021484375	-0.026593017578125	5122.2752530675
0.190277099609375	-0.026690673828125	5122.31950306739
0.18585205078125	-0.026788330078125	5122.36375306727
0.181427001953125	-0.0268829345703125	5122.40800306716
0.177001953125	-0.0269775390625	5122.45225306705
0.172576904296875	-0.0270721435546875	5122.49650306694
0.16815185546875	-0.027166748046875	5122.54075306683
0.163726806640625	-0.0272613525390625	5122.58500306672
0.1593017578125	-0.02735595703125	5122.6292530666
0.154876708984375	-0.027447509765625	5122.67350306649
0.15045166015625	-0.0275360107421875	5122.71775306638
0.146026611328125	-0.0276275634765625	5122.76200306627
0.1416015625	-0.0277130126953125	5122.80625306616
0.137176513671875	-0.027801513671875	5122.85050306605
0.13275146484375	-0.027886962890625	5122.89475306593
0.128326416015625	-0.027972412109375	5122.93900306582
0.1239013671875	-0.0280517578125	5122.98325306571
0.119476318359375	-0.0281341552734375	5123.0275030656
0.11505126953125	-0.0282135009765625	5123.07175306549
0.110626220703125	-0.0282989501953125	5123.11600306538
0.106201171875	-0.02838134765625	5123.16025306526
0.101776123046875	-0.028460693359375	5123.20450306515
0.09735107421875	-0.0285369873046875	5123.24875306504
0.092926025390625	-0.02861328125	5123.29300306493
0.0885009765625	-0.028692626953125	5123.33725306482
0.084075927734375	-0.028765869140625	5123.38150306471
0.07965087890625	-0.0288360595703125	5123.42575306459
0.075225830078125	-0.02890625	5123.47000306448
0.07080078125	-0.0289764404296875	5123.51425306437
0.066375732421875	-0.0290435791015625	5123.55850306426
0.06195068359375	-0.02911376953125	5123.60275306415
0.057525634765625	-0.029180908203125	5123.64700306403
0.0531005859375	-0.0292510986328125	5123.69125306392
0.048675537109375	-0.0293212890625	5123.73550306381
0.04425048828125	-0.0293853759765625	5123.7797530637
0.039825439453125	-0.0294525146484375	5123.82400306359
0.035400390625	-0.0295135498046875	5123.86825306348
0.030975341796875	-0.0295745849609375	5123.91250306336
0.02655029296875	-0.029632568359375	5123.95675306325
0.022125244140625	-0.0296905517578125	5124.00100306314
0.0177001953125	-0.0297454833984375	5124.04525306303
0.013275146484375	-0.0298004150390625	5124.08950306292
0.00885009765625	-0.0298553466796875	5124.13375306281
0.004425048828125	-0.0299163818359375	5124.17800306269
0	-0.0299713134765625	5124.22225306258
0.004425048828125	-0.0289947509765625	5124.26650306247
0.00885009765625	-0.0280517578125	5124.31075306236
0.013275146484375	-0.0271240234375	5124.35500306225
0.0177001953125	-0.0262237548828125	5124.39925306214
0.022125244140625	-0.025335693359375	5124.44350306202
0.02655029296875	-0.0244720458984375	5124.48775306191
0.030975341796875	-0.02362060546875	5124.5320030618
0.035400390625	-0.0227935791015625	5124.57625306169
0.039825439453125	-0.021978759765625	5124.62050306158
0.04425048828125	-0.0211822509765625	5124.66475306147
0.048675537109375	-0.02039794921875	5124.70900306135
0.0531005859375	-0.0196319580078125	5124.75325306124
0.057525634765625	-0.018878173828125	5124.79750306113
0.06195068359375	-0.0181365966796875	5124.84175306102
0.066375732421875	-0.0174072265625	5124.88600306091
0.07080078125	-0.0166961669921875	5124.93025306079
0.075225830078125	-0.0159912109375	5124.97450306068
0.07965087890625	-0.0153045654296875	5125.01875306057
0.084075927734375	-0.0146270751953125	5125.06300306046
0.0885009765625	-0.0139617919921875	5125.10725306035
0.092926025390625	-0.0133026123046875	5125.15150306024
0.09735107421875	-0.01265869140625	5125.19575306012
0.101776123046875	-0.0120269775390625	5125.24000306001
0.106201171875	-0.0114044189453125	5125.2842530599
0.110626220703125	-0.010797119140625	5125.32850305979
0.11505126953125	-0.01019287109375	5125.37275305968
0.119476318359375	-0.0096038818359375	5125.41700305957
0.1239013671875	-0.0090240478515625	5125.46125305945
0.128326416015625	-0.008453369140625	5125.50550305934
0.13275146484375	-0.0078887939453125	5125.54975305923
0.137176513671875	-0.00733642578125	5125.59400305912
0.1416015625	-0.0067901611328125	5125.63825305901
0.146026611328125	-0.0062530517578125	5125.6825030589
0.15045166015625	-0.00572509765625	5125.72675305878
0.154876708984375	-0.005206298828125	5125.77100305867
0.1593017578125	-0.00469879150390625	5125.81525305856
0.163726806640625	-0.00419647216796875	5125.85950305845
0.16815185546875	-0.0037017822265625	5125.90375305834
0.172576904296875	-0.00321502685546875	5125.94800305823
0.177001953125	-0.00273651123046875	5125.99225305811
0.181427001953125	-0.002274169921875	5126.036503058
0.18585205078125	-0.0018084716796875	5126.08075305789
0.190277099609375	-0.00135040283203125	5126.12500305778
0.1947021484375	-0.000899658203125	5126.16925305767
0.199127197265625	-0.000456298828125	5126.21350305756
0.20355224609375	-1.99798583984375E-05	5126.25775305744
0.207977294921875	0.00040997314453125	5126.30200305733
0.21240234375	0.00083343505859375	5126.34625305722
0.216827392578125	0.00125091552734375	5126.39050305711
0.22125244140625	0.00166259765625	5126.434753057
0.225677490234375	0.0020672607421875	5126.47900305688
0.2301025390625	0.0024652099609375	5126.52325305677
0.234527587890625	0.00285430908203125	5126.56750305666
0.23895263671875	0.00324188232421875	5126.61175305655
0.243377685546875	0.003623046875	5126.65600305644
0.247802734375	0.0039984130859375	5126.70025305633
0.252227783203125	0.0043682861328125	5126.74450305621
0.25665283203125	0.00473114013671875	5126.7887530561
0.261077880859375	0.0050897216796875	5126.83300305599
0.2655029296875	0.00544281005859375	5126.87725305588
0.269927978515625	0.00579071044921875	5126.92150305577
0.27435302734375	0.00613311767578125	5126.96575305566
0.278778076171875	0.0064605712890625	5127.01000305554
0.283203125	0.006793212890625	5127.05425305543
0.287628173828125	0.0071197509765625	5127.09850305532
0.29205322265625	0.0074432373046875	5127.14275305521
0.296478271484375	0.0077606201171875	5127.1870030551
0.3009033203125	0.00806884765625	5127.23125305499
0.305328369140625	0.008380126953125	5127.27550305487
0.30975341796875	0.0086822509765625	5127.31975305476
0.314178466796875	0.008984375	5127.36400305465
0.318603515625	0.0092803955078125	5127.40825305454
0.323028564453125	0.0095703125	5127.45250305443
0.32745361328125	0.009857177734375	5127.49675305432
0.331878662109375	0.0101409912109375	5127.5410030542
0.3363037109375	0.0104156494140625	5127.58525305409
0.340728759765625	0.010693359375	5127.62950305398
0.34515380859375	0.0109588623046875	5127.67375305387
0.349578857421875	0.011224365234375	5127.71800305376
0.35400390625	0.01148681640625	5127.76225305364
0.358428955078125	0.0117431640625	5127.80650305353
0.36285400390625	0.0119964599609375	5127.85075305342
0.367279052734375	0.012249755859375	5127.89500305331
0.3717041015625	0.0124969482421875	5127.9392530532
0.376129150390625	0.0127410888671875	5127.98350305309
0.38055419921875	0.0129852294921875	5128.02775305297
0.384979248046875	0.0132232666015625	5128.07200305286
0.389404296875	0.013458251953125	5128.11625305275
0.393829345703125	0.013690185546875	5128.16050305264
0.39825439453125	0.013922119140625	5128.20475305253
0.402679443359375	0.0141448974609375	5128.24900305242
0.4071044921875	0.01436767578125	5128.2932530523
0.411529541015625	0.0145904541015625	5128.33750305219
0.41595458984375	0.01480712890625	5128.38175305208
0.420379638671875	0.0150177001953125	5128.42600305197
0.4248046875	0.015228271484375	5128.47025305186
0.429229736328125	0.015435791015625	5128.51450305175
0.43365478515625	0.0156402587890625	5128.55875305163
0.438079833984375	0.0158447265625	5128.60300305152
0.4425048828125	0.0160491943359375	5128.64725305141
0.446929931640625	0.0162506103515625	5128.6915030513
0.45135498046875	0.01644287109375	5128.73575305119
0.455780029296875	0.016644287109375	5128.78000305108
0.460205078125	0.0168365478515625	5128.82425305096
0.464630126953125	0.0170257568359375	5128.86850305085
0.46905517578125	0.0172088623046875	5128.91275305074
0.473480224609375	0.0173919677734375	5128.95700305063
0.4779052734375	0.0175750732421875	5129.00125305052
0.482330322265625	0.0177581787109375	5129.04550305041
0.48675537109375	0.0179351806640625	5129.08975305029
0.491180419921875	0.0181121826171875	5129.13400305018
0.49560546875	0.0182891845703125	5129.17825305007
0.500030517578125	0.0184600830078125	5129.22250304996
0.50445556640625	0.0186309814453125	5129.26675304985
0.508880615234375	0.0187957763671875	5129.31100304973
0.5133056640625	0.018963623046875	5129.35525304962
0.517730712890625	0.01912841796875	5129.39950304951
0.52215576171875	0.019293212890625	5129.4437530494
0.526580810546875	0.0194549560546875	5129.48800304929
0.531005859375	0.019610595703125	5129.53225304918
0.535430908203125	0.0197662353515625	5129.57650304906
0.53985595703125	0.019921875	5129.62075304895
0.544281005859375	0.02008056640625	5129.66500304884
0.5487060546875	0.020233154296875	5129.70925304873
0.553131103515625	0.020379638671875	5129.75350304862
0.55755615234375	0.0205291748046875	5129.79775304851
0.561981201171875	0.0206756591796875	5129.84200304839
0.56640625	0.0208221435546875	5129.88625304828
0.570831298828125	0.0209686279296875	5129.93050304817
0.57525634765625	0.021112060546875	5129.97475304806
0.579681396484375	0.02125244140625	5130.01900304795
0.5841064453125	0.021392822265625	5130.06325304784
0.588531494140625	0.0215301513671875	5130.10750304772
0.59295654296875	0.02166748046875	5130.15175304761
0.597381591796875	0.0218048095703125	5130.1960030475
0.601806640625	0.02193603515625	5130.24025304739
0.606231689453125	0.0220703125	5130.28450304728
0.61065673828125	0.02220458984375	5130.32875304717
0.615081787109375	0.0223358154296875	5130.37300304705
0.6195068359375	0.0224639892578125	5130.41725304694
0.623931884765625	0.022589111328125	5130.46150304683
0.62835693359375	0.0227203369140625	5130.50575304672
0.632781982421875	0.0228485107421875	5130.55000304661
0.63720703125	0.0229705810546875	5130.59425304649
0.641632080078125	0.0230926513671875	5130.63850304638
0.64605712890625	0.0232147216796875	5130.68275304627
0.650482177734375	0.0233367919921875	5130.72700304616
0.6549072265625	0.023455810546875	5130.77125304605
0.659332275390625	0.02357177734375	5130.81550304594
0.66375732421875	0.023687744140625	5130.85975304582
0.668182373046875	0.0238037109375	5130.90400304571
0.672607421875	0.023919677734375	5130.9482530456
0.677032470703125	0.024029541015625	5130.99250304549
0.68145751953125	0.0241424560546875	5131.03675304538
0.685882568359375	0.0242523193359375	5131.08100304527
0.6903076171875	0.024359130859375	5131.12525304515
0.694732666015625	0.0244659423828125	5131.16950304504
0.69915771484375	0.0245758056640625	5131.21375304493
0.703582763671875	0.0246795654296875	5131.25800304482
0.7080078125	0.024786376953125	5131.30225304471
0.712432861328125	0.0248870849609375	5131.3465030446
0.71685791015625	0.0249908447265625	5131.39075304448
0.721282958984375	0.025091552734375	5131.43500304437
0.7257080078125	0.025189208984375	5131.47925304426
0.730133056640625	0.025286865234375	5131.52350304415
0.73455810546875	0.025384521484375	5131.56775304404
0.738983154296875	0.02547607421875	5131.61200304393
0.743408203125	0.025567626953125	5131.65625304381
0.747833251953125	0.0256622314453125	5131.7005030437
0.75225830078125	0.0257537841796875	5131.74475304359
0.756683349609375	0.02584228515625	5131.78900304348
0.7611083984375	0.025933837890625	5131.83325304337
0.765533447265625	0.0260223388671875	5131.87750304326
0.76995849609375	0.0261077880859375	5131.92175304314
0.774383544921875	0.0261932373046875	5131.96600304303
0.77880859375	0.0262786865234375	5132.01025304292
0.783233642578125	0.026361083984375	5132.05450304281
0.78765869140625	0.0264404296875	5132.0987530427
0.792083740234375	0.0265228271484375	5132.14300304258
0.7965087890625	0.0265960693359375	5132.18725304247
0.800933837890625	0.0266754150390625	5132.23150304236
0.80535888671875	0.026751708984375	5132.27575304225
0.809783935546875	0.026824951171875	5132.32000304214
0.814208984375	0.0269012451171875	5132.36425304203
0.818634033203125	0.026971435546875	5132.40850304191
0.82305908203125	0.0270477294921875	5132.4527530418
0.827484130859375	0.027117919921875	5132.49700304169
0.8319091796875	0.0271881103515625	5132.54125304158
0.836334228515625	0.027252197265625	5132.58550304147
0.84075927734375	0.0273193359375	5132.62975304136
0.845184326171875	0.0273834228515625	5132.67400304124
0.849609375	0.027447509765625	5132.71825304113
0.854034423828125	0.0275115966796875	5132.76250304102
0.85845947265625	0.0275726318359375	5132.80675304091
0.862884521484375	0.02763671875	5132.8510030408
0.8673095703125	0.02769775390625	5132.89525304069
0.871734619140625	0.0277618408203125	5132.93950304057
0.87615966796875	0.0278228759765625	5132.98375304046
0.880584716796875	0.027880859375	5133.02800304035
0.885009765625	0.0279388427734375	5133.07225304024
0.889434814453125	0.027996826171875	5133.11650304013
0.89385986328125	0.0280548095703125	5133.16075304002
0.898284912109375	0.028106689453125	5133.2050030399
0.9027099609375	0.02816162109375	5133.24925303979
0.907135009765625	0.0282135009765625	5133.29350303968
0.91156005859375	0.028265380859375	5133.33775303957
0.915985107421875	0.0283233642578125	5133.38200303946
0.92041015625	0.0283782958984375	5133.42625303934
0.924835205078125	0.02843017578125	5133.47050303923
0.92926025390625	0.028485107421875	5133.51475303912
0.933685302734375	0.0285369873046875	5133.55900303901
0.9381103515625	0.0285919189453125	5133.6032530389
0.942535400390625	0.028643798828125	5133.64750303879
0.94696044921875	0.02869873046875	5133.69175303867
0.951385498046875	0.0287445068359375	5133.73600303856
0.955810546875	0.0287933349609375	5133.78025303845
0.960235595703125	0.02884521484375	5133.82450303834
0.96466064453125	0.0288970947265625	5133.86875303823
0.969085693359375	0.0289459228515625	5133.91300303812
0.9735107421875	0.028997802734375	5133.957253038
0.977935791015625	0.029046630859375	5134.00150303789
0.98236083984375	0.0291015625	5134.04575303778
0.986785888671875	0.0291534423828125	5134.09000303767
0.9912109375	0.0292022705078125	5134.13425303756
0.995635986328125	0.0292572021484375	5134.17850303744
1.00006103515625	0.02930908203125	5134.22275303733
0.995635986328125	0.0283233642578125	5134.26700303722
0.9912109375	0.0273681640625	5134.31125303711
0.986785888671875	0.0264404296875	5134.355503037
0.98236083984375	0.0255340576171875	5134.39975303689
0.977935791015625	0.024652099609375	5134.44400303678
0.9735107421875	0.02379150390625	5134.48825303666
0.969085693359375	0.02294921875	5134.53250303655
0.96466064453125	0.0221221923828125	5134.57675303644
0.960235595703125	0.0213134765625	5134.62100303633
0.955810546875	0.02052001953125	5134.66525303622
0.951385498046875	0.019744873046875	5134.70950303611
0.94696044921875	0.01898193359375	5134.75375303599
0.942535400390625	0.0182342529296875	5134.79800303588
0.9381103515625	0.017498779296875	5134.84225303577
0.933685302734375	0.0167755126953125	5134.88650303566
0.92926025390625	0.016070556640625	5134.93075303555
0.924835205078125	0.0153778076171875	5134.97500303543
0.92041015625	0.014697265625	5135.01925303532
0.915985107421875	0.0140289306640625	5135.06350303521
0.91156005859375	0.013372802734375	5135.1077530351
0.907135009765625	0.012725830078125	5135.15200303499
0.9027099609375	0.012091064453125	5135.19625303488
0.898284912109375	0.0114715576171875	5135.24050303476
0.89385986328125	0.010858154296875	5135.28475303465
0.889434814453125	0.01025390625	5135.32900303454
0.885009765625	0.009661865234375	5135.37325303443
0.880584716796875	0.00908203125	5135.41750303432
0.87615966796875	0.00850830078125	5135.46175303421
0.871734619140625	0.0079437255859375	5135.50600303409
0.8673095703125	0.007391357421875	5135.55025303398
0.862884521484375	0.00684814453125	5135.59450303387
0.85845947265625	0.00631103515625	5135.63875303376
0.854034423828125	0.0057830810546875	5135.68300303365
0.849609375	0.005267333984375	5135.72725303353
0.845184326171875	0.00475555419921875	5135.77150303342
0.84075927734375	0.0042535400390625	5135.81575303331
0.836334228515625	0.003759765625	5135.8600030332
0.8319091796875	0.00327301025390625	5135.90425303309
0.827484130859375	0.00279449462890625	5135.94850303298
0.82305908203125	0.00232513427734375	5135.99275303287
0.818634033203125	0.0018609619140625	5136.03700303275
0.814208984375	0.00140350341796875	5136.08125303264
0.809783935546875	0.000953369140625	5136.12550303253
0.80535888671875	0.0005108642578125	5136.16975303242
0.800933837890625	7.452392578125E-05	5136.21400303231
0.7965087890625	-0.000354736328125	5136.25825303219
0.792083740234375	-0.00077728271484375	5136.30250303208
0.78765869140625	-0.00119293212890625	5136.34675303197
0.783233642578125	-0.00160247802734375	5136.39100303186
0.77880859375	-0.0020050048828125	5136.43525303175
0.774383544921875	-0.00240142822265625	5136.47950303164
0.76995849609375	-0.00279205322265625	5136.52375303152
0.765533447265625	-0.00317657470703125	5136.56800303141
0.7611083984375	-0.00355499267578125	5136.6122530313
0.756683349609375	-0.003927001953125	5136.65650303119
0.75225830078125	-0.0042938232421875	5136.70075303108
0.747833251953125	-0.0046551513671875	5136.74500303097
0.743408203125	-0.0050103759765625	5136.78925303085
0.738983154296875	-0.00535797119140625	5136.83350303074
0.73455810546875	-0.0057025146484375	5136.87775303063
0.730133056640625	-0.00604095458984375	5136.92200303052
0.7257080078125	-0.0063507080078125	5136.96625303041
0.721282958984375	-0.0066802978515625	5137.01050303029
0.71685791015625	-0.007000732421875	5137.05475303018
0.712432861328125	-0.007318115234375	5137.09900303007
0.7080078125	-0.0076324462890625	5137.14325302996
0.703582763671875	-0.0079376220703125	5137.18750302985
0.69915771484375	-0.00823974609375	5137.23175302974
0.694732666015625	-0.008538818359375	5137.27600302962
0.6903076171875	-0.008831787109375	5137.32025302951
0.685882568359375	-0.0091217041015625	5137.3645030294
0.68145751953125	-0.0094024658203125	5137.40875302929
0.677032470703125	-0.0096832275390625	5137.45300302918
0.672607421875	-0.0099578857421875	5137.49725302907
0.668182373046875	-0.0102294921875	5137.54150302896
0.66375732421875	-0.0104949951171875	5137.58575302884
0.659332275390625	-0.0107574462890625	5137.63000302873
0.6549072265625	-0.0110137939453125	5137.67425302862
0.650482177734375	-0.01126708984375	5137.71850302851
0.64605712890625	-0.0115203857421875	5137.7627530284
0.641632080078125	-0.011767578125	5137.80700302828
0.63720703125	-0.0120086669921875	5137.85125302817
0.632781982421875	-0.012249755859375	5137.89550302806
0.62835693359375	-0.0124847412109375	5137.93975302795
0.623931884765625	-0.0127197265625	5137.98400302784
0.6195068359375	-0.0129486083984375	5138.02825302773
0.615081787109375	-0.013177490234375	5138.07250302761
0.61065673828125	-0.0134002685546875	5138.1167530275
0.606231689453125	-0.0136199951171875	5138.16100302739
0.601806640625	-0.013836669921875	5138.20525302728
0.597381591796875	-0.0140472412109375	5138.24950302717
0.59295654296875	-0.0142547607421875	5138.29375302706
0.588531494140625	-0.014459228515625	5138.33800302694
0.5841064453125	-0.014666748046875	5138.38225302683
0.579681396484375	-0.0148651123046875	5138.42650302672
0.57525634765625	-0.015069580078125	5138.47075302661
0.570831298828125	-0.0152679443359375	5138.5150030265
0.56640625	-0.015460205078125	5138.55925302638
0.561981201171875	-0.0156463623046875	5138.60350302627
0.55755615234375	-0.01583251953125	5138.64775302616
0.553131103515625	-0.0160186767578125	5138.69200302605
0.5487060546875	-0.016204833984375	5138.73625302594
0.544281005859375	-0.0163818359375	5138.78050302583
0.53985595703125	-0.0165618896484375	5138.82475302571
0.535430908203125	-0.0167388916015625	5138.8690030256
0.531005859375	-0.016912841796875	5138.91325302549
0.526580810546875	-0.01708984375	5138.95750302538
0.52215576171875	-0.0172576904296875	5139.00175302527
0.517730712890625	-0.0174224853515625	5139.04600302516
0.5133056640625	-0.0175872802734375	5139.09025302504
0.508880615234375	-0.017755126953125	5139.13450302493
0.50445556640625	-0.017913818359375	5139.17875302482
0.500030517578125	-0.018072509765625	5139.22300302471
0.49560546875	-0.0182281494140625	5139.2672530246
0.491180419921875	-0.0183837890625	5139.31150302449
0.48675537109375	-0.0185394287109375	5139.35575302437
0.482330322265625	-0.0186920166015625	5139.40000302426
0.4779052734375	-0.018841552734375	5139.44425302415
0.473480224609375	-0.018994140625	5139.48850302404
0.46905517578125	-0.019140625	5139.53275302393
0.464630126953125	-0.019287109375	5139.57700302382
0.460205078125	-0.01943359375	5139.6212530237
0.455780029296875	-0.0195770263671875	5139.66550302359
0.45135498046875	-0.0197174072265625	5139.70975302348
0.446929931640625	-0.01986083984375	5139.75400302337
0.4425048828125	-0.020001220703125	5139.79825302326
0.438079833984375	-0.0201385498046875	5139.84250302314
0.43365478515625	-0.0202728271484375	5139.88675302303
0.429229736328125	-0.0204071044921875	5139.93100302292
0.4248046875	-0.02054443359375	5139.97525302281
0.420379638671875	-0.0206787109375	5140.0195030227
0.41595458984375	-0.02081298828125	5140.06375302259
0.411529541015625	-0.0209442138671875	5140.10800302247
0.4071044921875	-0.021075439453125	5140.15225302236
0.402679443359375	-0.02120361328125	5140.19650302225
0.39825439453125	-0.021331787109375	5140.24075302214
0.393829345703125	-0.0214630126953125	5140.28500302203
0.389404296875	-0.021588134765625	5140.32925302192
0.384979248046875	-0.0217132568359375	5140.3735030218
0.38055419921875	-0.02183837890625	5140.41775302169
0.376129150390625	-0.02196044921875	5140.46200302158
0.3717041015625	-0.0220855712890625	5140.50625302147
0.367279052734375	-0.022210693359375	5140.55050302136
0.36285400390625	-0.022332763671875	5140.59475302125
0.358428955078125	-0.022454833984375	5140.63900302113
0.35400390625	-0.022576904296875	5140.68325302102
0.349578857421875	-0.0226959228515625	5140.72750302091
0.34515380859375	-0.02281494140625	5140.7717530208
0.340728759765625	-0.022930908203125	5140.81600302069
0.3363037109375	-0.0230499267578125	5140.86025302058
0.331878662109375	-0.0231689453125	5140.90450302046
0.32745361328125	-0.023284912109375	5140.94875302035
0.323028564453125	-0.0234039306640625	5140.99300302024
0.318603515625	-0.023516845703125	5141.03725302013
0.314178466796875	-0.0236328125	5141.08150302002
0.30975341796875	-0.0237518310546875	5141.12575301991
0.305328369140625	-0.0238677978515625	5141.17000301979
0.3009033203125	-0.023980712890625	5141.21425301968
0.296478271484375	-0.0240936279296875	5141.25850301957
0.29205322265625	-0.02420654296875	5141.30275301946
0.287628173828125	-0.0243194580078125	5141.34700301935
0.283203125	-0.0244293212890625	5141.39125301923
0.278778076171875	-0.024542236328125	5141.43550301912
0.27435302734375	-0.0246551513671875	5141.47975301901
0.269927978515625	-0.0247650146484375	5141.5240030189
0.2655029296875	-0.0248748779296875	5141.56825301879
0.261077880859375	-0.024981689453125	5141.61250301868
0.25665283203125	-0.025091552734375	5141.65675301856
0.252227783203125	-0.0251983642578125	5141.70100301845
0.247802734375	-0.0253082275390625	5141.74525301834
0.243377685546875	-0.0254150390625	5141.78950301823
0.23895263671875	-0.0255218505859375	5141.83375301812
0.234527587890625	-0.0256256103515625	5141.87800301801
0.2301025390625	-0.0257293701171875	5141.92225301789
0.225677490234375	-0.025836181640625	5141.96650301778
0.22125244140625	-0.0259368896484375	5142.01075301767
0.216827392578125	-0.0260406494140625	5142.05500301756
0.21240234375	-0.026141357421875	5142.09925301745
0.207977294921875	-0.0262420654296875	5142.14350301734
0.20355224609375	-0.0263458251953125	5142.18775301722
0.199127197265625	-0.0264434814453125	5142.23200301711
0.1947021484375	-0.026544189453125	5142.276253017
0.190277099609375	-0.0266387939453125	5142.32050301689
0.18585205078125	-0.0267364501953125	5142.36475301678
0.181427001953125	-0.0268341064453125	5142.40900301667
0.177001953125	-0.0269287109375	5142.45325301655
0.172576904296875	-0.0270233154296875	5142.49750301644
0.16815185546875	-0.027117919921875	5142.54175301633
0.163726806640625	-0.02720947265625	5142.58600301622
0.1593017578125	-0.027301025390625	5142.63025301611
0.154876708984375	-0.0273895263671875	5142.67450301599
0.15045166015625	-0.0274810791015625	5142.71875301588
0.146026611328125	-0.0275726318359375	5142.76300301577
0.1416015625	-0.0276611328125	5142.80725301566
0.137176513671875	-0.0277496337890625	5142.85150301555
0.13275146484375	-0.0278350830078125	5142.89575301544
0.128326416015625	-0.0279205322265625	5142.94000301532
0.1239013671875	-0.0280029296875	5142.98425301521
0.119476318359375	-0.028082275390625	5143.0285030151
0.11505126953125	-0.02816162109375	5143.07275301499
0.110626220703125	-0.028240966796875	5143.11700301488
0.106201171875	-0.0283203125	5143.16125301477
0.101776123046875	-0.028399658203125	5143.20550301465
0.09735107421875	-0.0284759521484375	5143.24975301454
0.092926025390625	-0.0285552978515625	5143.29400301443
0.0885009765625	-0.028631591796875	5143.33825301432
0.084075927734375	-0.028704833984375	5143.38250301421
0.07965087890625	-0.028778076171875	5143.4267530141
0.075225830078125	-0.0288482666015625	5143.47100301398
0.07080078125	-0.02891845703125	5143.51525301387
0.066375732421875	-0.028985595703125	5143.55950301376
0.06195068359375	-0.029052734375	5143.60375301365
0.057525634765625	-0.029119873046875	5143.64800301354
0.0531005859375	-0.02918701171875	5143.69225301343
0.048675537109375	-0.029254150390625	5143.73650301331
0.04425048828125	-0.0293182373046875	5143.7807530132
0.039825439453125	-0.02938232421875	5143.82500301309
0.035400390625	-0.0294464111328125	5143.86925301298
0.030975341796875	-0.0295074462890625	5143.91350301287
0.02655029296875	-0.0295654296875	5143.95775301276
0.022125244140625	-0.0296234130859375	5144.00200301264
0.0177001953125	-0.0296783447265625	5144.04625301253
0.013275146484375	-0.0297332763671875	5144.09050301242
0.00885009765625	-0.0297882080078125	5144.13475301231
0.004425048828125	-0.0298431396484375	5144.1790030122
0	-0.02989501953125	5144.22325301208
0.004425048828125	-0.0289215087890625	5144.26750301197
0.00885009765625	-0.0279754638671875	5144.31175301186
0.013275146484375	-0.02705078125	5144.35600301175
0.0177001953125	-0.0261474609375	5144.40025301164
0.022125244140625	-0.025262451171875	5144.44450301153
0.02655029296875	-0.0243988037109375	5144.48875301141
0.030975341796875	-0.02354736328125	5144.5330030113
0.035400390625	-0.0227203369140625	5144.57725301119
0.039825439453125	-0.0219024658203125	5144.62150301108
0.04425048828125	-0.02110595703125	5144.66575301097
0.048675537109375	-0.0203216552734375	5144.71000301086
0.0531005859375	-0.0195556640625	5144.75425301074
0.057525634765625	-0.018798828125	5144.79850301063
0.06195068359375	-0.0180572509765625	5144.84275301052
0.066375732421875	-0.017333984375	5144.88700301041
0.07080078125	-0.016619873046875	5144.9312530103
0.075225830078125	-0.0159149169921875	5144.97550301019
0.07965087890625	-0.015228271484375	5145.01975301007
0.084075927734375	-0.01455078125	5145.06400300996
0.0885009765625	-0.013885498046875	5145.10825300985
0.092926025390625	-0.0132293701171875	5145.15250300974
0.09735107421875	-0.01258544921875	5145.19675300963
0.101776123046875	-0.0119537353515625	5145.24100300952
0.106201171875	-0.0113311767578125	5145.2852530094
0.110626220703125	-0.0107208251953125	5145.32950300929
0.11505126953125	-0.01011962890625	5145.37375300918
0.119476318359375	-0.0095306396484375	5145.41800300907
0.1239013671875	-0.0089508056640625	5145.46225300896
0.128326416015625	-0.008380126953125	5145.50650300884
0.13275146484375	-0.0078155517578125	5145.55075300873
0.137176513671875	-0.00726318359375	5145.59500300862
0.1416015625	-0.006719970703125	5145.63925300851
0.146026611328125	-0.006182861328125	5145.6835030084
0.15045166015625	-0.0056549072265625	5145.72775300829
0.154876708984375	-0.0051361083984375	5145.77200300817
0.1593017578125	-0.004627685546875	5145.81625300806
0.163726806640625	-0.0041259765625	5145.86050300795
0.16815185546875	-0.003631591796875	5145.90475300784
0.172576904296875	-0.00314544677734375	5145.94900300773
0.177001953125	-0.002667236328125	5145.99325300762
0.181427001953125	-0.0022052001953125	5146.0375030075
0.18585205078125	-0.00174041748046875	5146.08175300739
0.190277099609375	-0.001282958984375	5146.12600300728
0.1947021484375	-0.0008331298828125	5146.17025300717
0.199127197265625	-0.000390045166015625	5146.21450300706
0.20355224609375	4.6142578125E-05	5146.25875300695
0.207977294921875	0.000475128173828125	5146.30300300683
0.21240234375	0.0008978271484375	5146.34725300672
0.216827392578125	0.00131500244140625	5146.39150300661
0.22125244140625	0.0017254638671875	5146.4357530065
0.225677490234375	0.0021295166015625	5146.48000300639
0.2301025390625	0.00252685546875	5146.52425300628
0.234527587890625	0.0029156494140625	5146.56850300616
0.23895263671875	0.00330230712890625	5146.61275300605
0.243377685546875	0.00368316650390625	5146.65700300594
0.247802734375	0.00405792236328125	5146.70125300583
0.252227783203125	0.0044268798828125	5146.74550300572
0.25665283203125	0.00478973388671875	5146.78975300561
0.261077880859375	0.005147705078125	5146.83400300549
0.2655029296875	0.0054986572265625	5146.87825300538
0.269927978515625	0.00584686279296875	5146.92250300527
0.27435302734375	0.00618865966796875	5146.96675300516
0.278778076171875	0.0065155029296875	5147.01100300505
0.283203125	0.00684814453125	5147.05525300493
0.287628173828125	0.0071746826171875	5147.09950300482
0.29205322265625	0.0074951171875	5147.14375300471
0.296478271484375	0.0078125	5147.1880030046
0.3009033203125	0.0081207275390625	5147.23225300449
0.305328369140625	0.0084320068359375	5147.27650300438
0.30975341796875	0.008734130859375	5147.32075300426
0.314178466796875	0.0090362548828125	5147.36500300415
0.318603515625	0.0093292236328125	5147.40925300404
0.323028564453125	0.0096160888671875	5147.45350300393
0.32745361328125	0.0099029541015625	5147.49775300382
0.331878662109375	0.0101837158203125	5147.54200300371
0.3363037109375	0.01046142578125	5147.58625300359
0.340728759765625	0.010736083984375	5147.63050300348
0.34515380859375	0.0110015869140625	5147.67475300337
0.349578857421875	0.0112701416015625	5147.71900300326
0.35400390625	0.011529541015625	5147.76325300315
0.358428955078125	0.011785888671875	5147.80750300304
0.36285400390625	0.012042236328125	5147.85175300292
0.367279052734375	0.01229248046875	5147.89600300281
0.3717041015625	0.01253662109375	5147.9402530027
0.376129150390625	0.01278076171875	5147.98450300259
0.38055419921875	0.0130218505859375	5148.02875300248
0.384979248046875	0.0132598876953125	5148.07300300237
0.389404296875	0.013494873046875	5148.11725300225
0.393829345703125	0.013726806640625	5148.16150300214
0.39825439453125	0.013958740234375	5148.20575300203
0.402679443359375	0.0141815185546875	5148.25000300192
0.4071044921875	0.014404296875	5148.29425300181
0.411529541015625	0.0146240234375	5148.33850300169
0.41595458984375	0.014837646484375	5148.38275300158
0.420379638671875	0.01505126953125	5148.42700300147
0.4248046875	0.0152587890625	5148.47125300136
0.429229736328125	0.01546630859375	5148.51550300125
0.43365478515625	0.0156707763671875	5148.55975300114
0.438079833984375	0.0158782958984375	5148.60400300102
0.4425048828125	0.0160797119140625	5148.64825300091
0.446929931640625	0.016278076171875	5148.6925030008
0.45135498046875	0.0164794921875	5148.73675300069
0.455780029296875	0.0166748046875	5148.78100300058
0.460205078125	0.0168670654296875	5148.82525300047
0.464630126953125	0.0170562744140625	5148.86950300035
0.46905517578125	0.017236328125	5148.91375300024
0.473480224609375	0.0174224853515625	5148.95800300013
0.4779052734375	0.0176025390625	5149.00225300002
0.482330322265625	0.0177825927734375	5149.04650299991
0.48675537109375	0.017962646484375	5149.0907529998
0.491180419921875	0.0181365966796875	5149.13500299968
0.49560546875	0.018310546875	5149.17925299957
0.500030517578125	0.0184844970703125	5149.22350299946
0.50445556640625	0.0186553955078125	5149.26775299935
0.508880615234375	0.0188232421875	5149.31200299924
0.5133056640625	0.018988037109375	5149.35625299912
0.517730712890625	0.01915283203125	5149.40050299901
0.52215576171875	0.019317626953125	5149.4447529989
0.526580810546875	0.019476318359375	5149.48900299879
0.531005859375	0.0196319580078125	5149.53325299868
0.535430908203125	0.0197906494140625	5149.57750299857
0.53985595703125	0.0199432373046875	5149.62175299846
0.544281005859375	0.020098876953125	5149.66600299834
0.5487060546875	0.02025146484375	5149.71025299823
0.553131103515625	0.02039794921875	5149.75450299812
0.55755615234375	0.0205474853515625	5149.79875299801
0.561981201171875	0.020697021484375	5149.8430029979
0.56640625	0.0208404541015625	5149.88725299778
0.570831298828125	0.0209869384765625	5149.93150299767
0.57525634765625	0.02113037109375	5149.97575299756
0.579681396484375	0.021270751953125	5150.02000299745
0.5841064453125	0.0214080810546875	5150.06425299734
0.588531494140625	0.02154541015625	5150.10850299723
0.59295654296875	0.0216827392578125	5150.15275299711
0.597381591796875	0.0218170166015625	5150.197002997
0.601806640625	0.0219482421875	5150.24125299689
0.606231689453125	0.0220794677734375	5150.28550299678
0.61065673828125	0.0222137451171875	5150.32975299667
0.615081787109375	0.0223480224609375	5150.37400299656
0.6195068359375	0.0224761962890625	5150.41825299644
0.623931884765625	0.0226043701171875	5150.46250299633
0.62835693359375	0.022735595703125	5150.50675299622
0.632781982421875	0.0228607177734375	5150.55100299611
0.63720703125	0.0229827880859375	5150.595252996
0.641632080078125	0.0231048583984375	5150.63950299589
0.64605712890625	0.0232269287109375	5150.68375299577
0.650482177734375	0.0233489990234375	5150.72800299566
0.6549072265625	0.0234619140625	5150.77225299555
0.659332275390625	0.0235809326171875	5150.81650299544
0.66375732421875	0.0236968994140625	5150.86075299533
0.668182373046875	0.0238128662109375	5150.90500299521
0.672607421875	0.0239288330078125	5150.9492529951
0.677032470703125	0.024041748046875	5150.99350299499
0.68145751953125	0.024151611328125	5151.03775299488
0.685882568359375	0.024261474609375	5151.08200299477
0.6903076171875	0.0243682861328125	5151.12625299466
0.694732666015625	0.0244781494140625	5151.17050299454
0.69915771484375	0.0245819091796875	5151.21475299443
0.703582763671875	0.0246856689453125	5151.25900299432
0.7080078125	0.0247894287109375	5151.30325299421
0.712432861328125	0.02489013671875	5151.3475029941
0.71685791015625	0.024993896484375	5151.39175299399
0.721282958984375	0.025091552734375	5151.43600299387
0.7257080078125	0.0251922607421875	5151.48025299376
0.730133056640625	0.02529296875	5151.52450299365
0.73455810546875	0.0253875732421875	5151.56875299354
0.738983154296875	0.025482177734375	5151.61300299343
0.743408203125	0.0255706787109375	5151.65725299332
0.747833251953125	0.0256622314453125	5151.7015029932
0.75225830078125	0.0257537841796875	5151.74575299309
0.756683349609375	0.02584228515625	5151.79000299298
0.7611083984375	0.025927734375	5151.83425299287
0.765533447265625	0.0260162353515625	5151.87850299276
0.76995849609375	0.0261016845703125	5151.92275299265
0.774383544921875	0.026190185546875	5151.96700299253
0.77880859375	0.0262725830078125	5152.01125299242
0.783233642578125	0.02635498046875	5152.05550299231
0.78765869140625	0.0264373779296875	5152.0997529922
0.792083740234375	0.026513671875	5152.14400299209
0.7965087890625	0.0265899658203125	5152.18825299197
0.800933837890625	0.0266632080078125	5152.23250299186
0.80535888671875	0.026739501953125	5152.27675299175
0.809783935546875	0.026812744140625	5152.32100299164
0.814208984375	0.026885986328125	5152.36525299153
0.818634033203125	0.026959228515625	5152.40950299142
0.82305908203125	0.027032470703125	5152.45375299131
0.827484130859375	0.0271026611328125	5152.49800299119
0.8319091796875	0.0271728515625	5152.54225299108
0.836334228515625	0.027239990234375	5152.58650299097
0.84075927734375	0.02730712890625	5152.63075299086
0.845184326171875	0.027374267578125	5152.67500299075
0.849609375	0.0274383544921875	5152.71925299063
0.854034423828125	0.0274993896484375	5152.76350299052
0.85845947265625	0.0275604248046875	5152.80775299041
0.862884521484375	0.027618408203125	5152.8520029903
0.8673095703125	0.027679443359375	5152.89625299019
0.871734619140625	0.027740478515625	5152.94050299008
0.87615966796875	0.0277984619140625	5152.98475298996
0.880584716796875	0.0278594970703125	5153.02900298985
0.885009765625	0.02791748046875	5153.07325298974
0.889434814453125	0.0279754638671875	5153.11750298963
0.89385986328125	0.0280303955078125	5153.16175298952
0.898284912109375	0.0280853271484375	5153.20600298941
0.9027099609375	0.0281402587890625	5153.25025298929
0.907135009765625	0.028192138671875	5153.29450298918
0.91156005859375	0.0282440185546875	5153.33875298907
0.915985107421875	0.0282989501953125	5153.38300298896
0.92041015625	0.028350830078125	5153.42725298885
0.924835205078125	0.0284027099609375	5153.47150298874
0.92926025390625	0.02845458984375	5153.51575298862
0.933685302734375	0.028509521484375	5153.56000298851
0.9381103515625	0.028564453125	5153.6042529884
0.942535400390625	0.0286163330078125	5153.64850298829
0.94696044921875	0.028668212890625	5153.69275298818
0.951385498046875	0.028717041015625	5153.73700298806
0.955810546875	0.0287689208984375	5153.78125298795
0.960235595703125	0.0288177490234375	5153.82550298784
0.96466064453125	0.02886962890625	5153.86975298773
0.969085693359375	0.0289215087890625	5153.91400298762
0.9735107421875	0.02896728515625	5153.95825298751
0.977935791015625	0.0290130615234375	5154.00250298739
0.98236083984375	0.02906494140625	5154.04675298728
0.986785888671875	0.0291168212890625	5154.09100298717
0.9912109375	0.029168701171875	5154.13525298706
