Potential applied (V)	WE(1).Current (A)	Time (s)
0.004425048828125	-0.0999969482421875	4942.95408252024
0.00885009765625	-0.097796630859375	4943.04258352002
0.013275146484375	-0.0932525634765625	4943.13108451979
0.0177001953125	-0.0890533447265625	4943.21958551957
0.022125244140625	-0.0851318359375	4943.30808651935
0.02655029296875	-0.081427001953125	4943.39658751912
0.030975341796875	-0.0779266357421875	4943.4850885189
0.035400390625	-0.0746246337890625	4943.57358951868
0.039825439453125	-0.071490478515625	4943.66209051845
0.04425048828125	-0.068511962890625	4943.75059151823
0.048675537109375	-0.065679931640625	4943.83909251801
0.0531005859375	-0.0629852294921875	4943.92759351778
0.057525634765625	-0.0604095458984375	4944.01609451756
0.06195068359375	-0.057958984375	4944.10459551734
0.066375732421875	-0.0556243896484375	4944.19309651711
0.07080078125	-0.0533966064453125	4944.28159751689
0.075225830078125	-0.05126953125	4944.37009851667
0.07965087890625	-0.049224853515625	4944.45859951644
0.084075927734375	-0.0472686767578125	4944.54710051622
0.0885009765625	-0.045391845703125	4944.635601516
0.092926025390625	-0.0435943603515625	4944.72410251577
0.09735107421875	-0.0418670654296875	4944.81260351555
0.101776123046875	-0.0402069091796875	4944.90110451532
0.106201171875	-0.0386016845703125	4944.9896055151
0.110626220703125	-0.037060546875	4945.07810651488
0.11505126953125	-0.0355743408203125	4945.16660751465
0.119476318359375	-0.034136962890625	4945.25510851443
0.1239013671875	-0.03275146484375	4945.34360951421
0.128326416015625	-0.0314117431640625	4945.43211051398
0.13275146484375	-0.030108642578125	4945.52061151376
0.137176513671875	-0.028851318359375	4945.60911251354
0.1416015625	-0.0276336669921875	4945.69761351331
0.146026611328125	-0.026458740234375	4945.78611451309
0.15045166015625	-0.0253173828125	4945.87461551287
0.154876708984375	-0.0242095947265625	4945.96311651264
0.1593017578125	-0.023138427734375	4946.05161751242
0.163726806640625	-0.0220947265625	4946.1401185122
0.16815185546875	-0.021087646484375	4946.22861951197
0.172576904296875	-0.020111083984375	4946.31712051175
0.177001953125	-0.019158935546875	4946.40562151153
0.181427001953125	-0.0182342529296875	4946.4941225113
0.18585205078125	-0.0173370361328125	4946.58262351108
0.190277099609375	-0.01646728515625	4946.67112451086
0.1947021484375	-0.015625	4946.75962551063
0.199127197265625	-0.0148040771484375	4946.84812651041
0.20355224609375	-0.0140106201171875	4946.93662751019
0.207977294921875	-0.0132354736328125	4947.02512850996
0.21240234375	-0.0124847412109375	4947.11362950974
0.216827392578125	-0.011749267578125	4947.20213050951
0.22125244140625	-0.011041259765625	4947.29063150929
0.225677490234375	-0.0103515625	4947.37913250907
0.2301025390625	-0.0096832275390625	4947.46763350885
0.234527587890625	-0.009033203125	4947.55613450862
0.23895263671875	-0.0084014892578125	4947.6446355084
0.243377685546875	-0.0077880859375	4947.73313650817
0.247802734375	-0.0071868896484375	4947.82163750795
0.252227783203125	-0.0066070556640625	4947.91013850773
0.25665283203125	-0.00604248046875	4947.9986395075
0.261077880859375	-0.0054901123046875	4948.08714050728
0.2655029296875	-0.00495941162109375	4948.17564150706
0.269927978515625	-0.00444000244140625	4948.26414250683
0.27435302734375	-0.00393463134765625	4948.35264350661
0.278778076171875	-0.00344329833984375	4948.44114450639
0.283203125	-0.00296630859375	4948.52964550616
0.287628173828125	-0.0025115966796875	4948.61814650594
0.29205322265625	-0.0020587158203125	4948.70664750572
0.296478271484375	-0.00161865234375	4948.79514850549
0.3009033203125	-0.00118988037109375	4948.88364950527
0.305328369140625	-0.0007733154296875	4948.97215050505
0.30975341796875	-0.00036773681640625	4949.06065150482
0.314178466796875	3.06884765625E-05	4949.1491525046
0.318603515625	0.000414642333984375	4949.23765350438
0.323028564453125	0.00078857421875	4949.32615450415
0.32745361328125	0.00115264892578125	4949.41465550393
0.331878662109375	0.00150665283203125	4949.50315650371
0.3363037109375	0.00185150146484375	4949.59165750348
0.340728759765625	0.0021868896484375	4949.68015850326
0.34515380859375	0.0025146484375	4949.76865950304
0.349578857421875	0.0028326416015625	4949.85716050281
0.35400390625	0.0031402587890625	4949.94566150259
0.358428955078125	0.00344268798828125	4950.03416250236
0.36285400390625	0.00373687744140625	4950.12266350214
0.367279052734375	0.0040234375	4950.21116450192
0.3717041015625	0.00430206298828125	4950.2996655017
0.376129150390625	0.00457366943359375	4950.38816650147
0.38055419921875	0.0048370361328125	4950.47666750125
0.384979248046875	0.00509490966796875	4950.56516850102
0.389404296875	0.00534637451171875	4950.6536695008
0.393829345703125	0.005592041015625	4950.74217050058
0.39825439453125	0.00583251953125	4950.83067150035
0.402679443359375	0.00606781005859375	4950.91917250013
0.4071044921875	0.00628662109375	4951.00767349991
0.411529541015625	0.00650634765625	4951.09617449968
0.41595458984375	0.0067230224609375	4951.18467549946
0.420379638671875	0.00693359375	4951.27317649924
0.4248046875	0.00714111328125	4951.36167749901
0.429229736328125	0.007342529296875	4951.45017849879
0.43365478515625	0.007537841796875	4951.53867949857
0.438079833984375	0.00772705078125	4951.62718049834
0.4425048828125	0.00791015625	4951.71568149812
0.446929931640625	0.00809326171875	4951.8041824979
0.45135498046875	0.0082733154296875	4951.89268349767
0.455780029296875	0.0084442138671875	4951.98118449745
0.460205078125	0.008612060546875	4952.06968549723
0.464630126953125	0.0087799072265625	4952.158186497
0.46905517578125	0.0089447021484375	4952.24668749678
0.473480224609375	0.0091033935546875	4952.33518849656
0.4779052734375	0.009259033203125	4952.42368949633
0.482330322265625	0.0094146728515625	4952.51219049611
0.48675537109375	0.009564208984375	4952.60069149589
0.491180419921875	0.009710693359375	4952.68919249566
0.49560546875	0.0098541259765625	4952.77769349544
0.500030517578125	0.0099945068359375	4952.86619449521
0.50445556640625	0.0101318359375	4952.95469549499
0.508880615234375	0.0102630615234375	4953.04319649477
0.5133056640625	0.0103973388671875	4953.13169749454
0.517730712890625	0.0105255126953125	4953.22019849432
0.52215576171875	0.010650634765625	4953.3086994941
0.526580810546875	0.0107757568359375	4953.39720049387
0.531005859375	0.0108978271484375	4953.48570149365
0.535430908203125	0.0110137939453125	4953.57420249343
0.53985595703125	0.0111297607421875	4953.6627034932
0.544281005859375	0.0112457275390625	4953.75120449298
0.5487060546875	0.0113555908203125	4953.83970549276
0.553131103515625	0.0114654541015625	4953.92820649253
0.55755615234375	0.011572265625	4954.01670749231
0.561981201171875	0.0116790771484375	4954.10520849209
0.56640625	0.0117828369140625	4954.19370949186
0.570831298828125	0.011883544921875	4954.28221049164
0.57525634765625	0.0119842529296875	4954.37071149142
0.579681396484375	0.012078857421875	4954.45921249119
0.5841064453125	0.012176513671875	4954.54771349097
0.588531494140625	0.01226806640625	4954.63621449075
0.59295654296875	0.0123626708984375	4954.72471549052
0.597381591796875	0.012451171875	4954.8132164903
0.601806640625	0.01253662109375	4954.90171749008
0.606231689453125	0.0126220703125	4954.99021848985
0.61065673828125	0.01270751953125	4955.07871948963
0.615081787109375	0.0127899169921875	4955.16722048941
0.6195068359375	0.012872314453125	4955.25572148918
0.623931884765625	0.01295166015625	4955.34422248896
0.62835693359375	0.0130340576171875	4955.43272348874
0.632781982421875	0.0131103515625	4955.52122448851
0.63720703125	0.01318359375	4955.60972548829
0.641632080078125	0.0132568359375	4955.69822648806
0.64605712890625	0.0133270263671875	4955.78672748784
0.650482177734375	0.013397216796875	4955.87522848762
0.6549072265625	0.01346435546875	4955.96372948739
0.659332275390625	0.0135284423828125	4956.05223048717
0.66375732421875	0.0135955810546875	4956.14073148695
0.668182373046875	0.01365966796875	4956.22923248672
0.672607421875	0.013720703125	4956.3177334865
0.677032470703125	0.01378173828125	4956.40623448628
0.68145751953125	0.0138397216796875	4956.49473548605
0.685882568359375	0.013897705078125	4956.58323648583
0.6903076171875	0.01395263671875	4956.67173748561
0.694732666015625	0.0140106201171875	4956.76023848538
0.69915771484375	0.0140625	4956.84873948516
0.703582763671875	0.014111328125	4956.93724048494
0.7080078125	0.0141632080078125	4957.02574148471
0.712432861328125	0.0142120361328125	4957.11424248449
0.71685791015625	0.0142608642578125	4957.20274348427
0.721282958984375	0.0143096923828125	4957.29124448404
0.7257080078125	0.01435546875	4957.37974548382
0.730133056640625	0.0144012451171875	4957.4682464836
0.73455810546875	0.014447021484375	4957.55674748337
0.738983154296875	0.01448974609375	4957.64524848315
0.743408203125	0.0145294189453125	4957.73374948293
0.747833251953125	0.0145721435546875	4957.8222504827
0.75225830078125	0.0146148681640625	4957.91075148248
0.756683349609375	0.014654541015625	4957.99925248226
0.7611083984375	0.0146942138671875	4958.08775348203
0.765533447265625	0.0147308349609375	4958.17625448181
0.76995849609375	0.0147705078125	4958.26475548158
0.774383544921875	0.01480712890625	4958.35325648136
0.77880859375	0.01484375	4958.44175748114
0.783233642578125	0.01488037109375	4958.53025848091
0.78765869140625	0.0149169921875	4958.61875948069
0.792083740234375	0.0149505615234375	4958.70726048047
0.7965087890625	0.014984130859375	4958.79576148024
0.800933837890625	0.0150177001953125	4958.88426248002
0.80535888671875	0.0150543212890625	4958.9727634798
0.809783935546875	0.015087890625	4959.06126447957
0.814208984375	0.0151214599609375	4959.14976547935
0.818634033203125	0.0151519775390625	4959.23826647913
0.82305908203125	0.0151824951171875	4959.3267674789
0.827484130859375	0.015216064453125	4959.41526847868
0.8319091796875	0.01524658203125	4959.50376947846
0.836334228515625	0.0152801513671875	4959.59227047823
0.84075927734375	0.0153106689453125	4959.68077147801
0.845184326171875	0.0153411865234375	4959.76927247779
0.849609375	0.0153717041015625	4959.85777347756
0.854034423828125	0.0154022216796875	4959.94627447734
0.85845947265625	0.015435791015625	4960.03477547712
0.862884521484375	0.01546630859375	4960.12327647689
0.8673095703125	0.0154937744140625	4960.21177747667
0.871734619140625	0.0155242919921875	4960.30027847645
0.87615966796875	0.015557861328125	4960.38877947622
0.880584716796875	0.01558837890625	4960.477280476
0.885009765625	0.0156219482421875	4960.56578147578
0.889434814453125	0.0156524658203125	4960.65428247555
0.89385986328125	0.01568603515625	4960.74278347533
0.898284912109375	0.0157196044921875	4960.83128447511
0.9027099609375	0.0157501220703125	4960.91978547488
0.907135009765625	0.01578369140625	4961.00828647466
0.91156005859375	0.0158203125	4961.09678747443
0.915985107421875	0.01585693359375	4961.18528847421
0.92041015625	0.0158935546875	4961.27378947399
0.924835205078125	0.0159332275390625	4961.36229047376
0.92926025390625	0.015972900390625	4961.45079147354
0.933685302734375	0.0160125732421875	4961.53929247332
0.9381103515625	0.016058349609375	4961.62779347309
0.942535400390625	0.01610107421875	4961.71629447287
0.94696044921875	0.0161468505859375	4961.80479547265
0.951385498046875	0.016192626953125	4961.89329647242
0.955810546875	0.0162384033203125	4961.9817974722
0.960235595703125	0.016290283203125	4962.07029847198
0.96466064453125	0.016339111328125	4962.15879947175
0.969085693359375	0.01639404296875	4962.24730047153
0.9735107421875	0.016448974609375	4962.33580147131
0.977935791015625	0.01650390625	4962.42430247108
0.98236083984375	0.01656494140625	4962.51280347086
0.986785888671875	0.0166259765625	4962.60130447064
0.9912109375	0.0166900634765625	4962.68980547041
0.995635986328125	0.01676025390625	4962.77830647019
1.00006103515625	0.0168304443359375	4962.86680746997
0.995635986328125	0.0158935546875	4962.95530846974
0.9912109375	0.01500244140625	4963.04380946952
0.986785888671875	0.0141510009765625	4963.1323104693
0.98236083984375	0.0133392333984375	4963.22081146907
0.977935791015625	0.0125518798828125	4963.30931246885
0.9735107421875	0.0118011474609375	4963.39781346862
0.969085693359375	0.0110687255859375	4963.4863144684
0.96466064453125	0.0103668212890625	4963.57481546818
0.960235595703125	0.00968017578125	4963.66331646796
0.955810546875	0.00902099609375	4963.75181746773
0.951385498046875	0.0083831787109375	4963.84031846751
0.94696044921875	0.007763671875	4963.92881946728
0.942535400390625	0.007159423828125	4964.01732046706
0.9381103515625	0.0065704345703125	4964.10582146684
0.933685302734375	0.005999755859375	4964.19432246661
0.92926025390625	0.0054443359375	4964.28282346639
0.924835205078125	0.0049053955078125	4964.37132446617
0.92041015625	0.00438140869140625	4964.45982546594
0.915985107421875	0.0038726806640625	4964.54832646572
0.91156005859375	0.0033758544921875	4964.6368274655
0.907135009765625	0.002891845703125	4964.72532846527
0.9027099609375	0.002421875	4964.81382946505
0.898284912109375	0.00196197509765625	4964.90233046483
0.89385986328125	0.00151336669921875	4964.9908314646
0.889434814453125	0.00107696533203125	4965.07933246438
0.885009765625	0.00065032958984375	4965.16783346416
0.880584716796875	0.000234710693359375	4965.25633446393
0.87615966796875	-0.0001707763671875	4965.34483546371
0.871734619140625	-0.0005657958984375	4965.43333646349
0.8673095703125	-0.0009515380859375	4965.52183746326
0.862884521484375	-0.0013275146484375	4965.61033846304
0.85845947265625	-0.001693115234375	4965.69883946282
0.854034423828125	-0.00205047607421875	4965.78734046259
0.849609375	-0.0023992919921875	4965.87584146237
0.845184326171875	-0.00273895263671875	4965.96434246215
0.84075927734375	-0.0030706787109375	4966.05284346192
0.836334228515625	-0.0033941650390625	4966.1413444617
0.8319091796875	-0.00370880126953125	4966.22984546147
0.827484130859375	-0.0040155029296875	4966.31834646125
0.82305908203125	-0.00431427001953125	4966.40684746103
0.818634033203125	-0.004605712890625	4966.4953484608
0.814208984375	-0.00488983154296875	4966.58384946058
0.809783935546875	-0.005166015625	4966.67235046036
0.80535888671875	-0.00543548583984375	4966.76085146013
0.800933837890625	-0.00569793701171875	4966.84935245991
0.7965087890625	-0.005953369140625	4966.93785345969
0.792083740234375	-0.0062017822265625	4967.02635445946
0.78765869140625	-0.0064208984375	4967.11485545924
0.783233642578125	-0.0066558837890625	4967.20335645902
0.77880859375	-0.006884765625	4967.29185745879
0.774383544921875	-0.0071044921875	4967.38035845857
0.76995849609375	-0.0073211669921875	4967.46885945835
0.765533447265625	-0.00753173828125	4967.55736045812
0.7611083984375	-0.0077362060546875	4967.6458614579
0.756683349609375	-0.0079315185546875	4967.73436245768
0.75225830078125	-0.0081268310546875	4967.82286345745
0.747833251953125	-0.0083160400390625	4967.91136445723
0.743408203125	-0.0084991455078125	4967.99986545701
0.738983154296875	-0.008673095703125	4968.08836645678
0.73455810546875	-0.0088470458984375	4968.17686745656
0.730133056640625	-0.009014892578125	4968.26536845634
0.7257080078125	-0.0091796875	4968.35386945611
0.721282958984375	-0.00933837890625	4968.44237045589
0.71685791015625	-0.0094879150390625	4968.53087145566
0.712432861328125	-0.009637451171875	4968.61937245544
0.7080078125	-0.0097869873046875	4968.70787345522
0.703582763671875	-0.0099334716796875	4968.796374455
0.69915771484375	-0.0100677490234375	4968.88487545477
0.694732666015625	-0.010198974609375	4968.97337645455
0.6903076171875	-0.0103271484375	4969.06187745432
0.685882568359375	-0.0104522705078125	4969.1503784541
0.68145751953125	-0.0105743408203125	4969.23887945388
0.677032470703125	-0.0106964111328125	4969.32738045365
0.672607421875	-0.0108123779296875	4969.41588145343
0.668182373046875	-0.0109222412109375	4969.50438245321
0.66375732421875	-0.0110260009765625	4969.59288345298
0.659332275390625	-0.0111328125	4969.68138445276
0.6549072265625	-0.011236572265625	4969.76988545254
0.650482177734375	-0.0113372802734375	4969.85838645231
0.64605712890625	-0.0114349365234375	4969.94688745209
0.641632080078125	-0.0115325927734375	4970.03538845187
0.63720703125	-0.0116241455078125	4970.12388945164
0.632781982421875	-0.0117095947265625	4970.21239045142
0.62835693359375	-0.011798095703125	4970.3008914512
0.623931884765625	-0.0118896484375	4970.38939245097
0.6195068359375	-0.0119720458984375	4970.47789345075
0.615081787109375	-0.012054443359375	4970.56639445053
0.61065673828125	-0.0121337890625	4970.6548954503
0.606231689453125	-0.012213134765625	4970.74339645008
0.601806640625	-0.012286376953125	4970.83189744986
0.597381591796875	-0.012359619140625	4970.92039844963
0.59295654296875	-0.012432861328125	4971.00889944941
0.588531494140625	-0.012506103515625	4971.09740044919
0.5841064453125	-0.0125701904296875	4971.18590144896
0.579681396484375	-0.0126373291015625	4971.27440244874
0.57525634765625	-0.0127044677734375	4971.36290344851
0.570831298828125	-0.0127716064453125	4971.45140444829
0.56640625	-0.0128387451171875	4971.53990544807
0.561981201171875	-0.01290283203125	4971.62840644785
0.55755615234375	-0.0129638671875	4971.71690744762
0.553131103515625	-0.01302490234375	4971.8054084474
0.5487060546875	-0.0130859375	4971.89390944717
0.544281005859375	-0.0131439208984375	4971.98241044695
0.53985595703125	-0.0132049560546875	4972.07091144673
0.535430908203125	-0.013262939453125	4972.1594124465
0.531005859375	-0.0133209228515625	4972.24791344628
0.526580810546875	-0.0133758544921875	4972.33641444606
0.52215576171875	-0.0134307861328125	4972.42491544583
0.517730712890625	-0.01348876953125	4972.51341644561
0.5133056640625	-0.013543701171875	4972.60191744539
0.508880615234375	-0.0135986328125	4972.69041844516
0.50445556640625	-0.013653564453125	4972.77891944494
0.500030517578125	-0.01370849609375	4972.86742044472
0.49560546875	-0.0137603759765625	4972.95592144449
0.491180419921875	-0.0138153076171875	4973.04442244427
0.48675537109375	-0.0138671875	4973.13292344405
0.482330322265625	-0.0139190673828125	4973.22142444382
0.4779052734375	-0.013970947265625	4973.3099254436
0.473480224609375	-0.0140228271484375	4973.39842644338
0.46905517578125	-0.01407470703125	4973.48692744315
0.464630126953125	-0.01412353515625	4973.57542844293
0.460205078125	-0.0141754150390625	4973.66392944271
0.455780029296875	-0.014227294921875	4973.75243044248
0.45135498046875	-0.0142791748046875	4973.84093144226
0.446929931640625	-0.0143310546875	4973.92943244204
0.4425048828125	-0.0143829345703125	4974.01793344181
0.438079833984375	-0.0144317626953125	4974.10643444159
0.43365478515625	-0.014483642578125	4974.19493544136
0.429229736328125	-0.0145355224609375	4974.28343644114
0.4248046875	-0.01458740234375	4974.37193744092
0.420379638671875	-0.014642333984375	4974.46043844069
0.41595458984375	-0.014691162109375	4974.54893944047
0.411529541015625	-0.0147430419921875	4974.63744044025
0.4071044921875	-0.014794921875	4974.72594144002
0.402679443359375	-0.0148468017578125	4974.8144424398
0.39825439453125	-0.0149017333984375	4974.90294343958
0.393829345703125	-0.01495361328125	4974.99144443935
0.389404296875	-0.0150054931640625	4975.07994543913
0.384979248046875	-0.015057373046875	4975.16844643891
0.38055419921875	-0.0151092529296875	4975.25694743868
0.376129150390625	-0.0151611328125	4975.34544843846
0.3717041015625	-0.0152191162109375	4975.43394943824
0.367279052734375	-0.01527099609375	4975.52245043801
0.36285400390625	-0.015325927734375	4975.61095143779
0.358428955078125	-0.015374755859375	4975.69945243757
0.35400390625	-0.0154266357421875	4975.78795343734
0.349578857421875	-0.015478515625	4975.87645443712
0.34515380859375	-0.015533447265625	4975.9649554369
0.340728759765625	-0.01558837890625	4976.05345643667
0.3363037109375	-0.01563720703125	4976.14195743645
0.331878662109375	-0.0156890869140625	4976.23045843623
0.32745361328125	-0.015740966796875	4976.318959436
0.323028564453125	-0.0157928466796875	4976.40746043578
0.318603515625	-0.0158447265625	4976.49596143556
0.314178466796875	-0.0158966064453125	4976.58446243533
0.30975341796875	-0.01595458984375	4976.67296343511
0.305328369140625	-0.01600341796875	4976.76146443489
0.3009033203125	-0.01605224609375	4976.84996543466
0.296478271484375	-0.01610107421875	4976.93846643444
0.29205322265625	-0.01614990234375	4977.02696743421
0.287628173828125	-0.01619873046875	4977.11546843399
0.283203125	-0.01624755859375	4977.20396943377
0.278778076171875	-0.0162933349609375	4977.29247043354
0.27435302734375	-0.016339111328125	4977.38097143332
0.269927978515625	-0.0163848876953125	4977.4694724331
0.2655029296875	-0.0164306640625	4977.55797343287
0.261077880859375	-0.016473388671875	4977.64647443265
0.25665283203125	-0.0165191650390625	4977.73497543243
0.252227783203125	-0.0165618896484375	4977.8234764322
0.247802734375	-0.0166015625	4977.91197743198
0.243377685546875	-0.0166412353515625	4978.00047843176
0.23895263671875	-0.0166778564453125	4978.08897943153
0.234527587890625	-0.0167205810546875	4978.17748043131
0.2301025390625	-0.0167572021484375	4978.26598143109
0.225677490234375	-0.0167938232421875	4978.35448243086
0.22125244140625	-0.0168304443359375	4978.44298343064
0.216827392578125	-0.016864013671875	4978.53148443042
0.21240234375	-0.0168975830078125	4978.61998543019
0.207977294921875	-0.0169342041015625	4978.70848642997
0.20355224609375	-0.0169647216796875	4978.79698742975
0.199127197265625	-0.0169952392578125	4978.88548842952
0.1947021484375	-0.0170257568359375	4978.9739894293
0.190277099609375	-0.01705322265625	4979.06249042908
0.18585205078125	-0.0170806884765625	4979.15099142885
0.181427001953125	-0.0171112060546875	4979.23949242863
0.177001953125	-0.0171356201171875	4979.32799342841
0.172576904296875	-0.0171600341796875	4979.41649442818
0.16815185546875	-0.0171844482421875	4979.50499542796
0.163726806640625	-0.017205810546875	4979.59349642773
0.1593017578125	-0.017230224609375	4979.68199742751
0.154876708984375	-0.0172515869140625	4979.77049842729
0.15045166015625	-0.01727294921875	4979.85899942706
0.146026611328125	-0.0172943115234375	4979.94750042684
0.1416015625	-0.0173126220703125	4980.03600142662
0.137176513671875	-0.0173309326171875	4980.12450242639
0.13275146484375	-0.0173492431640625	4980.21300342617
0.128326416015625	-0.01737060546875	4980.30150442595
0.1239013671875	-0.0173858642578125	4980.39000542572
0.119476318359375	-0.0174041748046875	4980.4785064255
0.11505126953125	-0.0174163818359375	4980.56700742528
0.110626220703125	-0.017431640625	4980.65550842505
0.106201171875	-0.017449951171875	4980.74400942483
0.101776123046875	-0.0174652099609375	4980.83251042461
0.09735107421875	-0.01748046875	4980.92101142438
0.092926025390625	-0.0174957275390625	4981.00951242416
0.0885009765625	-0.017510986328125	4981.09801342394
0.084075927734375	-0.017523193359375	4981.18651442371
0.07965087890625	-0.017535400390625	4981.27501542349
0.075225830078125	-0.017547607421875	4981.36351642327
0.07080078125	-0.0175628662109375	4981.45201742304
0.066375732421875	-0.0175750732421875	4981.54051842282
0.06195068359375	-0.0175872802734375	4981.6290194226
0.057525634765625	-0.0175994873046875	4981.71752042237
0.0531005859375	-0.017608642578125	4981.80602142215
0.048675537109375	-0.017620849609375	4981.89452242193
0.04425048828125	-0.017633056640625	4981.9830234217
0.039825439453125	-0.017645263671875	4982.07152442148
0.035400390625	-0.017657470703125	4982.16002542126
0.030975341796875	-0.0176666259765625	4982.24852642103
0.02655029296875	-0.0176788330078125	4982.33702742081
0.022125244140625	-0.0176910400390625	4982.42552842058
0.0177001953125	-0.0177032470703125	4982.51402942036
0.013275146484375	-0.0177154541015625	4982.60253042014
0.00885009765625	-0.0177276611328125	4982.69103141991
0.004425048828125	-0.0177398681640625	4982.77953241969
0	-0.0177520751953125	4982.86803341947
0.004425048828125	-0.0167724609375	4982.95653441924
0.00885009765625	-0.015838623046875	4983.04503541902
0.013275146484375	-0.014947509765625	4983.1335364188
0.0177001953125	-0.0140899658203125	4983.22203741857
0.022125244140625	-0.0132659912109375	4983.31053841835
0.02655029296875	-0.012469482421875	4983.39903941813
0.030975341796875	-0.011700439453125	4983.4875404179
0.035400390625	-0.0109588623046875	4983.57604141768
0.039825439453125	-0.010247802734375	4983.66454241746
0.04425048828125	-0.0095550537109375	4983.75304341723
0.048675537109375	-0.00888671875	4983.84154441701
0.0531005859375	-0.0082366943359375	4983.93004541679
0.057525634765625	-0.007611083984375	4984.01854641656
0.06195068359375	-0.0070037841796875	4984.10704741634
0.066375732421875	-0.0064117431640625	4984.19554841612
0.07080078125	-0.005841064453125	4984.28404941589
0.075225830078125	-0.0052886962890625	4984.37255041567
0.07965087890625	-0.00475433349609375	4984.46105141545
0.084075927734375	-0.00423248291015625	4984.54955241522
0.0885009765625	-0.00372772216796875	4984.638053415
0.092926025390625	-0.00323699951171875	4984.72655441477
0.09735107421875	-0.00276092529296875	4984.81505541455
0.101776123046875	-0.002308349609375	4984.90355641433
0.106201171875	-0.00185791015625	4984.99205741411
0.110626220703125	-0.00142059326171875	4985.08055841388
0.11505126953125	-0.0009967041015625	4985.16905941366
0.119476318359375	-0.00058624267578125	4985.25756041343
0.1239013671875	-0.000185882568359375	4985.34606141321
0.128326416015625	0.0002039794921875	4985.43456241299
0.13275146484375	0.00058319091796875	4985.52306341276
0.137176513671875	0.00095184326171875	4985.61156441254
0.1416015625	0.00131011962890625	4985.70006541232
0.146026611328125	0.0016583251953125	4985.78856641209
0.15045166015625	0.00199615478515625	4985.87706741187
0.154876708984375	0.0023272705078125	4985.96556841165
0.1593017578125	0.0026470947265625	4986.05406941142
0.163726806640625	0.002958984375	4986.1425704112
0.16815185546875	0.0032623291015625	4986.23107141098
0.172576904296875	0.00355743408203125	4986.31957241075
0.177001953125	0.0038446044921875	4986.40807341053
0.181427001953125	0.0041241455078125	4986.49657441031
0.18585205078125	0.00439605712890625	4986.58507541008
0.190277099609375	0.00466033935546875	4986.67357640986
0.1947021484375	0.00491668701171875	4986.76207740964
0.199127197265625	0.0051666259765625	4986.85057840941
0.20355224609375	0.00541046142578125	4986.93907940919
0.207977294921875	0.0056488037109375	4987.02758040897
0.21240234375	0.0058807373046875	4987.11608140874
0.216827392578125	0.00610687255859375	4987.20458240852
0.22125244140625	0.006317138671875	4987.2930834083
0.225677490234375	0.00653076171875	4987.38158440807
0.2301025390625	0.0067413330078125	4987.47008540785
0.234527587890625	0.0069427490234375	4987.55858640762
0.23895263671875	0.0071380615234375	4987.6470874074
0.243377685546875	0.0073333740234375	4987.73558840718
0.247802734375	0.00751953125	4987.82408940695
0.252227783203125	0.00770263671875	4987.91259040673
0.25665283203125	0.0078765869140625	4988.00109140651
0.261077880859375	0.0080535888671875	4988.08959240628
0.2655029296875	0.008221435546875	4988.17809340606
0.269927978515625	0.0083892822265625	4988.26659440584
0.27435302734375	0.008551025390625	4988.35509540561
0.278778076171875	0.008709716796875	4988.44359640539
0.283203125	0.0088653564453125	4988.53209740517
0.287628173828125	0.0090179443359375	4988.62059840494
0.29205322265625	0.00916748046875	4988.70909940472
0.296478271484375	0.00931396484375	4988.7976004045
0.3009033203125	0.009454345703125	4988.88610140427
0.305328369140625	0.0095916748046875	4988.97460240405
0.30975341796875	0.0097259521484375	4989.06310340383
0.314178466796875	0.00986328125	4989.1516044036
0.318603515625	0.009991455078125	4989.24010540338
0.323028564453125	0.01011962890625	4989.32860640316
0.32745361328125	0.01024169921875	4989.41710740293
0.331878662109375	0.01036376953125	4989.50560840271
0.3363037109375	0.01048583984375	4989.59410940249
0.340728759765625	0.0106048583984375	4989.68261040226
0.34515380859375	0.0107208251953125	4989.77111140204
0.349578857421875	0.0108367919921875	4989.85961240182
0.35400390625	0.010943603515625	4989.94811340159
0.358428955078125	0.0110504150390625	4990.03661440137
0.36285400390625	0.0111572265625	4990.12511540115
0.367279052734375	0.0112640380859375	4990.21361640092
0.3717041015625	0.0113677978515625	4990.3021174007
0.376129150390625	0.011468505859375	4990.39061840047
0.38055419921875	0.0115692138671875	4990.47911940025
0.384979248046875	0.011663818359375	4990.56762040003
0.389404296875	0.011761474609375	4990.6561213998
0.393829345703125	0.0118560791015625	4990.74462239958
0.39825439453125	0.01195068359375	4990.83312339936
0.402679443359375	0.012042236328125	4990.92162439913
0.4071044921875	0.0121307373046875	4991.01012539891
0.411529541015625	0.0122222900390625	4991.09862639869
0.41595458984375	0.0123077392578125	4991.18712739846
0.420379638671875	0.012396240234375	4991.27562839824
0.4248046875	0.012481689453125	4991.36412939802
0.429229736328125	0.0125640869140625	4991.45263039779
0.43365478515625	0.012646484375	4991.54113139757
0.438079833984375	0.0127288818359375	4991.62963239735
0.4425048828125	0.012811279296875	4991.71813339712
0.446929931640625	0.012890625	4991.8066343969
0.45135498046875	0.012969970703125	4991.89513539668
0.455780029296875	0.01304931640625	4991.98363639645
0.460205078125	0.0131256103515625	4992.07213739623
0.464630126953125	0.013201904296875	4992.16063839601
0.46905517578125	0.013275146484375	4992.24913939578
0.473480224609375	0.013348388671875	4992.33764039556
0.4779052734375	0.013421630859375	4992.42614139534
0.482330322265625	0.013494873046875	4992.51464239511
0.48675537109375	0.013568115234375	4992.60314339489
0.491180419921875	0.0136383056640625	4992.69164439467
0.49560546875	0.01370849609375	4992.78014539444
0.500030517578125	0.013775634765625	4992.86864639422
0.50445556640625	0.0138458251953125	4992.957147394
0.508880615234375	0.0139129638671875	4993.04564839377
0.5133056640625	0.01397705078125	4993.13414939355
0.517730712890625	0.014044189453125	4993.22265039332
0.52215576171875	0.014105224609375	4993.3111513931
0.526580810546875	0.0141693115234375	4993.39965239288
0.531005859375	0.0142303466796875	4993.48815339265
0.535430908203125	0.01429443359375	4993.57665439243
0.53985595703125	0.0143585205078125	4993.66515539221
0.544281005859375	0.0144195556640625	4993.75365639198
0.5487060546875	0.0144775390625	4993.84215739176
0.553131103515625	0.0145355224609375	4993.93065839154
0.55755615234375	0.0145965576171875	4994.01915939131
0.561981201171875	0.014654541015625	4994.10766039109
0.56640625	0.0147125244140625	4994.19616139087
0.570831298828125	0.0147705078125	4994.28466239064
0.57525634765625	0.014825439453125	4994.37316339042
0.579681396484375	0.01488037109375	4994.4616643902
0.5841064453125	0.014935302734375	4994.55016538997
0.588531494140625	0.0149871826171875	4994.63866638975
0.59295654296875	0.0150421142578125	4994.72716738953
0.597381591796875	0.015093994140625	4994.8156683893
0.601806640625	0.015142822265625	4994.90416938908
0.606231689453125	0.0151947021484375	4994.99267038886
0.61065673828125	0.0152435302734375	4995.08117138863
0.615081787109375	0.01529541015625	4995.16967238841
0.6195068359375	0.0153411865234375	4995.25817338819
0.623931884765625	0.0153900146484375	4995.34667438796
0.62835693359375	0.01544189453125	4995.43517538774
0.632781982421875	0.0154876708984375	4995.52367638752
0.63720703125	0.0155303955078125	4995.61217738729
0.641632080078125	0.015576171875	4995.70067838707
0.64605712890625	0.015618896484375	4995.78917938684
0.650482177734375	0.0156585693359375	4995.87768038662
0.6549072265625	0.0156982421875	4995.9661813864
0.659332275390625	0.0157379150390625	4996.05468238617
0.66375732421875	0.015777587890625	4996.14318338595
0.668182373046875	0.015814208984375	4996.23168438573
0.672607421875	0.0158538818359375	4996.3201853855
0.677032470703125	0.015887451171875	4996.40868638528
0.68145751953125	0.015924072265625	4996.49718738506
0.685882568359375	0.0159576416015625	4996.58568838483
0.6903076171875	0.0159912109375	4996.67418938461
0.694732666015625	0.0160247802734375	4996.76269038439
0.69915771484375	0.0160552978515625	4996.85119138416
0.703582763671875	0.0160858154296875	4996.93969238394
0.7080078125	0.0161163330078125	4997.02819338372
0.712432861328125	0.016143798828125	4997.11669438349
0.71685791015625	0.0161712646484375	4997.20519538327
0.721282958984375	0.01619873046875	4997.29369638305
0.7257080078125	0.0162261962890625	4997.38219738282
0.730133056640625	0.016253662109375	4997.4706983826
0.73455810546875	0.016278076171875	4997.55919938238
0.738983154296875	0.016302490234375	4997.64770038215
0.743408203125	0.0163238525390625	4997.73620138193
0.747833251953125	0.01634521484375	4997.82470238171
0.75225830078125	0.0163665771484375	4997.91320338148
0.756683349609375	0.0163909912109375	4998.00170438126
0.7611083984375	0.016412353515625	4998.09020538104
0.765533447265625	0.0164306640625	4998.17870638081
0.76995849609375	0.0164520263671875	4998.26720738059
0.774383544921875	0.0164703369140625	4998.35570838037
0.77880859375	0.01649169921875	4998.44420938014
0.783233642578125	0.016510009765625	4998.53271037992
0.78765869140625	0.0165283203125	4998.62121137969
0.792083740234375	0.016546630859375	4998.70971237947
0.7965087890625	0.0165618896484375	4998.79821337925
0.800933837890625	0.0165802001953125	4998.88671437902
0.80535888671875	0.0165985107421875	4998.9752153788
0.809783935546875	0.0166168212890625	4999.06371637858
0.814208984375	0.016632080078125	4999.15221737835
0.818634033203125	0.016650390625	4999.24071837813
0.82305908203125	0.0166656494140625	4999.32921937791
0.827484130859375	0.0166839599609375	4999.41772037768
0.8319091796875	0.01669921875	4999.50622137746
0.836334228515625	0.0167144775390625	4999.59472237724
0.84075927734375	0.0167327880859375	4999.68322337701
0.845184326171875	0.016748046875	4999.77172437679
0.849609375	0.0167633056640625	4999.86022537657
0.854034423828125	0.016778564453125	4999.94872637634
0.85845947265625	0.016796875	5000.03722737612
0.862884521484375	0.0168121337890625	5000.1257283759
0.8673095703125	0.0168304443359375	5000.21422937567
0.871734619140625	0.0168487548828125	5000.30273037545
0.87615966796875	0.0168670654296875	5000.39123137523
0.880584716796875	0.0168853759765625	5000.479732375
0.885009765625	0.0169036865234375	5000.56823337478
0.889434814453125	0.0169219970703125	5000.65673437456
0.89385986328125	0.016943359375	5000.74523537433
0.898284912109375	0.0169647216796875	5000.83373637411
0.9027099609375	0.0169830322265625	5000.92223737388
0.907135009765625	0.01700439453125	5001.01073837366
0.91156005859375	0.01702880859375	5001.09923937344
0.915985107421875	0.01705322265625	5001.18774037322
0.92041015625	0.01707763671875	5001.27624137299
0.924835205078125	0.01710205078125	5001.36474237277
0.92926025390625	0.0171295166015625	5001.45324337254
0.933685302734375	0.0171539306640625	5001.54174437232
0.9381103515625	0.0171875	5001.6302453721
0.942535400390625	0.0172149658203125	5001.71874637187
0.94696044921875	0.0172454833984375	5001.80724737165
0.951385498046875	0.017279052734375	5001.89574837143
0.955810546875	0.017315673828125	5001.9842493712
0.960235595703125	0.0173492431640625	5002.07275037098
0.96466064453125	0.017388916015625	5002.16125137076
0.969085693359375	0.0174285888671875	5002.24975237053
0.9735107421875	0.0174713134765625	5002.33825337031
0.977935791015625	0.0175140380859375	5002.42675437009
0.98236083984375	0.017559814453125	5002.51525536986
0.986785888671875	0.017608642578125	5002.60375636964
0.9912109375	0.0176605224609375	5002.69225736942
0.995635986328125	0.0177154541015625	5002.78075836919
1.00006103515625	0.0177703857421875	5002.86925936897
0.995635986328125	0.0168243408203125	5002.95776036875
0.9912109375	0.0159210205078125	5003.04626136852
0.986785888671875	0.015057373046875	5003.1347623683
0.98236083984375	0.014227294921875	5003.22326336808
0.977935791015625	0.0134307861328125	5003.31176436785
0.9735107421875	0.012664794921875	5003.40026536763
0.969085693359375	0.0119232177734375	5003.48876636741
0.96466064453125	0.0112060546875	5003.57726736718
0.960235595703125	0.0105133056640625	5003.66576836696
0.955810546875	0.0098388671875	5003.75426936673
0.951385498046875	0.0091888427734375	5003.84277036651
0.94696044921875	0.00855712890625	5003.93127136629
0.942535400390625	0.007940673828125	5004.01977236606
0.9381103515625	0.0073455810546875	5004.10827336584
0.933685302734375	0.0067626953125	5004.19677436562
0.92926025390625	0.0061981201171875	5004.28527536539
0.924835205078125	0.005645751953125	5004.37377636517
0.92041015625	0.00511474609375	5004.46227736495
0.915985107421875	0.0045941162109375	5004.55077836472
0.91156005859375	0.0040875244140625	5004.6392793645
0.907135009765625	0.00359375	5004.72778036428
0.9027099609375	0.00311279296875	5004.81628136405
0.898284912109375	0.00264434814453125	5004.90478236383
0.89385986328125	0.00218841552734375	5004.99328336361
0.889434814453125	0.001741943359375	5005.08178436338
0.885009765625	0.00130767822265625	5005.17028536316
0.880584716796875	0.00088287353515625	5005.25878636294
0.87615966796875	0.000469085693359375	5005.34728736271
0.871734619140625	6.4788818359375E-05	5005.43578836249
0.8673095703125	-0.000328369140625	5005.52428936227
0.862884521484375	-0.000712890625	5005.61279036204
0.85845947265625	-0.0010858154296875	5005.70129136182
0.854034423828125	-0.00145172119140625	5005.7897923616
0.849609375	-0.00180877685546875	5005.87829336137
0.845184326171875	-0.00215667724609375	5005.96679436115
0.84075927734375	-0.00249542236328125	5006.05529536093
0.836334228515625	-0.00282623291015625	5006.1437963607
0.8319091796875	-0.00314910888671875	5006.23229736048
0.827484130859375	-0.003463134765625	5006.32079836026
0.82305908203125	-0.00376953125	5006.40929936003
0.818634033203125	-0.00406768798828125	5006.49780035981
0.814208984375	-0.00435882568359375	5006.58630135958
0.809783935546875	-0.004642333984375	5006.67480235936
0.80535888671875	-0.00491912841796875	5006.76330335914
0.800933837890625	-0.00518798828125	5006.85180435891
0.7965087890625	-0.0054498291015625	5006.94030535869
0.792083740234375	-0.00570404052734375	5007.02880635847
0.78765869140625	-0.0059521484375	5007.11730735824
0.783233642578125	-0.00619415283203125	5007.20580835802
0.77880859375	-0.0064056396484375	5007.2943093578
0.774383544921875	-0.006634521484375	5007.38281035757
0.76995849609375	-0.0068572998046875	5007.47131135735
0.765533447265625	-0.007073974609375	5007.55981235713
0.7611083984375	-0.0072845458984375	5007.6483133569
0.756683349609375	-0.007489013671875	5007.73681435668
0.75225830078125	-0.0076873779296875	5007.82531535646
0.747833251953125	-0.007879638671875	5007.91381635623
0.743408203125	-0.00806884765625	5008.00231735601
0.738983154296875	-0.0082489013671875	5008.09081835579
0.73455810546875	-0.0084259033203125	5008.17931935556
0.730133056640625	-0.008599853515625	5008.26782035534
0.7257080078125	-0.0087677001953125	5008.35632135512
0.721282958984375	-0.0089324951171875	5008.44482235489
0.71685791015625	-0.0090911865234375	5008.53332335467
0.712432861328125	-0.009246826171875	5008.62182435445
0.7080078125	-0.009393310546875	5008.71032535422
0.703582763671875	-0.009539794921875	5008.798826354
0.69915771484375	-0.0096832275390625	5008.88732735378
0.694732666015625	-0.009820556640625	5008.97582835355
0.6903076171875	-0.009954833984375	5009.06432935333
0.685882568359375	-0.0100860595703125	5009.1528303531
0.68145751953125	-0.010211181640625	5009.24133135288
0.677032470703125	-0.0103363037109375	5009.32983235266
0.672607421875	-0.0104583740234375	5009.41833335243
0.668182373046875	-0.010577392578125	5009.50683435221
0.66375732421875	-0.0106903076171875	5009.59533535199
0.659332275390625	-0.0108001708984375	5009.68383635176
0.6549072265625	-0.010906982421875	5009.77233735154
0.650482177734375	-0.0110076904296875	5009.86083835132
0.64605712890625	-0.0111114501953125	5009.94933935109
0.641632080078125	-0.0112091064453125	5010.03784035087
0.63720703125	-0.0113067626953125	5010.12634135065
0.632781982421875	-0.0114013671875	5010.21484235042
0.62835693359375	-0.011492919921875	5010.3033433502
0.623931884765625	-0.0115875244140625	5010.39184434998
0.6195068359375	-0.011676025390625	5010.48034534975
0.615081787109375	-0.0117645263671875	5010.56884634953
0.61065673828125	-0.011846923828125	5010.65734734931
0.606231689453125	-0.0119293212890625	5010.74584834908
0.601806640625	-0.0120086669921875	5010.83434934886
0.597381591796875	-0.0120880126953125	5010.92285034864
0.59295654296875	-0.012164306640625	5011.01135134841
0.588531494140625	-0.0122406005859375	5011.09985234819
0.5841064453125	-0.012310791015625	5011.18835334797
0.579681396484375	-0.012384033203125	5011.27685434774
0.57525634765625	-0.0124542236328125	5011.36535534752
0.570831298828125	-0.0125213623046875	5011.4538563473
0.56640625	-0.012591552734375	5011.54235734707
0.561981201171875	-0.01265869140625	5011.63085834685
0.55755615234375	-0.012725830078125	5011.71935934663
0.553131103515625	-0.01279296875	5011.8078603464
0.5487060546875	-0.01285400390625	5011.89636134618
0.544281005859375	-0.0129180908203125	5011.98486234595
0.53985595703125	-0.012982177734375	5012.07336334573
0.535430908203125	-0.0130462646484375	5012.16186434551
0.531005859375	-0.0131072998046875	5012.25036534528
0.526580810546875	-0.0131683349609375	5012.33886634506
0.52215576171875	-0.013226318359375	5012.42736734484
0.517730712890625	-0.0132843017578125	5012.51586834461
0.5133056640625	-0.01334228515625	5012.60436934439
0.508880615234375	-0.0134002685546875	5012.69287034417
0.50445556640625	-0.013458251953125	5012.78137134394
0.500030517578125	-0.0135162353515625	5012.86987234372
0.49560546875	-0.0135711669921875	5012.9583733435
0.491180419921875	-0.0136260986328125	5013.04687434327
0.48675537109375	-0.01368408203125	5013.13537534305
0.482330322265625	-0.0137420654296875	5013.22387634283
0.4779052734375	-0.0137969970703125	5013.3123773426
0.473480224609375	-0.0138519287109375	5013.40087834238
0.46905517578125	-0.0139068603515625	5013.48937934216
0.464630126953125	-0.013958740234375	5013.57788034193
0.460205078125	-0.014013671875	5013.66638134171
0.455780029296875	-0.014068603515625	5013.75488234149
0.45135498046875	-0.01412353515625	5013.84338334126
0.446929931640625	-0.0141754150390625	5013.93188434104
0.4425048828125	-0.0142303466796875	5014.02038534082
0.438079833984375	-0.0142852783203125	5014.10888634059
0.43365478515625	-0.014337158203125	5014.19738734037
0.429229736328125	-0.01439208984375	5014.28588834014
0.4248046875	-0.014447021484375	5014.37438933992
0.420379638671875	-0.014501953125	5014.4628903397
0.41595458984375	-0.014556884765625	5014.55139133948
0.411529541015625	-0.0146087646484375	5014.63989233925
0.4071044921875	-0.0146636962890625	5014.72839333903
0.402679443359375	-0.0147186279296875	5014.8168943388
0.39825439453125	-0.0147735595703125	5014.90539533858
0.393829345703125	-0.0148284912109375	5014.99389633836
0.389404296875	-0.01488037109375	5015.08239733813
0.384979248046875	-0.014935302734375	5015.17089833791
0.38055419921875	-0.014990234375	5015.25939933769
0.376129150390625	-0.015045166015625	5015.34790033746
0.3717041015625	-0.01510009765625	5015.43640133724
0.367279052734375	-0.015155029296875	5015.52490233702
0.36285400390625	-0.0152099609375	5015.61340333679
0.358428955078125	-0.015264892578125	5015.70190433657
0.35400390625	-0.01531982421875	5015.79040533635
0.349578857421875	-0.0153717041015625	5015.87890633612
0.34515380859375	-0.0154296875	5015.9674073359
0.340728759765625	-0.0154815673828125	5016.05590833568
0.3363037109375	-0.01553955078125	5016.14440933545
0.331878662109375	-0.0155914306640625	5016.23291033523
0.32745361328125	-0.015643310546875	5016.32141133501
0.323028564453125	-0.0156951904296875	5016.40991233478
0.318603515625	-0.0157501220703125	5016.49841333456
0.314178466796875	-0.015802001953125	5016.58691433434
0.30975341796875	-0.0158599853515625	5016.67541533411
0.305328369140625	-0.0159088134765625	5016.76391633389
0.3009033203125	-0.015960693359375	5016.85241733367
0.296478271484375	-0.016009521484375	5016.94091833344
0.29205322265625	-0.0160614013671875	5017.02941933322
0.287628173828125	-0.01611328125	5017.11792033299
0.283203125	-0.016162109375	5017.20642133277
0.278778076171875	-0.0162078857421875	5017.29492233255
0.27435302734375	-0.0162567138671875	5017.38342333233
0.269927978515625	-0.0162994384765625	5017.4719243321
0.2655029296875	-0.0163482666015625	5017.56042533188
0.261077880859375	-0.0163909912109375	5017.64892633165
0.25665283203125	-0.016436767578125	5017.73742733143
0.252227783203125	-0.0164794921875	5017.82592833121
0.247802734375	-0.0165191650390625	5017.91442933098
0.243377685546875	-0.0165618896484375	5018.00293033076
0.23895263671875	-0.0166015625	5018.09143133054
0.234527587890625	-0.0166412353515625	5018.17993233031
0.2301025390625	-0.016680908203125	5018.26843333009
0.225677490234375	-0.016717529296875	5018.35693432987
0.22125244140625	-0.0167510986328125	5018.44543532964
0.216827392578125	-0.01678466796875	5018.53393632942
0.21240234375	-0.0168182373046875	5018.6224373292
0.207977294921875	-0.0168548583984375	5018.71093832897
0.20355224609375	-0.0168853759765625	5018.79943932875
0.199127197265625	-0.0169158935546875	5018.88794032853
0.1947021484375	-0.016943359375	5018.9764413283
0.190277099609375	-0.016973876953125	5019.06494232808
0.18585205078125	-0.016998291015625	5019.15344332786
0.181427001953125	-0.0170257568359375	5019.24194432763
0.177001953125	-0.01705322265625	5019.33044532741
0.172576904296875	-0.01707763671875	5019.41894632719
0.16815185546875	-0.01710205078125	5019.50744732696
0.163726806640625	-0.0171234130859375	5019.59594832674
0.1593017578125	-0.017144775390625	5019.68444932652
0.154876708984375	-0.0171630859375	5019.77295032629
0.15045166015625	-0.0171844482421875	5019.86145132607
0.146026611328125	-0.0172027587890625	5019.94995232584
0.1416015625	-0.017218017578125	5020.03845332562
0.137176513671875	-0.017236328125	5020.1269543254
0.13275146484375	-0.0172515869140625	5020.21545532517
0.128326416015625	-0.0172698974609375	5020.30395632495
0.1239013671875	-0.01728515625	5020.39245732473
0.119476318359375	-0.0173004150390625	5020.4809583245
0.11505126953125	-0.0173126220703125	5020.56945932428
0.110626220703125	-0.0173248291015625	5020.65796032406
0.106201171875	-0.0173370361328125	5020.74646132383
0.101776123046875	-0.0173492431640625	5020.83496232361
0.09735107421875	-0.017364501953125	5020.92346332339
0.092926025390625	-0.017376708984375	5021.01196432316
0.0885009765625	-0.0173858642578125	5021.10046532294
0.084075927734375	-0.01739501953125	5021.18896632272
0.07965087890625	-0.0174041748046875	5021.27746732249
0.075225830078125	-0.017413330078125	5021.36596832227
0.07080078125	-0.017425537109375	5021.45446932205
0.066375732421875	-0.0174346923828125	5021.54297032182
0.06195068359375	-0.01744384765625	5021.6314713216
0.057525634765625	-0.017449951171875	5021.71997232138
0.0531005859375	-0.0174591064453125	5021.80847332115
0.048675537109375	-0.01746826171875	5021.89697432093
0.04425048828125	-0.0174774169921875	5021.98547532071
0.039825439453125	-0.017486572265625	5022.07397632048
0.035400390625	-0.0174957275390625	5022.16247732026
0.030975341796875	-0.0175018310546875	5022.25097832003
0.02655029296875	-0.017510986328125	5022.33947931981
0.022125244140625	-0.017523193359375	5022.42798031959
0.0177001953125	-0.0175323486328125	5022.51648131937
0.013275146484375	-0.01754150390625	5022.60498231914
0.00885009765625	-0.0175506591796875	5022.69348331892
0.004425048828125	-0.0175628662109375	5022.78198431869
0	-0.017572021484375	5022.87048531847
0.004425048828125	-0.0165924072265625	5022.95898631825
0.00885009765625	-0.0156585693359375	5023.04748731802
0.013275146484375	-0.0147674560546875	5023.1359883178
0.0177001953125	-0.013909912109375	5023.22448931758
0.022125244140625	-0.0130828857421875	5023.31299031735
0.02655029296875	-0.0122894287109375	5023.40149131713
0.030975341796875	-0.0115203857421875	5023.48999231691
0.035400390625	-0.0107818603515625	5023.57849331668
0.039825439453125	-0.0100677490234375	5023.66699431646
0.04425048828125	-0.0093780517578125	5023.75549531624
0.048675537109375	-0.008709716796875	5023.84399631601
0.0531005859375	-0.0080596923828125	5023.93249731579
0.057525634765625	-0.0074371337890625	5024.02099831557
0.06195068359375	-0.006829833984375	5024.10949931534
0.066375732421875	-0.006243896484375	5024.19800031512
0.07080078125	-0.0056732177734375	5024.2865013149
0.075225830078125	-0.0051239013671875	5024.37500231467
0.07965087890625	-0.004591064453125	5024.46350331445
0.084075927734375	-0.00407196044921875	5024.55200431423
0.0885009765625	-0.00356964111328125	5024.640505314
0.092926025390625	-0.00308197021484375	5024.72900631378
0.09735107421875	-0.00260833740234375	5024.81750731356
0.101776123046875	-0.00215728759765625	5024.90600831333
0.106201171875	-0.00170989990234375	5024.99450931311
0.110626220703125	-0.00127471923828125	5025.08301031288
0.11505126953125	-0.00085296630859375	5025.17151131266
0.119476318359375	-0.000445556640625	5025.26001231244
0.1239013671875	-4.705810546875E-05	5025.34851331221
0.128326416015625	0.0003402099609375	5025.43701431199
0.13275146484375	0.00071685791015625	5025.52551531177
0.137176513671875	0.0010833740234375	5025.61401631154
0.1416015625	0.00143890380859375	5025.70251731132
0.146026611328125	0.00178497314453125	5025.7910183111
0.15045166015625	0.00212066650390625	5025.87951931087
0.154876708984375	0.00244873046875	5025.96802031065
0.1593017578125	0.00276611328125	5026.05652131043
0.163726806640625	0.00307586669921875	5026.1450223102
0.16815185546875	0.00337646484375	5026.23352330998
0.172576904296875	0.00366973876953125	5026.32202430976
0.177001953125	0.003953857421875	5026.41052530953
0.181427001953125	0.0042315673828125	5026.49902630931
0.18585205078125	0.004500732421875	5026.58752730909
0.190277099609375	0.00476287841796875	5026.67602830886
0.1947021484375	0.00501708984375	5026.76452930864
0.199127197265625	0.00526458740234375	5026.85303030842
0.20355224609375	0.00550628662109375	5026.94153130819
0.207977294921875	0.00574310302734375	5027.03003230797
0.21240234375	0.00597320556640625	5027.11853330775
0.216827392578125	0.006197509765625	5027.20703430752
0.22125244140625	0.0064056396484375	5027.2955353073
0.225677490234375	0.0066192626953125	5027.38403630708
0.2301025390625	0.0068267822265625	5027.47253730685
0.234527587890625	0.0070281982421875	5027.56103830663
0.23895263671875	0.0072235107421875	5027.64953930641
0.243377685546875	0.0074127197265625	5027.73804030618
0.247802734375	0.007598876953125	5027.82654130596
0.252227783203125	0.007781982421875	5027.91504230573
0.25665283203125	0.007952880859375	5028.00354330551
0.261077880859375	0.0081268310546875	5028.09204430529
0.2655029296875	0.0082977294921875	5028.18054530506
0.269927978515625	0.00845947265625	5028.26904630484
0.27435302734375	0.0086212158203125	5028.35754730462
0.278778076171875	0.0087799072265625	5028.44604830439
0.283203125	0.0089324951171875	5028.53454930417
0.287628173828125	0.0090850830078125	5028.62305030395
0.29205322265625	0.0092315673828125	5028.71155130372
0.296478271484375	0.009375	5028.8000523035
0.3009033203125	0.0095123291015625	5028.88855330328
0.305328369140625	0.009649658203125	5028.97705430305
0.30975341796875	0.009783935546875	5029.06555530283
0.314178466796875	0.009918212890625	5029.15405630261
0.318603515625	0.01004638671875	5029.24255730238
0.323028564453125	0.0101715087890625	5029.33105830216
0.32745361328125	0.010296630859375	5029.41955930194
0.331878662109375	0.010418701171875	5029.50806030171
0.3363037109375	0.0105377197265625	5029.59656130149
0.340728759765625	0.01065673828125	5029.68506230127
0.34515380859375	0.010772705078125	5029.77356330104
0.349578857421875	0.0108856201171875	5029.86206430082
0.35400390625	0.010986328125	5029.9505653006
0.358428955078125	0.01109619140625	5030.03906630037
0.36285400390625	0.0112030029296875	5030.12756730015
0.367279052734375	0.0113067626953125	5030.21606829993
0.3717041015625	0.0114105224609375	5030.3045692997
0.376129150390625	0.0115081787109375	5030.39307029948
0.38055419921875	0.01160888671875	5030.48157129925
0.384979248046875	0.0117034912109375	5030.57007229903
0.389404296875	0.0118011474609375	5030.65857329881
0.393829345703125	0.0118927001953125	5030.74707429858
0.39825439453125	0.0119873046875	5030.83557529836
0.402679443359375	0.012078857421875	5030.92407629814
0.4071044921875	0.0121673583984375	5031.01257729791
0.411529541015625	0.012255859375	5031.10107829769
0.41595458984375	0.0123443603515625	5031.18957929747
0.420379638671875	0.0124298095703125	5031.27808029724
0.4248046875	0.0125152587890625	5031.36658129702
0.429229736328125	0.01259765625	5031.4550822968
0.43365478515625	0.0126800537109375	5031.54358329657
0.438079833984375	0.012762451171875	5031.63208429635
0.4425048828125	0.012841796875	5031.72058529613
0.446929931640625	0.012921142578125	5031.8090862959
0.45135498046875	0.01300048828125	5031.89758729568
0.455780029296875	0.013079833984375	5031.98608829546
0.460205078125	0.0131561279296875	5032.07458929523
0.464630126953125	0.0132293701171875	5032.16309029501
0.46905517578125	0.0133026123046875	5032.25159129479
0.473480224609375	0.0133758544921875	5032.34009229456
0.4779052734375	0.0134521484375	5032.42859329434
0.482330322265625	0.0135223388671875	5032.51709429412
0.48675537109375	0.013592529296875	5032.60559529389
0.491180419921875	0.0136627197265625	5032.69409629367
0.49560546875	0.01373291015625	5032.78259729345
0.500030517578125	0.013800048828125	5032.87109829322
0.50445556640625	0.0138702392578125	5032.959599293
0.508880615234375	0.0139373779296875	5033.04810029278
0.5133056640625	0.01400146484375	5033.13660129255
0.517730712890625	0.0140655517578125	5033.22510229233
0.52215576171875	0.0141265869140625	5033.3136032921
0.526580810546875	0.014190673828125	5033.40210429188
0.531005859375	0.0142547607421875	5033.49060529166
0.535430908203125	0.01431884765625	5033.57910629143
0.53985595703125	0.0143798828125	5033.66760729121
0.544281005859375	0.0144378662109375	5033.75610829099
0.5487060546875	0.0144989013671875	5033.84460929076
0.553131103515625	0.014556884765625	5033.93311029054
0.55755615234375	0.014617919921875	5034.02161129032
0.561981201171875	0.0146759033203125	5034.11011229009
0.56640625	0.0147308349609375	5034.19861328987
0.570831298828125	0.0147857666015625	5034.28711428965
0.57525634765625	0.0148406982421875	5034.37561528942
0.579681396484375	0.0148956298828125	5034.4641162892
0.5841064453125	0.0149505615234375	5034.55261728898
0.588531494140625	0.01500244140625	5034.64111828875
0.59295654296875	0.0150543212890625	5034.72961928853
0.597381591796875	0.0151092529296875	5034.81812028831
0.601806640625	0.0151580810546875	5034.90662128808
0.606231689453125	0.0152099609375	5034.99512228786
0.61065673828125	0.0152587890625	5035.08362328764
0.615081787109375	0.0153076171875	5035.17212428741
0.6195068359375	0.0153564453125	5035.26062528719
0.623931884765625	0.0154022216796875	5035.34912628697
0.62835693359375	0.0154541015625	5035.43762728674
0.632781982421875	0.0154998779296875	5035.52612828652
0.63720703125	0.0155426025390625	5035.61462928629
0.641632080078125	0.01558837890625	5035.70313028607
0.64605712890625	0.0156280517578125	5035.79163128585
0.650482177734375	0.0156707763671875	5035.88013228563
0.6549072265625	0.0157073974609375	5035.9686332854
0.659332275390625	0.0157470703125	5036.05713428518
0.66375732421875	0.0157867431640625	5036.14563528495
0.668182373046875	0.0158233642578125	5036.23413628473
0.672607421875	0.0158599853515625	5036.32263728451
0.677032470703125	0.0158966064453125	5036.41113828428
0.68145751953125	0.01593017578125	5036.49963928406
0.685882568359375	0.0159637451171875	5036.58814028384
0.6903076171875	0.0159942626953125	5036.67664128361
0.694732666015625	0.01602783203125	5036.76514228339
0.69915771484375	0.0160614013671875	5036.85364328317
0.703582763671875	0.0160888671875	5036.94214428294
0.7080078125	0.016119384765625	5037.03064528272
0.712432861328125	0.0161468505859375	5037.1191462825
0.71685791015625	0.01617431640625	5037.20764728227
0.721282958984375	0.0162017822265625	5037.29614828205
0.7257080078125	0.016229248046875	5037.38464928183
0.730133056640625	0.016253662109375	5037.4731502816
0.73455810546875	0.016278076171875	5037.56165128138
0.738983154296875	0.0162994384765625	5037.65015228116
0.743408203125	0.01632080078125	5037.73865328093
0.747833251953125	0.01634521484375	5037.82715428071
0.75225830078125	0.0163665771484375	5037.91565528049
0.756683349609375	0.016387939453125	5038.00415628026
0.7611083984375	0.01640625	5038.09265728004
0.765533447265625	0.0164276123046875	5038.18115827982
0.76995849609375	0.0164459228515625	5038.26965927959
0.774383544921875	0.0164642333984375	5038.35816027937
0.77880859375	0.016485595703125	5038.44666127914
0.783233642578125	0.0165008544921875	5038.53516227892
0.78765869140625	0.0165191650390625	5038.6236632787
0.792083740234375	0.0165374755859375	5038.71216427848
0.7965087890625	0.016552734375	5038.80066527825
0.800933837890625	0.016571044921875	5038.88916627803
0.80535888671875	0.01658935546875	5038.9776672778
0.809783935546875	0.0166046142578125	5039.06616827758
0.814208984375	0.0166229248046875	5039.15466927736
0.818634033203125	0.01663818359375	5039.24317027713
0.82305908203125	0.0166534423828125	5039.33167127691
0.827484130859375	0.016668701171875	5039.42017227669
0.8319091796875	0.01668701171875	5039.50867327646
0.836334228515625	0.0167022705078125	5039.59717427624
0.84075927734375	0.016717529296875	5039.68567527602
0.845184326171875	0.0167327880859375	5039.77417627579
0.849609375	0.016748046875	5039.86267727557
0.854034423828125	0.016766357421875	5039.95117827535
0.85845947265625	0.01678466796875	5040.03967927512
0.862884521484375	0.0167999267578125	5040.1281802749
0.8673095703125	0.016815185546875	5040.21668127468
0.871734619140625	0.01683349609375	5040.30518227445
0.87615966796875	0.016851806640625	5040.39368327423
0.880584716796875	0.0168701171875	5040.48218427401
0.885009765625	0.016888427734375	5040.57068527378
0.889434814453125	0.01690673828125	5040.65918627356
0.89385986328125	0.016925048828125	5040.74768727334
0.898284912109375	0.016943359375	5040.83618827311
0.9027099609375	0.016961669921875	5040.92468927289
0.907135009765625	0.016986083984375	5041.01319027267
0.91156005859375	0.0170074462890625	5041.10169127244
0.915985107421875	0.0170318603515625	5041.19019227222
0.92041015625	0.01705322265625	5041.27869327199
0.924835205078125	0.0170806884765625	5041.36719427177
0.92926025390625	0.0171051025390625	5041.45569527155
0.933685302734375	0.017132568359375	5041.54419627132
0.9381103515625	0.0171661376953125	5041.6326972711
0.942535400390625	0.017193603515625	5041.72119827088
0.94696044921875	0.01722412109375	5041.80969927065
0.951385498046875	0.0172576904296875	5041.89820027043
0.955810546875	0.017291259765625	5041.98670127021
0.960235595703125	0.017327880859375	5042.07520226998
0.96466064453125	0.017364501953125	5042.16370326976
0.969085693359375	0.0174072265625	5042.25220426954
0.9735107421875	0.017449951171875	5042.34070526931
0.977935791015625	0.0174896240234375	5042.42920626909
0.98236083984375	0.0175384521484375	5042.51770726887
0.986785888671875	0.0175872802734375	5042.60620826864
0.9912109375	0.01763916015625	5042.69470926842
0.995635986328125	0.0176910400390625	5042.7832102682
1.00006103515625	0.0177520751953125	5042.87171126797
0.995635986328125	0.016802978515625	5042.96021226775
0.9912109375	0.015899658203125	5043.04871326753
0.986785888671875	0.0150360107421875	5043.1372142673
0.98236083984375	0.0142059326171875	5043.22571526708
0.977935791015625	0.0134124755859375	5043.31421626686
0.9735107421875	0.012646484375	5043.40271726663
0.969085693359375	0.0119049072265625	5043.49121826641
0.96466064453125	0.011187744140625	5043.57971926618
0.960235595703125	0.0104949951171875	5043.66822026596
0.955810546875	0.0098236083984375	5043.75672126574
0.951385498046875	0.009173583984375	5043.84522226552
0.94696044921875	0.0085418701171875	5043.93372326529
0.942535400390625	0.0079254150390625	5044.02222426507
0.9381103515625	0.0073333740234375	5044.11072526484
0.933685302734375	0.00675048828125	5044.19922626462
0.92926025390625	0.0061859130859375	5044.2877272644
0.924835205078125	0.0056365966796875	5044.37622826417
0.92041015625	0.0051055908203125	5044.46472926395
0.915985107421875	0.0045855712890625	5044.55323026373
0.91156005859375	0.00407958984375	5044.6417312635
0.907135009765625	0.00358642578125	5044.73023226328
0.9027099609375	0.00310638427734375	5044.81873326306
0.898284912109375	0.0026385498046875	5044.90723426283
0.89385986328125	0.0021844482421875	5044.99573526261
0.889434814453125	0.00173858642578125	5045.08423626239
0.885009765625	0.00130401611328125	5045.17273726216
0.880584716796875	0.00088043212890625	5045.26123826194
0.87615966796875	0.000467254638671875	5045.34973926172
0.871734619140625	6.4453125E-05	5045.43824026149
0.8673095703125	-0.000328765869140625	5045.52674126127
0.862884521484375	-0.00071258544921875	5045.61524226105
0.85845947265625	-0.001085205078125	5045.70374326082
0.854034423828125	-0.00144989013671875	5045.7922442606
0.849609375	-0.001806640625	5045.88074526038
0.845184326171875	-0.00215362548828125	5045.96924626015
0.84075927734375	-0.00249237060546875	5046.05774725993
0.836334228515625	-0.00282196044921875	5046.14624825971
0.8319091796875	-0.00314453125	5046.23474925948
0.827484130859375	-0.003458251953125	5046.32325025926
0.82305908203125	-0.00376373291015625	5046.41175125903
0.818634033203125	-0.0040618896484375	5046.50025225881
0.814208984375	-0.00435211181640625	5046.58875325859
0.809783935546875	-0.00463470458984375	5046.67725425836
0.80535888671875	-0.0049102783203125	5046.76575525814
0.800933837890625	-0.00517852783203125	5046.85425625792
0.7965087890625	-0.0054400634765625	5046.94275725769
0.792083740234375	-0.00569366455078125	5047.03125825747
0.78765869140625	-0.00594146728515625	5047.11975925725
0.783233642578125	-0.006182861328125	5047.20826025702
0.77880859375	-0.0063934326171875	5047.2967612568
0.774383544921875	-0.006622314453125	5047.38526225658
0.76995849609375	-0.0068450927734375	5047.47376325635
0.765533447265625	-0.0070587158203125	5047.56226425613
0.7611083984375	-0.007269287109375	5047.65076525591
0.756683349609375	-0.0074737548828125	5047.73926625568
0.75225830078125	-0.0076751708984375	5047.82776725546
0.747833251953125	-0.0078643798828125	5047.91626825524
0.743408203125	-0.008050537109375	5048.00476925501
0.738983154296875	-0.0082305908203125	5048.09327025479
0.73455810546875	-0.00841064453125	5048.18177125457
0.730133056640625	-0.00858154296875	5048.27027225434
0.7257080078125	-0.0087493896484375	5048.35877325412
0.721282958984375	-0.0089111328125	5048.4472742539
0.71685791015625	-0.0090728759765625	5048.53577525367
0.712432861328125	-0.0092254638671875	5048.62427625345
0.7080078125	-0.009375	5048.71277725323
0.703582763671875	-0.0095184326171875	5048.801278253
0.69915771484375	-0.009661865234375	5048.88977925278
0.694732666015625	-0.0097991943359375	5048.97828025256
0.6903076171875	-0.009930419921875	5049.06678125233
0.685882568359375	-0.0100616455078125	5049.15528225211
0.68145751953125	-0.010186767578125	5049.24378325188
0.677032470703125	-0.01031494140625	5049.33228425166
0.672607421875	-0.01043701171875	5049.42078525144
0.668182373046875	-0.010552978515625	5049.50928625121
0.66375732421875	-0.0106658935546875	5049.59778725099
0.659332275390625	-0.0107757568359375	5049.68628825077
0.6549072265625	-0.0108856201171875	5049.77478925054
0.650482177734375	-0.010986328125	5049.86329025032
0.64605712890625	-0.0110870361328125	5049.9517912501
0.641632080078125	-0.011187744140625	5050.04029224987
0.63720703125	-0.0112823486328125	5050.12879324965
0.632781982421875	-0.011376953125	5050.21729424943
0.62835693359375	-0.0114654541015625	5050.3057952492
0.623931884765625	-0.0115631103515625	5050.39429624898
0.6195068359375	-0.011651611328125	5050.48279724876
0.615081787109375	-0.011737060546875	5050.57129824853
0.61065673828125	-0.0118194580078125	5050.65979924831
0.606231689453125	-0.01190185546875	5050.74830024809
0.601806640625	-0.011981201171875	5050.83680124786
0.597381591796875	-0.012060546875	5050.92530224764
0.59295654296875	-0.0121368408203125	5051.01380324742
0.588531494140625	-0.012213134765625	5051.10230424719
0.5841064453125	-0.0122833251953125	5051.19080524697
0.579681396484375	-0.0123565673828125	5051.27930624675
0.57525634765625	-0.0124267578125	5051.36780724652
0.570831298828125	-0.012493896484375	5051.4563082463
0.56640625	-0.0125640869140625	5051.54480924608
0.561981201171875	-0.0126312255859375	5051.63331024585
0.55755615234375	-0.0126983642578125	5051.72181124563
0.553131103515625	-0.012762451171875	5051.8103122454
0.5487060546875	-0.0128265380859375	5051.89881324518
0.544281005859375	-0.0128875732421875	5051.98731424496
0.53985595703125	-0.01295166015625	5052.07581524473
0.535430908203125	-0.0130157470703125	5052.16431624451
0.531005859375	-0.0130767822265625	5052.25281724429
0.526580810546875	-0.0131378173828125	5052.34131824406
0.52215576171875	-0.0131988525390625	5052.42981924384
0.517730712890625	-0.0132568359375	5052.51832024362
0.5133056640625	-0.0133148193359375	5052.60682124339
0.508880615234375	-0.013372802734375	5052.69532224317
0.50445556640625	-0.0134307861328125	5052.78382324295
0.500030517578125	-0.0134918212890625	5052.87232424272
0.49560546875	-0.0135467529296875	5052.9608252425
0.491180419921875	-0.0136016845703125	5053.04932624228
0.48675537109375	-0.0136566162109375	5053.13782724205
0.482330322265625	-0.013714599609375	5053.22632824183
0.4779052734375	-0.0137725830078125	5053.31482924161
0.473480224609375	-0.0138275146484375	5053.40333024138
0.46905517578125	-0.0138824462890625	5053.49183124116
0.464630126953125	-0.0139373779296875	5053.58033224094
0.460205078125	-0.0139923095703125	5053.66883324071
0.455780029296875	-0.0140472412109375	5053.75733424049
0.45135498046875	-0.01409912109375	5053.84583524027
0.446929931640625	-0.0141510009765625	5053.93433624004
0.4425048828125	-0.0142059326171875	5054.02283723982
0.438079833984375	-0.0142608642578125	5054.1113382396
0.43365478515625	-0.014312744140625	5054.19983923937
0.429229736328125	-0.01436767578125	5054.28834023915
0.4248046875	-0.0144256591796875	5054.37684123893
0.420379638671875	-0.0144775390625	5054.4653422387
0.41595458984375	-0.014532470703125	5054.55384323848
0.411529541015625	-0.01458740234375	5054.64234423825
0.4071044921875	-0.014642333984375	5054.73084523803
0.402679443359375	-0.014697265625	5054.81934623781
0.39825439453125	-0.014752197265625	5054.90784723758
0.393829345703125	-0.01480712890625	5054.99634823736
0.389404296875	-0.0148590087890625	5055.08484923714
0.384979248046875	-0.0149139404296875	5055.17335023691
0.38055419921875	-0.0149688720703125	5055.26185123669
0.376129150390625	-0.0150238037109375	5055.35035223647
0.3717041015625	-0.015081787109375	5055.43885323624
0.367279052734375	-0.01513671875	5055.52735423602
0.36285400390625	-0.0151885986328125	5055.6158552358
0.358428955078125	-0.0152435302734375	5055.70435623557
0.35400390625	-0.015301513671875	5055.79285723535
0.349578857421875	-0.0153533935546875	5055.88135823513
0.34515380859375	-0.0154083251953125	5055.9698592349
0.340728759765625	-0.0154632568359375	5056.05836023468
0.3363037109375	-0.0155181884765625	5056.14686123446
0.331878662109375	-0.015570068359375	5056.23536223423
0.32745361328125	-0.0156219482421875	5056.32386323401
0.323028564453125	-0.015673828125	5056.41236423379
0.318603515625	-0.015728759765625	5056.50086523356
0.314178466796875	-0.01578369140625	5056.58936623334
0.30975341796875	-0.015838623046875	5056.67786723312
0.305328369140625	-0.0158905029296875	5056.76636823289
0.3009033203125	-0.0159423828125	5056.85486923267
0.296478271484375	-0.0159942626953125	5056.94337023244
0.29205322265625	-0.0160430908203125	5057.03187123222
0.287628173828125	-0.016094970703125	5057.120372232
0.283203125	-0.016143798828125	5057.20887323178
0.278778076171875	-0.016192626953125	5057.29737423155
0.27435302734375	-0.0162353515625	5057.38587523133
0.269927978515625	-0.0162811279296875	5057.4743762311
0.2655029296875	-0.016326904296875	5057.56287723088
0.261077880859375	-0.016375732421875	5057.65137823066
0.25665283203125	-0.01641845703125	5057.73987923043
0.252227783203125	-0.016461181640625	5057.82838023021
0.247802734375	-0.0165008544921875	5057.91688122999
0.243377685546875	-0.01654052734375	5058.00538222976
0.23895263671875	-0.0165802001953125	5058.09388322954
0.234527587890625	-0.0166229248046875	5058.18238422932
0.2301025390625	-0.0166595458984375	5058.27088522909
0.225677490234375	-0.0166961669921875	5058.35938622887
0.22125244140625	-0.016729736328125	5058.44788722865
0.216827392578125	-0.016766357421875	5058.53638822842
0.21240234375	-0.0167999267578125	5058.6248892282
0.207977294921875	-0.01683349609375	5058.71339022798
0.20355224609375	-0.0168670654296875	5058.80189122775
0.199127197265625	-0.0168975830078125	5058.89039222753
0.1947021484375	-0.016925048828125	5058.97889322731
0.190277099609375	-0.0169525146484375	5059.06739422708
0.18585205078125	-0.01697998046875	5059.15589522686
0.181427001953125	-0.0170074462890625	5059.24439622664
0.177001953125	-0.017034912109375	5059.33289722641
0.172576904296875	-0.0170562744140625	5059.42139822619
0.16815185546875	-0.0170806884765625	5059.50989922597
0.163726806640625	-0.01710205078125	5059.59840022574
0.1593017578125	-0.0171234130859375	5059.68690122552
0.154876708984375	-0.017144775390625	5059.77540222529
0.15045166015625	-0.0171630859375	5059.86390322507
0.146026611328125	-0.0171844482421875	5059.95240422485
0.1416015625	-0.01719970703125	5060.04090522463
0.137176513671875	-0.0172149658203125	5060.1294062244
0.13275146484375	-0.017230224609375	5060.21790722418
0.128326416015625	-0.01724853515625	5060.30640822395
0.1239013671875	-0.0172637939453125	5060.39490922373
0.119476318359375	-0.017279052734375	5060.48341022351
0.11505126953125	-0.0172882080078125	5060.57191122328
0.110626220703125	-0.0173004150390625	5060.66041222306
0.106201171875	-0.0173126220703125	5060.74891322284
0.101776123046875	-0.0173248291015625	5060.83741422261
0.09735107421875	-0.0173370361328125	5060.92591522239
0.092926025390625	-0.0173492431640625	5061.01441622217
0.0885009765625	-0.0173583984375	5061.10291722194
0.084075927734375	-0.0173675537109375	5061.19141822172
0.07965087890625	-0.017376708984375	5061.2799192215
0.075225830078125	-0.0173858642578125	5061.36842022127
0.07080078125	-0.01739501953125	5061.45692122105
0.066375732421875	-0.0174041748046875	5061.54542222083
0.06195068359375	-0.017413330078125	5061.6339232206
0.057525634765625	-0.0174224853515625	5061.72242422038
0.0531005859375	-0.0174285888671875	5061.81092522016
0.048675537109375	-0.017437744140625	5061.89942621993
0.04425048828125	-0.01744384765625	5061.98792721971
0.039825439453125	-0.0174560546875	5062.07642821949
0.035400390625	-0.017462158203125	5062.16492921926
0.030975341796875	-0.01746826171875	5062.25343021904
0.02655029296875	-0.0174774169921875	5062.34193121882
0.022125244140625	-0.017486572265625	5062.43043221859
0.0177001953125	-0.0174957275390625	5062.51893321837
0.013275146484375	-0.0175048828125	5062.60743421814
0.00885009765625	-0.0175140380859375	5062.69593521792
0.004425048828125	-0.017523193359375	5062.7844362177
0	-0.017535400390625	5062.87293721747
0.004425048828125	-0.0165557861328125	5062.96143821725
0.00885009765625	-0.0156219482421875	5063.04993921703
0.013275146484375	-0.0147308349609375	5063.1384402168
0.0177001953125	-0.013873291015625	5063.22694121658
0.022125244140625	-0.0130462646484375	5063.31544221636
0.02655029296875	-0.012249755859375	5063.40394321613
0.030975341796875	-0.0114837646484375	5063.49244421591
0.035400390625	-0.0107452392578125	5063.58094521569
0.039825439453125	-0.0100311279296875	5063.66944621546
0.04425048828125	-0.0093414306640625	5063.75794721524
0.048675537109375	-0.0086700439453125	5063.84644821502
0.0531005859375	-0.0080230712890625	5063.93494921479
0.057525634765625	-0.0074005126953125	5064.02345021457
0.06195068359375	-0.0067962646484375	5064.11195121435
0.066375732421875	-0.0062103271484375	5064.20045221412
0.07080078125	-0.0056396484375	5064.2889532139
0.075225830078125	-0.0050872802734375	5064.37745421368
0.07965087890625	-0.0045562744140625	5064.46595521345
0.084075927734375	-0.0040374755859375	5064.55445621323
0.0885009765625	-0.00353515625	5064.64295721301
0.092926025390625	-0.00304718017578125	5064.73145821278
0.09735107421875	-0.00257415771484375	5064.81995921256
0.101776123046875	-0.0021234130859375	5064.90846021234
0.106201171875	-0.00167633056640625	5064.99696121211
0.110626220703125	-0.001241455078125	5065.08546221189
0.11505126953125	-0.0008203125	5065.17396321167
0.119476318359375	-0.0004130859375	5065.26246421144
0.1239013671875	-1.47491455078125E-05	5065.35096521122
0.128326416015625	0.00037188720703125	5065.43946621099
0.13275146484375	0.000748291015625	5065.52796721077
0.137176513671875	0.0011138916015625	5065.61646821055
0.1416015625	0.0014697265625	5065.70496921032
0.146026611328125	0.001815185546875	5065.7934702101
0.15045166015625	0.00215087890625	5065.88197120988
0.154876708984375	0.0024786376953125	5065.97047220965
0.1593017578125	0.00279541015625	5066.05897320943
0.163726806640625	0.0031048583984375	5066.14747420921
0.16815185546875	0.00340545654296875	5066.23597520898
0.172576904296875	0.00369842529296875	5066.32447620876
0.177001953125	0.00398284912109375	5066.41297720854
0.181427001953125	0.0042596435546875	5066.50147820831
0.18585205078125	0.00452880859375	5066.58997920809
0.190277099609375	0.00479034423828125	5066.67848020787
0.1947021484375	0.0050439453125	5066.76698120764
0.199127197265625	0.00529205322265625	5066.85548220742
0.20355224609375	0.0055340576171875	5066.9439832072
0.207977294921875	0.0057708740234375	5067.03248420697
0.21240234375	0.00600067138671875	5067.12098520675
0.216827392578125	0.0062164306640625	5067.20948620653
0.22125244140625	0.00643310546875	5067.2979872063
0.225677490234375	0.0066436767578125	5067.38648820608
0.2301025390625	0.0068511962890625	5067.47498920586
0.234527587890625	0.007049560546875	5067.56349020563
0.23895263671875	0.007244873046875	5067.65199120541
0.243377685546875	0.0074371337890625	5067.74049220519
0.247802734375	0.007623291015625	5067.82899320496
0.252227783203125	0.0078033447265625	5067.91749420474
0.25665283203125	0.007977294921875	5068.00599520451
0.261077880859375	0.008148193359375	5068.09449620429
0.2655029296875	0.0083160400390625	5068.18299720407
0.269927978515625	0.00848388671875	5068.27149820384
0.27435302734375	0.008642578125	5068.35999920362
0.278778076171875	0.00880126953125	5068.4485002034
0.283203125	0.008953857421875	5068.53700120317
0.287628173828125	0.0091064453125	5068.62550220295
0.29205322265625	0.0092529296875	5068.71400320273
0.296478271484375	0.0093963623046875	5068.8025042025
0.3009033203125	0.0095367431640625	5068.89100520228
0.305328369140625	0.009674072265625	5068.97950620206
0.30975341796875	0.009808349609375	5069.06800720183
0.314178466796875	0.009942626953125	5069.15650820161
0.318603515625	0.01007080078125	5069.24500920139
0.323028564453125	0.01019287109375	5069.33351020116
0.32745361328125	0.01031494140625	5069.42201120094
0.331878662109375	0.01043701171875	5069.51051220072
0.3363037109375	0.01055908203125	5069.59901320049
0.340728759765625	0.010675048828125	5069.68751420027
0.34515380859375	0.0107879638671875	5069.77601520005
0.349578857421875	0.01090087890625	5069.86451619982
0.35400390625	0.0110015869140625	5069.9530171996
0.358428955078125	0.0111114501953125	5070.04151819938
0.36285400390625	0.01121826171875	5070.13001919915
0.367279052734375	0.011322021484375	5070.21852019893
0.3717041015625	0.0114227294921875	5070.30702119871
0.376129150390625	0.0115234375	5070.39552219848
0.38055419921875	0.01162109375	5070.48402319826
0.384979248046875	0.01171875	5070.57252419804
0.389404296875	0.0118133544921875	5070.66102519781
0.393829345703125	0.0119049072265625	5070.74952619759
0.39825439453125	0.01199951171875	5070.83802719736
0.402679443359375	0.012091064453125	5070.92652819714
0.4071044921875	0.0121795654296875	5071.01502919692
0.411529541015625	0.01226806640625	5071.10353019669
0.41595458984375	0.0123565673828125	5071.19203119647
0.420379638671875	0.0124420166015625	5071.28053219625
0.4248046875	0.0125244140625	5071.36903319602
0.429229736328125	0.0126068115234375	5071.4575341958
0.43365478515625	0.012689208984375	5071.54603519558
0.438079833984375	0.0127685546875	5071.63453619535
0.4425048828125	0.012847900390625	5071.72303719513
0.446929931640625	0.0129302978515625	5071.81153819491
0.45135498046875	0.013006591796875	5071.90003919468
0.455780029296875	0.0130859375	5071.98854019446
0.460205078125	0.0131622314453125	5072.07704119424
0.464630126953125	0.013238525390625	5072.16554219401
0.46905517578125	0.0133087158203125	5072.25404319379
0.473480224609375	0.013385009765625	5072.34254419357
0.4779052734375	0.013458251953125	5072.43104519334
0.482330322265625	0.0135284423828125	5072.51954619312
0.48675537109375	0.0135986328125	5072.6080471929
0.491180419921875	0.0136688232421875	5072.69654819267
0.49560546875	0.0137359619140625	5072.78504919245
0.500030517578125	0.01380615234375	5072.87355019223
0.50445556640625	0.013873291015625	5072.962051192
0.508880615234375	0.0139404296875	5073.05055219178
0.5133056640625	0.0140045166015625	5073.13905319155
0.517730712890625	0.0140655517578125	5073.22755419133
0.52215576171875	0.014129638671875	5073.31605519111
0.526580810546875	0.014190673828125	5073.40455619089
0.531005859375	0.0142547607421875	5073.49305719066
0.535430908203125	0.0143157958984375	5073.58155819044
0.53985595703125	0.0143768310546875	5073.67005919021
0.544281005859375	0.0144378662109375	5073.75856018999
0.5487060546875	0.014495849609375	5073.84706118977
0.553131103515625	0.014556884765625	5073.93556218954
0.55755615234375	0.0146148681640625	5074.02406318932
0.561981201171875	0.0146728515625	5074.1125641891
0.56640625	0.014727783203125	5074.20106518887
0.570831298828125	0.01478271484375	5074.28956618865
0.57525634765625	0.014837646484375	5074.37806718843
0.579681396484375	0.014892578125	5074.4665681882
0.5841064453125	0.014947509765625	5074.55506918798
0.588531494140625	0.0149993896484375	5074.64357018776
0.59295654296875	0.01505126953125	5074.73207118753
0.597381591796875	0.01510009765625	5074.82057218731
0.601806640625	0.0151519775390625	5074.90907318709
0.606231689453125	0.015203857421875	5074.99757418686
0.61065673828125	0.015252685546875	5075.08607518664
0.615081787109375	0.015301513671875	5075.17457618642
0.6195068359375	0.0153472900390625	5075.26307718619
0.623931884765625	0.01539306640625	5075.35157818597
0.62835693359375	0.0154449462890625	5075.44007918575
0.632781982421875	0.01549072265625	5075.52858018552
0.63720703125	0.015533447265625	5075.6170811853
0.641632080078125	0.015576171875	5075.70558218508
0.64605712890625	0.015618896484375	5075.79408318485
0.650482177734375	0.015655517578125	5075.88258418463
0.6549072265625	0.0156951904296875	5075.9710851844
0.659332275390625	0.0157379150390625	5076.05958618418
0.66375732421875	0.0157745361328125	5076.14808718396
0.668182373046875	0.0158111572265625	5076.23658818373
0.672607421875	0.0158477783203125	5076.32508918351
0.677032470703125	0.01588134765625	5076.41359018329
0.68145751953125	0.0159149169921875	5076.50209118306
0.685882568359375	0.015948486328125	5076.59059218284
0.6903076171875	0.015985107421875	5076.67909318262
0.694732666015625	0.016015625	5076.76759418239
0.69915771484375	0.016046142578125	5076.85609518217
0.703582763671875	0.0160736083984375	5076.94459618195
0.7080078125	0.01610107421875	5077.03309718172
0.712432861328125	0.016131591796875	5077.1215981815
0.71685791015625	0.0161590576171875	5077.21009918128
0.721282958984375	0.0161865234375	5077.29860018105
0.7257080078125	0.0162109375	5077.38710118083
0.730133056640625	0.0162353515625	5077.47560218061
0.73455810546875	0.016259765625	5077.56410318038
0.738983154296875	0.0162841796875	5077.65260418016
0.743408203125	0.016302490234375	5077.74110517994
0.747833251953125	0.016326904296875	5077.82960617971
0.75225830078125	0.0163482666015625	5077.91810717949
0.756683349609375	0.01636962890625	5078.00660817927
0.7611083984375	0.016387939453125	5078.09510917904
0.765533447265625	0.01640625	5078.18361017882
0.76995849609375	0.0164276123046875	5078.2721111786
0.774383544921875	0.016448974609375	5078.36061217837
0.77880859375	0.0164642333984375	5078.44911317815
0.783233642578125	0.0164825439453125	5078.53761417793
0.78765869140625	0.0165008544921875	5078.6261151777
0.792083740234375	0.01651611328125	5078.71461617748
0.7965087890625	0.016534423828125	5078.80311717725
0.800933837890625	0.016552734375	5078.89161817703
0.80535888671875	0.0165679931640625	5078.98011917681
0.809783935546875	0.0165863037109375	5079.06862017658
0.814208984375	0.0165985107421875	5079.15712117636
0.818634033203125	0.0166168212890625	5079.24562217614
0.82305908203125	0.016632080078125	5079.33412317591
0.827484130859375	0.0166473388671875	5079.42262417569
0.8319091796875	0.0166656494140625	5079.51112517547
0.836334228515625	0.016680908203125	5079.59962617524
0.84075927734375	0.0166961669921875	5079.68812717502
0.845184326171875	0.01671142578125	5079.7766281748
0.849609375	0.0167266845703125	5079.86512917457
0.854034423828125	0.016741943359375	5079.95363017435
0.85845947265625	0.01676025390625	5080.04213117413
0.862884521484375	0.0167755126953125	5080.1306321739
0.8673095703125	0.016790771484375	5080.21913317368
0.871734619140625	0.0168060302734375	5080.30763417346
0.87615966796875	0.0168243408203125	5080.39613517323
0.880584716796875	0.0168426513671875	5080.48463617301
0.885009765625	0.016864013671875	5080.57313717279
0.889434814453125	0.01688232421875	5080.66163817256
0.89385986328125	0.016900634765625	5080.75013917234
0.898284912109375	0.0169189453125	5080.83864017212
0.9027099609375	0.016937255859375	5080.92714117189
0.907135009765625	0.016961669921875	5081.01564217167
0.91156005859375	0.01697998046875	5081.10414317145
0.915985107421875	0.01700439453125	5081.19264417122
0.92041015625	0.01702880859375	5081.281145171
0.924835205078125	0.01705322265625	5081.36964617078
0.92926025390625	0.01707763671875	5081.45814717055
0.933685302734375	0.017108154296875	5081.54664817033
0.9381103515625	0.017138671875	5081.6351491701
0.942535400390625	0.017169189453125	5081.72365016988
0.94696044921875	0.01719970703125	5081.81215116966
0.951385498046875	0.017230224609375	5081.90065216943
0.955810546875	0.0172637939453125	5081.98915316921
0.960235595703125	0.0173004150390625	5082.07765416899
0.96466064453125	0.017340087890625	5082.16615516876
0.969085693359375	0.0173797607421875	5082.25465616854
0.9735107421875	0.0174224853515625	5082.34315716832
0.977935791015625	0.017462158203125	5082.43165816809
0.98236083984375	0.017510986328125	5082.52015916787
0.986785888671875	0.017559814453125	5082.60866016765
0.9912109375	0.01761474609375	5082.69716116742
