Potential applied (V)	WE(1).Current (A)	Time (s)
0.004425048828125	-0.0990203857421875	5155.74786198299
0.00885009765625	-0.0966583251953125	5155.76998698293
0.013275146484375	-0.0945220947265625	5155.79211198288
0.0177001953125	-0.0925689697265625	5155.81423698282
0.022125244140625	-0.0906890869140625	5155.83636198276
0.02655029296875	-0.08892822265625	5155.85848698271
0.030975341796875	-0.0872039794921875	5155.88061198265
0.035400390625	-0.0855682373046875	5155.9027369826
0.039825439453125	-0.0839691162109375	5155.92486198254
0.04425048828125	-0.082427978515625	5155.94698698249
0.048675537109375	-0.080926513671875	5155.96911198243
0.0531005859375	-0.07945556640625	5155.99123698237
0.057525634765625	-0.0780029296875	5156.01336198232
0.06195068359375	-0.0765716552734375	5156.03548698226
0.066375732421875	-0.07518310546875	5156.05761198221
0.07080078125	-0.0738128662109375	5156.07973698215
0.075225830078125	-0.0724761962890625	5156.10186198209
0.07965087890625	-0.071136474609375	5156.12398698204
0.084075927734375	-0.069854736328125	5156.14611198198
0.0885009765625	-0.0685638427734375	5156.16823698193
0.092926025390625	-0.0673126220703125	5156.19036198187
0.09735107421875	-0.0660736083984375	5156.21248698181
0.101776123046875	-0.0648651123046875	5156.23461198176
0.106201171875	-0.063671875	5156.2567369817
0.110626220703125	-0.0624847412109375	5156.27886198165
0.11505126953125	-0.061328125	5156.30098698159
0.119476318359375	-0.060186767578125	5156.32311198154
0.1239013671875	-0.059063720703125	5156.34523698148
0.128326416015625	-0.05794677734375	5156.36736198142
0.13275146484375	-0.0568603515625	5156.38948698137
0.137176513671875	-0.05577392578125	5156.41161198131
0.1416015625	-0.0547149658203125	5156.43373698126
0.146026611328125	-0.0536590576171875	5156.4558619812
0.15045166015625	-0.052630615234375	5156.47798698114
0.154876708984375	-0.05159912109375	5156.50011198109
0.1593017578125	-0.05059814453125	5156.52223698103
0.163726806640625	-0.0496002197265625	5156.54436198098
0.16815185546875	-0.048614501953125	5156.56648698092
0.172576904296875	-0.047650146484375	5156.58861198087
0.177001953125	-0.0466888427734375	5156.61073698081
0.181427001953125	-0.045745849609375	5156.63286198075
0.18585205078125	-0.0448028564453125	5156.6549869807
0.190277099609375	-0.04388427734375	5156.67711198064
0.1947021484375	-0.0429656982421875	5156.69923698059
0.199127197265625	-0.042071533203125	5156.72136198053
0.20355224609375	-0.04117431640625	5156.74348698047
0.207977294921875	-0.0402984619140625	5156.76561198042
0.21240234375	-0.0394256591796875	5156.78773698036
0.216827392578125	-0.038568115234375	5156.80986198031
0.22125244140625	-0.0377166748046875	5156.83198698025
0.225677490234375	-0.0368743896484375	5156.85411198019
0.2301025390625	-0.03604736328125	5156.87623698014
0.234527587890625	-0.0352203369140625	5156.89836198008
0.23895263671875	-0.0344146728515625	5156.92048698003
0.243377685546875	-0.0336029052734375	5156.94261197997
0.247802734375	-0.0328155517578125	5156.96473697992
0.252227783203125	-0.0320281982421875	5156.98686197986
0.25665283203125	-0.0312530517578125	5157.0089869798
0.261077880859375	-0.0304779052734375	5157.03111197975
0.2655029296875	-0.029718017578125	5157.05323697969
0.269927978515625	-0.02896728515625	5157.07536197964
0.27435302734375	-0.0282196044921875	5157.09748697958
0.278778076171875	-0.027484130859375	5157.11961197952
0.283203125	-0.026751708984375	5157.14173697947
0.287628173828125	-0.0260345458984375	5157.16386197941
0.29205322265625	-0.0253173828125	5157.18598697936
0.296478271484375	-0.024615478515625	5157.2081119793
0.3009033203125	-0.023907470703125	5157.23023697925
0.305328369140625	-0.0232208251953125	5157.25236197919
0.30975341796875	-0.0225311279296875	5157.27448697913
0.314178466796875	-0.0218505859375	5157.29661197908
0.318603515625	-0.021173095703125	5157.31873697902
0.323028564453125	-0.0205078125	5157.34086197897
0.32745361328125	-0.0198516845703125	5157.36298697891
0.331878662109375	-0.0191925048828125	5157.38511197885
0.3363037109375	-0.0185516357421875	5157.4072369788
0.340728759765625	-0.0179046630859375	5157.42936197874
0.34515380859375	-0.0172760009765625	5157.45148697869
0.349578857421875	-0.0166412353515625	5157.47361197863
0.35400390625	-0.01602783203125	5157.49573697858
0.358428955078125	-0.0154083251953125	5157.51786197852
0.36285400390625	-0.014801025390625	5157.53998697846
0.367279052734375	-0.014190673828125	5157.56211197841
0.3717041015625	-0.0135955810546875	5157.58423697835
0.376129150390625	-0.01300048828125	5157.6063619783
0.38055419921875	-0.0124114990234375	5157.62848697824
0.384979248046875	-0.0118255615234375	5157.65061197818
0.389404296875	-0.011248779296875	5157.67273697813
0.393829345703125	-0.01068115234375	5157.69486197807
0.39825439453125	-0.0101104736328125	5157.71698697802
0.402679443359375	-0.0095489501953125	5157.73911197796
0.4071044921875	-0.008990478515625	5157.7612369779
0.411529541015625	-0.008441162109375	5157.78336197785
0.41595458984375	-0.007891845703125	5157.80548697779
0.420379638671875	-0.0073516845703125	5157.82761197774
0.4248046875	-0.0068145751953125	5157.84973697768
0.429229736328125	-0.006280517578125	5157.87186197763
0.43365478515625	-0.0057525634765625	5157.89398697757
0.438079833984375	-0.0052276611328125	5157.91611197751
0.4425048828125	-0.00471221923828125	5157.93823697746
0.446929931640625	-0.00419769287109375	5157.9603619774
0.45135498046875	-0.00368865966796875	5157.98248697735
0.455780029296875	-0.00318328857421875	5158.00461197729
0.460205078125	-0.00268310546875	5158.02673697723
0.464630126953125	-0.0021954345703125	5158.04886197718
0.46905517578125	-0.00170379638671875	5158.07098697712
0.473480224609375	-0.00121490478515625	5158.09311197707
0.4779052734375	-0.00073089599609375	5158.11523697701
0.482330322265625	-0.000250396728515625	5158.13736197695
0.48675537109375	0.00022528076171875	5158.1594869769
0.491180419921875	0.000697021484375	5158.18161197684
0.49560546875	0.00116485595703125	5158.20373697679
0.500030517578125	0.00162994384765625	5158.22586197673
0.50445556640625	0.00209136962890625	5158.24798697668
0.508880615234375	0.00254730224609375	5158.27011197662
0.5133056640625	0.00299835205078125	5158.29223697656
0.517730712890625	0.0034454345703125	5158.31436197651
0.52215576171875	0.00388916015625	5158.33648697645
0.526580810546875	0.0043316650390625	5158.3586119764
0.531005859375	0.00476898193359375	5158.38073697634
0.535430908203125	0.00520416259765625	5158.40286197628
0.53985595703125	0.0056341552734375	5158.42498697623
0.544281005859375	0.006060791015625	5158.44711197617
0.5487060546875	0.0064697265625	5158.46923697612
0.553131103515625	0.006890869140625	5158.49136197606
0.55755615234375	0.007305908203125	5158.51348697601
0.561981201171875	0.0077178955078125	5158.53561197595
0.56640625	0.0081268310546875	5158.55773697589
0.570831298828125	0.0085296630859375	5158.57986197584
0.57525634765625	0.0089324951171875	5158.60198697578
0.579681396484375	0.009332275390625	5158.62411197573
0.5841064453125	0.0097259521484375	5158.64623697567
0.588531494140625	0.0101165771484375	5158.66836197561
0.59295654296875	0.0105072021484375	5158.69048697556
0.597381591796875	0.010894775390625	5158.7126119755
0.601806640625	0.0112701416015625	5158.73473697545
0.606231689453125	0.011651611328125	5158.75686197539
0.61065673828125	0.0120208740234375	5158.77898697534
0.615081787109375	0.0123931884765625	5158.80111197528
0.6195068359375	0.0127532958984375	5158.82323697522
0.623931884765625	0.0131195068359375	5158.84536197517
0.62835693359375	0.01348876953125	5158.86748697511
0.632781982421875	0.0138519287109375	5158.88961197506
0.63720703125	0.0141998291015625	5158.911736975
0.641632080078125	0.014556884765625	5158.93386197494
0.64605712890625	0.01490478515625	5158.95598697489
0.650482177734375	0.015252685546875	5158.97811197483
0.6549072265625	0.0155975341796875	5159.00023697478
0.659332275390625	0.0159332275390625	5159.02236197472
0.66375732421875	0.0162750244140625	5159.04448697466
0.668182373046875	0.0166046142578125	5159.06661197461
0.672607421875	0.0169403076171875	5159.08873697455
0.677032470703125	0.0172637939453125	5159.1108619745
0.68145751953125	0.017596435546875	5159.13298697444
0.685882568359375	0.0179168701171875	5159.15511197439
0.6903076171875	0.0182403564453125	5159.17723697433
0.694732666015625	0.0185577392578125	5159.19936197427
0.69915771484375	0.0188720703125	5159.22148697422
0.703582763671875	0.0191864013671875	5159.24361197416
0.7080078125	0.0194976806640625	5159.26573697411
0.712432861328125	0.019805908203125	5159.28786197405
0.71685791015625	0.0201141357421875	5159.30998697399
0.721282958984375	0.020416259765625	5159.33211197394
0.7257080078125	0.0207122802734375	5159.35423697388
0.730133056640625	0.0210113525390625	5159.37636197383
0.73455810546875	0.0213043212890625	5159.39848697377
0.738983154296875	0.0216094970703125	5159.42061197372
0.743408203125	0.021893310546875	5159.44273697366
0.747833251953125	0.0221832275390625	5159.4648619736
0.75225830078125	0.022467041015625	5159.48698697355
0.756683349609375	0.0227508544921875	5159.50911197349
0.7611083984375	0.0230316162109375	5159.53123697344
0.765533447265625	0.023309326171875	5159.55336197338
0.76995849609375	0.0235870361328125	5159.57548697332
0.774383544921875	0.0238555908203125	5159.59761197327
0.77880859375	0.0241302490234375	5159.61973697321
0.783233642578125	0.024395751953125	5159.64186197316
0.78765869140625	0.0246673583984375	5159.6639869731
0.792083740234375	0.0249298095703125	5159.68611197304
0.7965087890625	0.025189208984375	5159.70823697299
0.800933837890625	0.0254486083984375	5159.73036197293
0.80535888671875	0.0257080078125	5159.75248697288
0.809783935546875	0.02596435546875	5159.77461197282
0.814208984375	0.026214599609375	5159.79673697277
0.818634033203125	0.0264678955078125	5159.81886197271
0.82305908203125	0.0267120361328125	5159.84098697265
0.827484130859375	0.02696533203125	5159.8631119726
0.8319091796875	0.0272064208984375	5159.88523697254
0.836334228515625	0.02745361328125	5159.90736197249
0.84075927734375	0.0276885986328125	5159.92948697243
0.845184326171875	0.0279327392578125	5159.95161197237
0.849609375	0.0281646728515625	5159.97373697232
0.854034423828125	0.028399658203125	5159.99586197226
0.85845947265625	0.028631591796875	5160.01798697221
0.862884521484375	0.028863525390625	5160.04011197215
0.8673095703125	0.0290924072265625	5160.06223697209
0.871734619140625	0.0293182373046875	5160.08436197204
0.87615966796875	0.029547119140625	5160.10648697198
0.880584716796875	0.0297607421875	5160.12861197193
0.885009765625	0.0299896240234375	5160.15073697187
0.889434814453125	0.030206298828125	5160.17286197182
0.89385986328125	0.0304290771484375	5160.19498697176
0.898284912109375	0.0306396484375	5160.2171119717
0.9027099609375	0.030859375	5160.23923697165
0.907135009765625	0.03106689453125	5160.26136197159
0.91156005859375	0.0312774658203125	5160.28348697154
0.915985107421875	0.0314849853515625	5160.30561197148
0.92041015625	0.031695556640625	5160.32773697143
0.924835205078125	0.031903076171875	5160.34986197137
0.92926025390625	0.0321044921875	5160.37198697131
0.933685302734375	0.03231201171875	5160.39411197126
0.9381103515625	0.032513427734375	5160.4162369712
0.942535400390625	0.0327178955078125	5160.43836197115
0.94696044921875	0.03291015625	5160.46048697109
0.951385498046875	0.0331085205078125	5160.48261197103
0.955810546875	0.0333038330078125	5160.50473697098
0.960235595703125	0.033502197265625	5160.52686197092
0.96466064453125	0.03369140625	5160.54898697087
0.969085693359375	0.0338836669921875	5160.57111197081
0.9735107421875	0.0340728759765625	5160.59323697075
0.977935791015625	0.034259033203125	5160.6153619707
0.98236083984375	0.0344451904296875	5160.63748697064
0.986785888671875	0.034625244140625	5160.65961197059
0.9912109375	0.0348175048828125	5160.68173697053
0.995635986328125	0.0350006103515625	5160.70386197048
1.00006103515625	0.035186767578125	5160.72598697042
0.995635986328125	0.0343109130859375	5160.74811197036
0.9912109375	0.0334564208984375	5160.77023697031
0.986785888671875	0.0326141357421875	5160.79236197025
0.98236083984375	0.0317901611328125	5160.8144869702
0.977935791015625	0.0309722900390625	5160.83661197014
0.9735107421875	0.03017578125	5160.85873697008
0.969085693359375	0.029388427734375	5160.88086197003
0.96466064453125	0.0286041259765625	5160.90298696997
0.960235595703125	0.027838134765625	5160.92511196992
0.955810546875	0.0270782470703125	5160.94723696986
0.951385498046875	0.0263336181640625	5160.9693619698
0.94696044921875	0.0255889892578125	5160.99148696975
0.942535400390625	0.0248626708984375	5161.01361196969
0.9381103515625	0.02413330078125	5161.03573696964
0.933685302734375	0.0234222412109375	5161.05786196958
0.92926025390625	0.022711181640625	5161.07998696953
0.924835205078125	0.022015380859375	5161.10211196947
0.92041015625	0.02132568359375	5161.12423696941
0.915985107421875	0.0206451416015625	5161.14636196936
0.91156005859375	0.0199737548828125	5161.1684869693
0.907135009765625	0.0193023681640625	5161.19061196925
0.9027099609375	0.018646240234375	5161.21273696919
0.898284912109375	0.0179901123046875	5161.23486196913
0.89385986328125	0.0173492431640625	5161.25698696908
0.889434814453125	0.0167083740234375	5161.27911196902
0.885009765625	0.0160797119140625	5161.30123696897
0.880584716796875	0.0154510498046875	5161.32336196891
0.87615966796875	0.014837646484375	5161.34548696886
0.871734619140625	0.0142181396484375	5161.3676119688
0.8673095703125	0.013616943359375	5161.38973696874
0.862884521484375	0.013018798828125	5161.41186196869
0.85845947265625	0.0124267578125	5161.43398696863
0.854034423828125	0.0118377685546875	5161.45611196858
0.849609375	0.0112548828125	5161.47823696852
0.845184326171875	0.01068115234375	5161.50036196846
0.84075927734375	0.0101104736328125	5161.52248696841
0.836334228515625	0.0095458984375	5161.54461196835
0.8319091796875	0.0089874267578125	5161.5667369683
0.827484130859375	0.00843505859375	5161.58886196824
0.82305908203125	0.0078857421875	5161.61098696818
0.818634033203125	0.0073455810546875	5161.63311196813
0.814208984375	0.0068084716796875	5161.65523696807
0.809783935546875	0.0062744140625	5161.67736196802
0.80535888671875	0.0057464599609375	5161.69948696796
0.800933837890625	0.005224609375	5161.72161196791
0.7965087890625	0.00470947265625	5161.74373696785
0.792083740234375	0.0041973876953125	5161.76586196779
0.78765869140625	0.0036907958984375	5161.78798696774
0.783233642578125	0.00318817138671875	5161.81011196768
0.77880859375	0.002691650390625	5161.83223696763
0.774383544921875	0.00220001220703125	5161.85436196757
0.76995849609375	0.0017120361328125	5161.87648696751
0.765533447265625	0.00122711181640625	5161.89861196746
0.7611083984375	0.0007476806640625	5161.9207369674
0.756683349609375	0.000271728515625	5161.94286196735
0.75225830078125	-0.000199462890625	5161.96498696729
0.747833251953125	-0.00066619873046875	5161.98711196724
0.743408203125	-0.00112823486328125	5162.00923696718
0.738983154296875	-0.00158355712890625	5162.03136196712
0.73455810546875	-0.002037353515625	5162.05348696707
0.730133056640625	-0.00248779296875	5162.07561196701
0.7257080078125	-0.0029327392578125	5162.09773696696
0.721282958984375	-0.003375244140625	5162.1198619669
0.71685791015625	-0.00381256103515625	5162.14198696684
0.712432861328125	-0.00424560546875	5162.16411196679
0.7080078125	-0.00467498779296875	5162.18623696673
0.703582763671875	-0.0051007080078125	5162.20836196668
0.69915771484375	-0.005521240234375	5162.23048696662
0.694732666015625	-0.005938720703125	5162.25261196657
0.6903076171875	-0.00635345458984375	5162.27473696651
0.685882568359375	-0.00673828125	5162.29686196645
0.68145751953125	-0.0071441650390625	5162.3189869664
0.677032470703125	-0.0075469970703125	5162.34111196634
0.672607421875	-0.0079437255859375	5162.36323696629
0.668182373046875	-0.00833740234375	5162.38536196623
0.66375732421875	-0.00872802734375	5162.40748696617
0.659332275390625	-0.0091156005859375	5162.42961196612
0.6549072265625	-0.0094970703125	5162.45173696606
0.650482177734375	-0.0098785400390625	5162.47386196601
0.64605712890625	-0.0102569580078125	5162.49598696595
0.641632080078125	-0.0106292724609375	5162.51811196589
0.63720703125	-0.0109954833984375	5162.54023696584
0.632781982421875	-0.01136474609375	5162.56236196578
0.62835693359375	-0.0117279052734375	5162.58448696573
0.623931884765625	-0.01209716796875	5162.60661196567
0.6195068359375	-0.012451171875	5162.62873696562
0.615081787109375	-0.0128082275390625	5162.65086196556
0.61065673828125	-0.0131591796875	5162.6729869655
0.606231689453125	-0.013507080078125	5162.69511196545
0.601806640625	-0.0138519287109375	5162.71723696539
0.597381591796875	-0.014190673828125	5162.73936196534
0.59295654296875	-0.0145294189453125	5162.76148696528
0.588531494140625	-0.0148651123046875	5162.78361196522
0.5841064453125	-0.01519775390625	5162.80573696517
0.579681396484375	-0.01552734375	5162.82786196511
0.57525634765625	-0.0158538818359375	5162.84998696506
0.570831298828125	-0.0161773681640625	5162.872111965
0.56640625	-0.0165008544921875	5162.89423696494
0.561981201171875	-0.0168182373046875	5162.91636196489
0.55755615234375	-0.0171356201171875	5162.93848696483
0.553131103515625	-0.0174407958984375	5162.96061196478
0.5487060546875	-0.017755126953125	5162.98273696472
0.544281005859375	-0.0180633544921875	5163.00486196467
0.53985595703125	-0.0183685302734375	5163.02698696461
0.535430908203125	-0.0186767578125	5163.04911196455
0.531005859375	-0.018975830078125	5163.0712369645
0.526580810546875	-0.0192779541015625	5163.09336196444
0.52215576171875	-0.0195709228515625	5163.11548696439
0.517730712890625	-0.0198699951171875	5163.13761196433
0.5133056640625	-0.0201568603515625	5163.15973696427
0.508880615234375	-0.02044677734375	5163.18186196422
0.50445556640625	-0.020733642578125	5163.20398696416
0.500030517578125	-0.0210235595703125	5163.22611196411
0.49560546875	-0.0213043212890625	5163.24823696405
0.491180419921875	-0.0215850830078125	5163.270361964
0.48675537109375	-0.02186279296875	5163.29248696394
0.482330322265625	-0.022137451171875	5163.31461196388
0.4779052734375	-0.0224151611328125	5163.33673696383
0.473480224609375	-0.022686767578125	5163.35886196377
0.46905517578125	-0.02296142578125	5163.38098696372
0.464630126953125	-0.0232269287109375	5163.40311196366
0.460205078125	-0.023492431640625	5163.4252369636
0.455780029296875	-0.0237518310546875	5163.44736196355
0.45135498046875	-0.0240203857421875	5163.46948696349
0.446929931640625	-0.0242767333984375	5163.49161196344
0.4425048828125	-0.0245361328125	5163.51373696338
0.438079833984375	-0.02479248046875	5163.53586196333
0.43365478515625	-0.0250457763671875	5163.55798696327
0.429229736328125	-0.025299072265625	5163.58011196321
0.4248046875	-0.02554931640625	5163.60223696316
0.420379638671875	-0.0258026123046875	5163.6243619631
0.41595458984375	-0.026043701171875	5163.64648696305
0.411529541015625	-0.0262939453125	5163.66861196299
0.4071044921875	-0.0265350341796875	5163.69073696293
0.402679443359375	-0.0267822265625	5163.71286196288
0.39825439453125	-0.0270172119140625	5163.73498696282
0.393829345703125	-0.0272613525390625	5163.75711196277
0.389404296875	-0.027496337890625	5163.77923696271
0.384979248046875	-0.027734375	5163.80136196265
0.38055419921875	-0.0279693603515625	5163.8234869626
0.376129150390625	-0.0281982421875	5163.84561196254
0.3717041015625	-0.0284332275390625	5163.86773696249
0.367279052734375	-0.0286590576171875	5163.88986196243
0.36285400390625	-0.0288909912109375	5163.91198696238
0.358428955078125	-0.02911376953125	5163.93411196232
0.35400390625	-0.029345703125	5163.95623696226
0.349578857421875	-0.0295623779296875	5163.97836196221
0.34515380859375	-0.0297882080078125	5164.00048696215
0.340728759765625	-0.0300048828125	5164.0226119621
0.3363037109375	-0.030230712890625	5164.04473696204
0.331878662109375	-0.030450439453125	5164.06686196198
0.32745361328125	-0.0306671142578125	5164.08898696193
0.323028564453125	-0.0308868408203125	5164.11111196187
0.318603515625	-0.031097412109375	5164.13323696182
0.314178466796875	-0.0313140869140625	5164.15536196176
0.30975341796875	-0.0315277099609375	5164.17748696171
0.305328369140625	-0.0317474365234375	5164.19961196165
0.3009033203125	-0.031951904296875	5164.22173696159
0.296478271484375	-0.03216552734375	5164.24386196154
0.29205322265625	-0.032373046875	5164.26598696148
0.287628173828125	-0.0325836181640625	5164.28811196143
0.283203125	-0.0327880859375	5164.31023696137
0.278778076171875	-0.03299560546875	5164.33236196131
0.27435302734375	-0.033197021484375	5164.35448696126
0.269927978515625	-0.033404541015625	5164.3766119612
0.2655029296875	-0.0336090087890625	5164.39873696115
0.261077880859375	-0.033807373046875	5164.42086196109
0.25665283203125	-0.034014892578125	5164.44298696103
0.252227783203125	-0.034210205078125	5164.46511196098
0.247802734375	-0.03441162109375	5164.48723696092
0.243377685546875	-0.0346038818359375	5164.50936196087
0.23895263671875	-0.034808349609375	5164.53148696081
0.234527587890625	-0.0350006103515625	5164.55361196076
0.2301025390625	-0.0351959228515625	5164.5757369607
0.225677490234375	-0.03538818359375	5164.59786196064
0.22125244140625	-0.03558349609375	5164.61998696059
0.216827392578125	-0.03577880859375	5164.64211196053
0.21240234375	-0.0359649658203125	5164.66423696048
0.207977294921875	-0.0361602783203125	5164.68636196042
0.20355224609375	-0.036346435546875	5164.70848696036
0.199127197265625	-0.036541748046875	5164.73061196031
0.1947021484375	-0.036724853515625	5164.75273696025
0.190277099609375	-0.0369171142578125	5164.7748619602
0.18585205078125	-0.037103271484375	5164.79698696014
0.181427001953125	-0.0372955322265625	5164.81911196009
0.177001953125	-0.0374755859375	5164.84123696003
0.172576904296875	-0.0376617431640625	5164.86336195997
0.16815185546875	-0.0378448486328125	5164.88548695992
0.163726806640625	-0.038031005859375	5164.90761195986
0.1593017578125	-0.0382171630859375	5164.92973695981
0.154876708984375	-0.0383941650390625	5164.95186195975
0.15045166015625	-0.0385833740234375	5164.97398695969
0.146026611328125	-0.03875732421875	5164.99611195964
0.1416015625	-0.0389434814453125	5165.01823695958
0.137176513671875	-0.0391143798828125	5165.04036195953
0.13275146484375	-0.039300537109375	5165.06248695947
0.128326416015625	-0.0394744873046875	5165.08461195942
0.1239013671875	-0.039654541015625	5165.10673695936
0.119476318359375	-0.0398284912109375	5165.1288619593
0.11505126953125	-0.0400054931640625	5165.15098695925
0.110626220703125	-0.040179443359375	5165.17311195919
0.106201171875	-0.0403533935546875	5165.19523695914
0.101776123046875	-0.0405303955078125	5165.21736195908
0.09735107421875	-0.0406951904296875	5165.23948695902
0.092926025390625	-0.040875244140625	5165.26161195897
0.0885009765625	-0.0410400390625	5165.28373695891
0.084075927734375	-0.0412200927734375	5165.30586195886
0.07965087890625	-0.041387939453125	5165.3279869588
0.075225830078125	-0.0415618896484375	5165.35011195874
0.07080078125	-0.0417266845703125	5165.37223695869
0.066375732421875	-0.041900634765625	5165.39436195863
0.06195068359375	-0.0420654296875	5165.41648695858
0.057525634765625	-0.042230224609375	5165.43861195852
0.0531005859375	-0.04239501953125	5165.46073695847
0.048675537109375	-0.042559814453125	5165.48286195841
0.04425048828125	-0.042730712890625	5165.50498695835
0.039825439453125	-0.0428863525390625	5165.5271119583
0.035400390625	-0.043060302734375	5165.54923695824
0.030975341796875	-0.043212890625	5165.57136195819
0.02655029296875	-0.0433837890625	5165.59348695813
0.022125244140625	-0.043536376953125	5165.61561195807
0.0177001953125	-0.0437042236328125	5165.63773695802
0.013275146484375	-0.0438568115234375	5165.65986195796
0.00885009765625	-0.0440216064453125	5165.68198695791
0.004425048828125	-0.04417724609375	5165.70411195785
0	-0.0443359375	5165.72623695779
0.004425048828125	-0.0434295654296875	5165.74836195774
0.00885009765625	-0.042535400390625	5165.77048695768
0.013275146484375	-0.0416717529296875	5165.79261195763
0.0177001953125	-0.04080810546875	5165.81473695757
0.022125244140625	-0.0399688720703125	5165.83686195752
0.02655029296875	-0.03912353515625	5165.85898695746
0.030975341796875	-0.0383087158203125	5165.8811119574
0.035400390625	-0.03748779296875	5165.90323695735
0.039825439453125	-0.036688232421875	5165.92536195729
0.04425048828125	-0.035894775390625	5165.94748695724
0.048675537109375	-0.0351043701171875	5165.96961195718
0.0531005859375	-0.0343292236328125	5165.99173695712
0.057525634765625	-0.03355712890625	5166.01386195707
0.06195068359375	-0.0327972412109375	5166.03598695701
0.066375732421875	-0.03204345703125	5166.05811195696
0.07080078125	-0.031298828125	5166.0802369569
0.075225830078125	-0.03055419921875	5166.10236195685
0.07965087890625	-0.029827880859375	5166.12448695679
0.084075927734375	-0.0291015625	5166.14661195673
0.0885009765625	-0.028387451171875	5166.16873695668
0.092926025390625	-0.0276763916015625	5166.19086195662
0.09735107421875	-0.0269775390625	5166.21298695657
0.101776123046875	-0.02628173828125	5166.23511195651
0.106201171875	-0.025592041015625	5166.25723695645
0.110626220703125	-0.024908447265625	5166.2793619564
0.11505126953125	-0.02423095703125	5166.30148695634
0.119476318359375	-0.0235626220703125	5166.32361195629
0.1239013671875	-0.022900390625	5166.34573695623
0.128326416015625	-0.0222442626953125	5166.36786195618
0.13275146484375	-0.0215911865234375	5166.38998695612
0.137176513671875	-0.0209503173828125	5166.41211195606
0.1416015625	-0.020306396484375	5166.43423695601
0.146026611328125	-0.019671630859375	5166.45636195595
0.15045166015625	-0.01904296875	5166.4784869559
0.154876708984375	-0.01842041015625	5166.50061195584
0.1593017578125	-0.0178009033203125	5166.52273695578
0.163726806640625	-0.0171905517578125	5166.54486195573
0.16815185546875	-0.0165863037109375	5166.56698695567
0.172576904296875	-0.0159820556640625	5166.58911195562
0.177001953125	-0.0153900146484375	5166.61123695556
0.181427001953125	-0.0147979736328125	5166.6333619555
0.18585205078125	-0.0142120361328125	5166.65548695545
0.190277099609375	-0.0136322021484375	5166.67761195539
0.1947021484375	-0.0130584716796875	5166.69973695534
0.199127197265625	-0.01248779296875	5166.72186195528
0.20355224609375	-0.011920166015625	5166.74398695523
0.207977294921875	-0.011358642578125	5166.76611195517
0.21240234375	-0.0108062744140625	5166.78823695511
0.216827392578125	-0.01025390625	5166.81036195506
0.22125244140625	-0.0097076416015625	5166.832486955
0.225677490234375	-0.00916748046875	5166.85461195495
0.2301025390625	-0.0086273193359375	5166.87673695489
0.234527587890625	-0.0080963134765625	5166.89886195483
0.23895263671875	-0.0075714111328125	5166.92098695478
0.243377685546875	-0.0070465087890625	5166.94311195472
0.247802734375	-0.0065277099609375	5166.96523695467
0.252227783203125	-0.006011962890625	5166.98736195461
0.25665283203125	-0.005499267578125	5167.00948695456
0.261077880859375	-0.00499267578125	5167.0316119545
0.2655029296875	-0.00449310302734375	5167.05373695444
0.269927978515625	-0.0039947509765625	5167.07586195439
0.27435302734375	-0.0035015869140625	5167.09798695433
0.278778076171875	-0.003011474609375	5167.12011195428
0.283203125	-0.0025360107421875	5167.14223695422
0.287628173828125	-0.002052001953125	5167.16436195416
0.29205322265625	-0.0015740966796875	5167.18648695411
0.296478271484375	-0.0010986328125	5167.20861195405
0.3009033203125	-0.0006280517578125	5167.230736954
0.305328369140625	-0.000160980224609375	5167.25286195394
0.30975341796875	0.000301849365234375	5167.27498695388
0.314178466796875	0.0007647705078125	5167.29711195383
0.318603515625	0.00122039794921875	5167.31923695377
0.323028564453125	0.00167205810546875	5167.34136195372
0.32745361328125	0.00212066650390625	5167.36348695366
0.331878662109375	0.0025665283203125	5167.38561195361
0.3363037109375	0.0030072021484375	5167.40773695355
0.340728759765625	0.00344512939453125	5167.42986195349
0.34515380859375	0.00387725830078125	5167.45198695344
0.349578857421875	0.00430694580078125	5167.47411195338
0.35400390625	0.00473236083984375	5167.49623695333
0.358428955078125	0.0051580810546875	5167.51836195327
0.36285400390625	0.0055780029296875	5167.54048695321
0.367279052734375	0.0059954833984375	5167.56261195316
0.3717041015625	0.00640869140625	5167.5847369531
0.376129150390625	0.0068084716796875	5167.60686195305
0.38055419921875	0.00721435546875	5167.62898695299
0.384979248046875	0.0076202392578125	5167.65111195294
0.389404296875	0.0080169677734375	5167.67323695288
0.393829345703125	0.00841064453125	5167.69536195282
0.39825439453125	0.008807373046875	5167.71748695277
0.402679443359375	0.009197998046875	5167.73961195271
0.4071044921875	0.0095855712890625	5167.76173695266
0.411529541015625	0.009967041015625	5167.7838619526
0.41595458984375	0.0103485107421875	5167.80598695254
0.420379638671875	0.01072998046875	5167.82811195249
0.4248046875	0.011102294921875	5167.85023695243
0.429229736328125	0.011474609375	5167.87236195238
0.43365478515625	0.0118438720703125	5167.89448695232
0.438079833984375	0.012213134765625	5167.91661195227
0.4425048828125	0.0125732421875	5167.93873695221
0.446929931640625	0.012939453125	5167.96086195215
0.45135498046875	0.0132965087890625	5167.9829869521
0.455780029296875	0.013653564453125	5168.00511195204
0.460205078125	0.0140045166015625	5168.02723695199
0.464630126953125	0.01435546875	5168.04936195193
0.46905517578125	0.014697265625	5168.07148695187
0.473480224609375	0.0150421142578125	5168.09361195182
0.4779052734375	0.0153839111328125	5168.11573695176
0.482330322265625	0.0157196044921875	5168.13786195171
0.48675537109375	0.016058349609375	5168.15998695165
0.491180419921875	0.0163909912109375	5168.18211195159
0.49560546875	0.0167236328125	5168.20423695154
0.500030517578125	0.0170501708984375	5168.22636195148
0.50445556640625	0.017376708984375	5168.24848695143
0.508880615234375	0.0176971435546875	5168.27061195137
0.5133056640625	0.0180206298828125	5168.29273695132
0.517730712890625	0.0183349609375	5168.31486195126
0.52215576171875	0.01865234375	5168.3369869512
0.526580810546875	0.018963623046875	5168.35911195115
0.531005859375	0.0192779541015625	5168.38123695109
0.535430908203125	0.0195831298828125	5168.40336195104
0.53985595703125	0.019891357421875	5168.42548695098
0.544281005859375	0.0201995849609375	5168.44761195092
0.5487060546875	0.020489501953125	5168.46973695087
0.553131103515625	0.0207916259765625	5168.49186195081
0.55755615234375	0.021087646484375	5168.51398695076
0.561981201171875	0.0213897705078125	5168.5361119507
0.56640625	0.0216796875	5168.55823695064
0.570831298828125	0.02197265625	5168.58036195059
0.57525634765625	0.0222625732421875	5168.60248695053
0.579681396484375	0.022552490234375	5168.62461195048
0.5841064453125	0.022833251953125	5168.64673695042
0.588531494140625	0.0231109619140625	5168.66886195037
0.59295654296875	0.0233917236328125	5168.69098695031
0.597381591796875	0.023663330078125	5168.71311195025
0.601806640625	0.0239410400390625	5168.7352369502
0.606231689453125	0.024212646484375	5168.75736195014
0.61065673828125	0.024493408203125	5168.77948695009
0.615081787109375	0.0247589111328125	5168.80161195003
0.6195068359375	0.025030517578125	5168.82373694997
0.623931884765625	0.02529296875	5168.84586194992
0.62835693359375	0.0255706787109375	5168.86798694986
0.632781982421875	0.0258392333984375	5168.89011194981
0.63720703125	0.0261016845703125	5168.91223694975
0.641632080078125	0.0263641357421875	5168.93436194969
0.64605712890625	0.0266143798828125	5168.95648694964
0.650482177734375	0.026873779296875	5168.97861194958
0.6549072265625	0.0271240234375	5169.00073694953
0.659332275390625	0.02738037109375	5169.02286194947
0.66375732421875	0.02762451171875	5169.04498694942
0.668182373046875	0.027880859375	5169.06711194936
0.672607421875	0.0281219482421875	5169.0892369493
0.677032470703125	0.028369140625	5169.11136194925
0.68145751953125	0.028607177734375	5169.13348694919
0.685882568359375	0.028851318359375	5169.15561194914
0.6903076171875	0.02908935546875	5169.17773694908
0.694732666015625	0.029327392578125	5169.19986194903
0.69915771484375	0.0295654296875	5169.22198694897
0.703582763671875	0.029791259765625	5169.24411194891
0.7080078125	0.030029296875	5169.26623694886
0.712432861328125	0.0302581787109375	5169.2883619488
0.71685791015625	0.0304901123046875	5169.31048694875
0.721282958984375	0.030712890625	5169.33261194869
0.7257080078125	0.03094482421875	5169.35473694863
0.730133056640625	0.0311676025390625	5169.37686194858
0.73455810546875	0.0313934326171875	5169.39898694852
0.738983154296875	0.031610107421875	5169.42111194847
0.743408203125	0.031829833984375	5169.44323694841
0.747833251953125	0.0320465087890625	5169.46536194835
0.75225830078125	0.0322601318359375	5169.4874869483
0.756683349609375	0.0324798583984375	5169.50961194824
0.7611083984375	0.0326873779296875	5169.53173694819
0.765533447265625	0.032904052734375	5169.55386194813
0.76995849609375	0.03310546875	5169.57598694808
0.774383544921875	0.033319091796875	5169.59811194802
0.77880859375	0.0335235595703125	5169.62023694796
0.783233642578125	0.0337310791015625	5169.64236194791
0.78765869140625	0.033929443359375	5169.66448694785
0.792083740234375	0.034136962890625	5169.6866119478
0.7965087890625	0.0343353271484375	5169.70873694774
0.800933837890625	0.03453369140625	5169.73086194768
0.80535888671875	0.0347320556640625	5169.75298694763
0.809783935546875	0.0349273681640625	5169.77511194757
0.814208984375	0.035125732421875	5169.79723694752
0.818634033203125	0.03531494140625	5169.81936194746
0.82305908203125	0.03551025390625	5169.84148694741
0.827484130859375	0.035693359375	5169.86361194735
0.8319091796875	0.035888671875	5169.88573694729
0.836334228515625	0.036065673828125	5169.90786194724
0.84075927734375	0.0362548828125	5169.92998694718
0.845184326171875	0.0364349365234375	5169.95211194713
0.849609375	0.03662109375	5169.97423694707
0.854034423828125	0.03680419921875	5169.99636194701
0.85845947265625	0.036981201171875	5170.01848694696
0.862884521484375	0.037158203125	5170.0406119469
0.8673095703125	0.0373321533203125	5170.06273694685
0.871734619140625	0.0375091552734375	5170.08486194679
0.87615966796875	0.037677001953125	5170.10698694673
0.880584716796875	0.0378570556640625	5170.12911194668
0.885009765625	0.038018798828125	5170.15123694662
0.889434814453125	0.03819580078125	5170.17336194657
0.89385986328125	0.0383575439453125	5170.19548694651
0.898284912109375	0.0385284423828125	5170.21761194646
0.9027099609375	0.038690185546875	5170.2397369464
0.907135009765625	0.0388580322265625	5170.26186194634
0.91156005859375	0.039019775390625	5170.28398694629
0.915985107421875	0.039178466796875	5170.30611194623
0.92041015625	0.03934326171875	5170.32823694618
0.924835205078125	0.039495849609375	5170.35036194612
0.92926025390625	0.0396575927734375	5170.37248694606
0.933685302734375	0.03980712890625	5170.39461194601
0.9381103515625	0.0399688720703125	5170.41673694595
0.942535400390625	0.0401214599609375	5170.4388619459
0.94696044921875	0.040277099609375	5170.46098694584
0.951385498046875	0.0404205322265625	5170.48311194578
0.955810546875	0.040576171875	5170.50523694573
0.960235595703125	0.040716552734375	5170.52736194567
0.96466064453125	0.0408660888671875	5170.54948694562
0.969085693359375	0.0410125732421875	5170.57161194556
0.9735107421875	0.0411529541015625	5170.59373694551
0.977935791015625	0.0412994384765625	5170.61586194545
0.98236083984375	0.0414337158203125	5170.63798694539
0.986785888671875	0.0415802001953125	5170.66011194534
0.9912109375	0.041717529296875	5170.68223694528
0.995635986328125	0.041864013671875	5170.70436194523
1.00006103515625	0.0419952392578125	5170.72648694517
0.995635986328125	0.0410736083984375	5170.74861194512
0.9912109375	0.0401611328125	5170.77073694506
0.986785888671875	0.0392791748046875	5170.792861945
0.98236083984375	0.0384063720703125	5170.81498694495
0.977935791015625	0.037542724609375	5170.83711194489
0.9735107421875	0.0366973876953125	5170.85923694484
0.969085693359375	0.0358612060546875	5170.88136194478
0.96466064453125	0.0350372314453125	5170.90348694472
0.960235595703125	0.03421630859375	5170.92561194467
0.955810546875	0.0334136962890625	5170.94773694461
0.951385498046875	0.0326171875	5170.96986194456
0.94696044921875	0.031829833984375	5170.9919869445
0.942535400390625	0.031048583984375	5171.01411194444
0.9381103515625	0.0302825927734375	5171.03623694439
0.933685302734375	0.0295166015625	5171.05836194433
0.92926025390625	0.028765869140625	5171.08048694428
0.924835205078125	0.0280242919921875	5171.10261194422
0.92041015625	0.0272857666015625	5171.12473694417
0.915985107421875	0.0265625	5171.14686194411
0.91156005859375	0.0258392333984375	5171.16898694405
0.907135009765625	0.0251312255859375	5171.191111944
0.9027099609375	0.0244232177734375	5171.21323694394
0.898284912109375	0.02373046875	5171.23536194389
0.89385986328125	0.0230377197265625	5171.25748694383
0.889434814453125	0.0223602294921875	5171.27961194377
0.885009765625	0.0216827392578125	5171.30173694372
0.880584716796875	0.021014404296875	5171.32386194366
0.87615966796875	0.02034912109375	5171.34598694361
0.871734619140625	0.019696044921875	5171.36811194355
0.8673095703125	0.019049072265625	5171.39023694349
0.862884521484375	0.018408203125	5171.41236194344
0.85845947265625	0.0177764892578125	5171.43448694338
0.854034423828125	0.017144775390625	5171.45661194333
0.849609375	0.016522216796875	5171.47873694327
0.845184326171875	0.01590576171875	5171.50086194322
0.84075927734375	0.01529541015625	5171.52298694316
0.836334228515625	0.0146881103515625	5171.5451119431
0.8319091796875	0.014093017578125	5171.56723694305
0.827484130859375	0.0135009765625	5171.58936194299
0.82305908203125	0.0129150390625	5171.61148694294
0.818634033203125	0.0123321533203125	5171.63361194288
0.814208984375	0.01175537109375	5171.65573694282
0.809783935546875	0.0111846923828125	5171.67786194277
0.80535888671875	0.0106201171875	5171.69998694271
0.800933837890625	0.0100616455078125	5171.72211194266
0.7965087890625	0.0095062255859375	5171.7442369426
0.792083740234375	0.0089599609375	5171.76636194254
0.78765869140625	0.0084136962890625	5171.78848694249
0.783233642578125	0.00787353515625	5171.81061194243
0.77880859375	0.007342529296875	5171.83273694238
0.774383544921875	0.0068145751953125	5171.85486194232
0.76995849609375	0.00628662109375	5171.87698694227
0.765533447265625	0.005767822265625	5171.89911194221
0.7611083984375	0.005255126953125	5171.92123694215
0.756683349609375	0.004744873046875	5171.9433619421
0.75225830078125	0.00424041748046875	5171.96548694204
0.747833251953125	0.00374053955078125	5171.98761194199
0.743408203125	0.003245849609375	5172.00973694193
0.738983154296875	0.00275665283203125	5172.03186194187
0.73455810546875	0.0022723388671875	5172.05398694182
0.730133056640625	0.001788330078125	5172.07611194176
0.7257080078125	0.0013104248046875	5172.09823694171
0.721282958984375	0.00083587646484375	5172.12036194165
0.71685791015625	0.0003662109375	5172.1424869416
0.712432861328125	-9.9609375E-05	5172.16461194154
0.7080078125	-0.00056121826171875	5172.18673694148
0.703582763671875	-0.00101806640625	5172.20886194143
0.69915771484375	-0.0014697265625	5172.23098694137
0.694732666015625	-0.0019195556640625	5172.25311194132
0.6903076171875	-0.0023638916015625	5172.27523694126
0.685882568359375	-0.0028057861328125	5172.2973619412
0.68145751953125	-0.0032421875	5172.31948694115
0.677032470703125	-0.0036767578125	5172.34161194109
0.672607421875	-0.00410491943359375	5172.36373694104
0.668182373046875	-0.0045318603515625	5172.38586194098
0.66375732421875	-0.004952392578125	5172.40798694093
0.659332275390625	-0.00537078857421875	5172.43011194087
0.6549072265625	-0.0057855224609375	5172.45223694081
0.650482177734375	-0.0061956787109375	5172.47436194076
0.64605712890625	-0.00657958984375	5172.4964869407
0.641632080078125	-0.006982421875	5172.51861194065
0.63720703125	-0.0073822021484375	5172.54073694059
0.632781982421875	-0.00777587890625	5172.56286194053
0.62835693359375	-0.00816650390625	5172.58498694048
0.623931884765625	-0.0085601806640625	5172.60711194042
0.6195068359375	-0.0089447021484375	5172.62923694037
0.615081787109375	-0.009326171875	5172.65136194031
0.61065673828125	-0.00970458984375	5172.67348694026
0.606231689453125	-0.0100799560546875	5172.6956119402
0.601806640625	-0.0104522705078125	5172.71773694014
0.597381591796875	-0.010821533203125	5172.73986194009
0.59295654296875	-0.011181640625	5172.76198694003
0.588531494140625	-0.0115478515625	5172.78411193998
0.5841064453125	-0.0118988037109375	5172.80623693992
0.579681396484375	-0.0122589111328125	5172.82836193986
0.57525634765625	-0.0126068115234375	5172.85048693981
0.570831298828125	-0.0129608154296875	5172.87261193975
0.56640625	-0.0133056640625	5172.8947369397
0.561981201171875	-0.0136505126953125	5172.91686193964
0.55755615234375	-0.0139923095703125	5172.93898693958
0.553131103515625	-0.0143280029296875	5172.96111193953
0.5487060546875	-0.0146636962890625	5172.98323693947
0.544281005859375	-0.0149932861328125	5173.00536193942
0.53985595703125	-0.015325927734375	5173.02748693936
0.535430908203125	-0.0156494140625	5173.04961193931
0.531005859375	-0.01597900390625	5173.07173693925
0.526580810546875	-0.01629638671875	5173.09386193919
0.52215576171875	-0.0166168212890625	5173.11598693914
0.517730712890625	-0.01693115234375	5173.13811193908
0.5133056640625	-0.017242431640625	5173.16023693903
0.508880615234375	-0.0175537109375	5173.18236193897
0.50445556640625	-0.017864990234375	5173.20448693891
0.500030517578125	-0.0181732177734375	5173.22661193886
0.49560546875	-0.0184783935546875	5173.2487369388
0.491180419921875	-0.0187774658203125	5173.27086193875
0.48675537109375	-0.01907958984375	5173.29298693869
0.482330322265625	-0.0193817138671875	5173.31511193863
0.4779052734375	-0.019671630859375	5173.33723693858
0.473480224609375	-0.0199737548828125	5173.35936193852
0.46905517578125	-0.0202606201171875	5173.38148693847
0.464630126953125	-0.0205474853515625	5173.40361193841
0.460205078125	-0.020831298828125	5173.42573693836
0.455780029296875	-0.0211181640625	5173.4478619383
0.45135498046875	-0.0214019775390625	5173.46998693824
0.446929931640625	-0.0216827392578125	5173.49211193819
0.4425048828125	-0.02196044921875	5173.51423693813
0.438079833984375	-0.022235107421875	5173.53636193808
0.43365478515625	-0.0225128173828125	5173.55848693802
0.429229736328125	-0.022784423828125	5173.58061193796
0.4248046875	-0.0230621337890625	5173.60273693791
0.420379638671875	-0.02332763671875	5173.62486193785
0.41595458984375	-0.02359619140625	5173.6469869378
0.411529541015625	-0.023858642578125	5173.66911193774
0.4071044921875	-0.0241241455078125	5173.69123693769
0.402679443359375	-0.024383544921875	5173.71336193763
0.39825439453125	-0.02464599609375	5173.73548693757
0.393829345703125	-0.02490234375	5173.75761193752
0.389404296875	-0.0251556396484375	5173.77973693746
0.384979248046875	-0.025408935546875	5173.80186193741
0.38055419921875	-0.0256591796875	5173.82398693735
0.376129150390625	-0.0259124755859375	5173.84611193729
0.3717041015625	-0.0261566162109375	5173.86823693724
0.367279052734375	-0.0264068603515625	5173.89036193718
0.36285400390625	-0.026641845703125	5173.91248693713
0.358428955078125	-0.02689208984375	5173.93461193707
0.35400390625	-0.0271331787109375	5173.95673693702
0.349578857421875	-0.0273712158203125	5173.97886193696
0.34515380859375	-0.0276092529296875	5174.0009869369
0.340728759765625	-0.027850341796875	5174.02311193685
0.3363037109375	-0.02808837890625	5174.04523693679
0.331878662109375	-0.0283203125	5174.06736193674
0.32745361328125	-0.028558349609375	5174.08948693668
0.323028564453125	-0.0287872314453125	5174.11161193662
0.318603515625	-0.0290191650390625	5174.13373693657
0.314178466796875	-0.029241943359375	5174.15586193651
0.30975341796875	-0.0294830322265625	5174.17798693646
0.305328369140625	-0.029705810546875	5174.2001119364
0.3009033203125	-0.0299346923828125	5174.22223693634
0.296478271484375	-0.030157470703125	5174.24436193629
0.29205322265625	-0.0303863525390625	5174.26648693623
0.287628173828125	-0.0306060791015625	5174.28861193618
0.283203125	-0.030828857421875	5174.31073693612
0.278778076171875	-0.031048583984375	5174.33286193607
0.27435302734375	-0.0312652587890625	5174.35498693601
0.269927978515625	-0.0314849853515625	5174.37711193595
0.2655029296875	-0.0316986083984375	5174.3992369359
0.261077880859375	-0.0319183349609375	5174.42136193584
0.25665283203125	-0.03212890625	5174.44348693579
0.252227783203125	-0.0323455810546875	5174.46561193573
0.247802734375	-0.032550048828125	5174.48773693567
0.243377685546875	-0.032769775390625	5174.50986193562
0.23895263671875	-0.0329742431640625	5174.53198693556
0.234527587890625	-0.0331878662109375	5174.55411193551
0.2301025390625	-0.0333953857421875	5174.57623693545
0.225677490234375	-0.033599853515625	5174.59836193539
0.22125244140625	-0.033807373046875	5174.62048693534
0.216827392578125	-0.0340118408203125	5174.64261193528
0.21240234375	-0.0342193603515625	5174.66473693523
0.207977294921875	-0.0344146728515625	5174.68686193517
0.20355224609375	-0.034625244140625	5174.70898693512
0.199127197265625	-0.0348175048828125	5174.73111193506
0.1947021484375	-0.035028076171875	5174.753236935
0.190277099609375	-0.035223388671875	5174.77536193495
0.18585205078125	-0.0354248046875	5174.79748693489
0.181427001953125	-0.035626220703125	5174.81961193484
0.177001953125	-0.035821533203125	5174.84173693478
0.172576904296875	-0.0360137939453125	5174.86386193472
0.16815185546875	-0.0362091064453125	5174.88598693467
0.163726806640625	-0.036407470703125	5174.90811193461
0.1593017578125	-0.0365966796875	5174.93023693456
0.154876708984375	-0.0367919921875	5174.9523619345
0.15045166015625	-0.0369781494140625	5174.97448693444
0.146026611328125	-0.0371734619140625	5174.99661193439
0.1416015625	-0.0373626708984375	5175.01873693433
0.137176513671875	-0.0375518798828125	5175.04086193428
0.13275146484375	-0.037738037109375	5175.06298693422
0.128326416015625	-0.0379302978515625	5175.08511193417
0.1239013671875	-0.0381103515625	5175.10723693411
0.119476318359375	-0.0382965087890625	5175.12936193405
0.11505126953125	-0.0384857177734375	5175.151486934
0.110626220703125	-0.03865966796875	5175.17361193394
0.106201171875	-0.0388519287109375	5175.19573693389
0.101776123046875	-0.03902587890625	5175.21786193383
0.09735107421875	-0.0392059326171875	5175.23998693378
0.092926025390625	-0.039385986328125	5175.26211193372
0.0885009765625	-0.0395721435546875	5175.28423693366
0.084075927734375	-0.0397430419921875	5175.30636193361
0.07965087890625	-0.039923095703125	5175.32848693355
0.075225830078125	-0.040093994140625	5175.3506119335
0.07080078125	-0.0402740478515625	5175.37273693344
0.066375732421875	-0.040447998046875	5175.39486193338
0.06195068359375	-0.040618896484375	5175.41698693333
0.057525634765625	-0.0407928466796875	5175.43911193327
0.0531005859375	-0.0409576416015625	5175.46123693322
0.048675537109375	-0.0411346435546875	5175.48336193316
0.04425048828125	-0.04129638671875	5175.50548693311
0.039825439453125	-0.041473388671875	5175.52761193305
0.035400390625	-0.04163818359375	5175.54973693299
0.030975341796875	-0.04180908203125	5175.57186193294
0.02655029296875	-0.041973876953125	5175.59398693288
0.022125244140625	-0.042138671875	5175.61611193283
0.0177001953125	-0.04229736328125	5175.63823693277
0.013275146484375	-0.042462158203125	5175.66036193271
0.00885009765625	-0.042626953125	5175.68248693266
0.004425048828125	-0.04278564453125	5175.7046119326
0	-0.042950439453125	5175.72673693255
0.004425048828125	-0.042041015625	5175.74886193249
0.00885009765625	-0.041162109375	5175.77098693243
0.013275146484375	-0.0402862548828125	5175.79311193238
0.0177001953125	-0.039434814453125	5175.81523693232
0.022125244140625	-0.0385894775390625	5175.83736193227
0.02655029296875	-0.03775634765625	5175.85948693221
0.030975341796875	-0.036932373046875	5175.88161193216
0.035400390625	-0.0361236572265625	5175.9037369321
0.039825439453125	-0.035321044921875	5175.92586193204
0.04425048828125	-0.0345245361328125	5175.94798693199
0.048675537109375	-0.0337432861328125	5175.97011193193
0.0531005859375	-0.032965087890625	5175.99223693188
0.057525634765625	-0.0322021484375	5176.01436193182
0.06195068359375	-0.0314422607421875	5176.03648693176
0.066375732421875	-0.0306915283203125	5176.05861193171
0.07080078125	-0.0299468994140625	5176.08073693165
0.075225830078125	-0.029217529296875	5176.1028619316
0.07965087890625	-0.028485107421875	5176.12498693154
0.084075927734375	-0.02777099609375	5176.14711193148
0.0885009765625	-0.027056884765625	5176.16923693143
0.092926025390625	-0.0263519287109375	5176.19136193137
0.09735107421875	-0.025653076171875	5176.21348693132
0.101776123046875	-0.02496337890625	5176.23561193126
0.106201171875	-0.0242767333984375	5176.25773693121
0.110626220703125	-0.02359619140625	5176.27986193115
0.11505126953125	-0.022930908203125	5176.30198693109
0.119476318359375	-0.022265625	5176.32411193104
0.1239013671875	-0.0216094970703125	5176.34623693098
0.128326416015625	-0.020953369140625	5176.36836193093
0.13275146484375	-0.020306396484375	5176.39048693087
0.137176513671875	-0.01966552734375	5176.41261193081
0.1416015625	-0.01903076171875	5176.43473693076
0.146026611328125	-0.0183990478515625	5176.4568619307
0.15045166015625	-0.0177764892578125	5176.47898693065
0.154876708984375	-0.0171630859375	5176.50111193059
0.1593017578125	-0.016546630859375	5176.52323693053
0.163726806640625	-0.0159423828125	5176.54536193048
0.16815185546875	-0.0153411865234375	5176.56748693042
0.172576904296875	-0.01474609375	5176.58961193037
0.177001953125	-0.014154052734375	5176.61173693031
0.181427001953125	-0.01357421875	5176.63386193026
0.18585205078125	-0.0129913330078125	5176.6559869302
0.190277099609375	-0.0124176025390625	5176.67811193014
0.1947021484375	-0.011846923828125	5176.70023693009
0.199127197265625	-0.0112823486328125	5176.72236193003
0.20355224609375	-0.0107269287109375	5176.74448692998
0.207977294921875	-0.01016845703125	5176.76661192992
0.21240234375	-0.009619140625	5176.78873692987
0.216827392578125	-0.009075927734375	5176.81086192981
0.22125244140625	-0.0085357666015625	5176.83298692975
0.225677490234375	-0.00799560546875	5176.8551119297
0.2301025390625	-0.007470703125	5176.87723692964
0.234527587890625	-0.0069427490234375	5176.89936192959
0.23895263671875	-0.0064208984375	5176.92148692953
0.243377685546875	-0.005902099609375	5176.94361192947
0.247802734375	-0.005389404296875	5176.96573692942
0.252227783203125	-0.00488250732421875	5176.98786192936
0.25665283203125	-0.00437835693359375	5177.00998692931
0.261077880859375	-0.00387908935546875	5177.03211192925
0.2655029296875	-0.00338287353515625	5177.05423692919
0.269927978515625	-0.002891845703125	5177.07636192914
0.27435302734375	-0.00241363525390625	5177.09848692908
0.278778076171875	-0.0019293212890625	5177.12061192903
0.283203125	-0.00144866943359375	5177.14273692897
0.287628173828125	-0.0009722900390625	5177.16486192892
0.29205322265625	-0.00049957275390625	5177.18698692886
0.296478271484375	-3.184814453125E-05	5177.2091119288
0.3009033203125	0.0004320068359375	5177.23123692875
0.305328369140625	0.00089263916015625	5177.25336192869
0.30975341796875	0.0013494873046875	5177.27548692864
0.314178466796875	0.001806640625	5177.29761192858
0.318603515625	0.00225677490234375	5177.31973692852
0.323028564453125	0.00270263671875	5177.34186192847
0.32745361328125	0.0031451416015625	5177.36398692841
0.331878662109375	0.00358306884765625	5177.38611192836
0.3363037109375	0.0040155029296875	5177.4082369283
0.340728759765625	0.00444610595703125	5177.43036192824
0.34515380859375	0.00487548828125	5177.45248692819
0.349578857421875	0.00530059814453125	5177.47461192813
0.35400390625	0.00571929931640625	5177.49673692808
0.358428955078125	0.00613677978515625	5177.51886192802
0.36285400390625	0.0065399169921875	5177.54098692797
0.367279052734375	0.006951904296875	5177.56311192791
0.3717041015625	0.0073577880859375	5177.58523692785
0.376129150390625	0.007763671875	5177.6073619278
0.38055419921875	0.008160400390625	5177.62948692774
0.384979248046875	0.0085601806640625	5177.65161192769
0.389404296875	0.0089508056640625	5177.67373692763
0.393829345703125	0.009344482421875	5177.69586192757
0.39825439453125	0.00972900390625	5177.71798692752
0.402679443359375	0.0101165771484375	5177.74011192746
0.4071044921875	0.0104949951171875	5177.76223692741
0.411529541015625	0.0108734130859375	5177.78436192735
0.41595458984375	0.0112457275390625	5177.80648692729
0.420379638671875	0.01162109375	5177.82861192724
0.4248046875	0.0119903564453125	5177.85073692718
0.429229736328125	0.012359619140625	5177.87286192713
0.43365478515625	0.0127197265625	5177.89498692707
0.438079833984375	0.0130828857421875	5177.91711192702
0.4425048828125	0.01343994140625	5177.93923692696
0.446929931640625	0.0137939453125	5177.9613619269
0.45135498046875	0.01414794921875	5177.98348692685
0.455780029296875	0.0144927978515625	5178.00561192679
0.460205078125	0.01484375	5178.02773692674
0.464630126953125	0.015185546875	5178.04986192668
0.46905517578125	0.01552734375	5178.07198692662
0.473480224609375	0.015863037109375	5178.09411192657
0.4779052734375	0.01619873046875	5178.11623692651
0.482330322265625	0.0165313720703125	5178.13836192646
0.48675537109375	0.0168609619140625	5178.1604869264
0.491180419921875	0.0171905517578125	5178.18261192635
0.49560546875	0.0175140380859375	5178.20473692629
0.500030517578125	0.017840576171875	5178.22686192623
0.50445556640625	0.018157958984375	5178.24898692618
0.508880615234375	0.0184783935546875	5178.27111192612
0.5133056640625	0.0187896728515625	5178.29323692607
0.517730712890625	0.01910400390625	5178.31536192601
0.52215576171875	0.0194122314453125	5178.33748692596
0.526580810546875	0.0197174072265625	5178.3596119259
0.531005859375	0.020025634765625	5178.38173692584
0.535430908203125	0.02032470703125	5178.40386192579
0.53985595703125	0.0206268310546875	5178.42598692573
0.544281005859375	0.0209228515625	5178.44811192568
0.5487060546875	0.0212188720703125	5178.47023692562
0.553131103515625	0.021514892578125	5178.49236192556
0.55755615234375	0.02181396484375	5178.51448692551
0.561981201171875	0.022100830078125	5178.53661192545
0.56640625	0.0223907470703125	5178.5587369254
0.570831298828125	0.0226776123046875	5178.58086192534
0.57525634765625	0.0229644775390625	5178.60298692528
0.579681396484375	0.0232421875	5178.62511192523
0.5841064453125	0.023516845703125	5178.64723692517
0.588531494140625	0.0237884521484375	5178.66936192512
0.59295654296875	0.024066162109375	5178.69148692506
0.597381591796875	0.0243438720703125	5178.71361192501
0.601806640625	0.024615478515625	5178.73573692495
0.606231689453125	0.0248870849609375	5178.75786192489
0.61065673828125	0.025146484375	5178.77998692484
0.615081787109375	0.025421142578125	5178.80211192478
0.6195068359375	0.025689697265625	5178.82423692473
0.623931884765625	0.0259552001953125	5178.84636192467
0.62835693359375	0.0262237548828125	5178.86848692461
0.632781982421875	0.0264801025390625	5178.89061192456
0.63720703125	0.0267333984375	5178.9127369245
0.641632080078125	0.0269866943359375	5178.93486192445
0.64605712890625	0.027239990234375	5178.95698692439
0.650482177734375	0.027490234375	5178.97911192433
0.6549072265625	0.02774658203125	5179.00123692428
0.659332275390625	0.027984619140625	5179.02336192422
0.66375732421875	0.0282379150390625	5179.04548692417
0.668182373046875	0.0284759521484375	5179.06761192411
0.672607421875	0.0287200927734375	5179.08973692406
0.677032470703125	0.028961181640625	5179.111861924
0.68145751953125	0.02919921875	5179.13398692394
0.685882568359375	0.029437255859375	5179.15611192389
0.6903076171875	0.0296722412109375	5179.17823692383
0.694732666015625	0.0299072265625	5179.20036192378
0.69915771484375	0.03013916015625	5179.22248692372
0.703582763671875	0.0303680419921875	5179.24461192366
0.7080078125	0.030596923828125	5179.26673692361
0.712432861328125	0.030828857421875	5179.28886192355
0.71685791015625	0.0310546875	5179.3109869235
0.721282958984375	0.031280517578125	5179.33311192344
0.7257080078125	0.0314971923828125	5179.35523692338
0.730133056640625	0.03172607421875	5179.37736192333
0.73455810546875	0.0319427490234375	5179.39948692327
0.738983154296875	0.032159423828125	5179.42161192322
0.743408203125	0.0323760986328125	5179.44373692316
0.747833251953125	0.0325897216796875	5179.46586192311
0.75225830078125	0.0328033447265625	5179.48798692305
0.756683349609375	0.0330047607421875	5179.51011192299
0.7611083984375	0.0332183837890625	5179.53223692294
0.765533447265625	0.0334228515625	5179.55436192288
0.76995849609375	0.033636474609375	5179.57648692283
0.774383544921875	0.0338348388671875	5179.59861192277
0.77880859375	0.03404541015625	5179.62073692271
0.783233642578125	0.034246826171875	5179.64286192266
0.78765869140625	0.034442138671875	5179.6649869226
0.792083740234375	0.0346405029296875	5179.68711192255
0.7965087890625	0.0348388671875	5179.70923692249
0.800933837890625	0.0350372314453125	5179.73136192244
0.80535888671875	0.0352264404296875	5179.75348692238
0.809783935546875	0.0354217529296875	5179.77561192232
0.814208984375	0.0356109619140625	5179.79773692227
0.818634033203125	0.0358062744140625	5179.81986192221
0.82305908203125	0.0359893798828125	5179.84198692216
0.827484130859375	0.0361785888671875	5179.8641119221
0.8319091796875	0.0363616943359375	5179.88623692204
0.836334228515625	0.0365478515625	5179.90836192199
0.84075927734375	0.036724853515625	5179.93048692193
0.845184326171875	0.036907958984375	5179.95261192188
0.849609375	0.0370880126953125	5179.97473692182
0.854034423828125	0.0372650146484375	5179.99686192177
0.85845947265625	0.0374420166015625	5180.01898692171
0.862884521484375	0.0376129150390625	5180.04111192165
0.8673095703125	0.0377899169921875	5180.0632369216
0.871734619140625	0.037957763671875	5180.08536192154
0.87615966796875	0.0381317138671875	5180.10748692149
0.880584716796875	0.0382965087890625	5180.12961192143
0.885009765625	0.0384674072265625	5180.15173692137
0.889434814453125	0.0386322021484375	5180.17386192132
0.89385986328125	0.0387969970703125	5180.19598692126
0.898284912109375	0.0389617919921875	5180.21811192121
0.9027099609375	0.03912353515625	5180.24023692115
0.907135009765625	0.039288330078125	5180.26236192109
0.91156005859375	0.03944091796875	5180.28448692104
0.915985107421875	0.039605712890625	5180.30661192098
0.92041015625	0.0397552490234375	5180.32873692093
0.924835205078125	0.0399169921875	5180.35086192087
0.92926025390625	0.040069580078125	5180.37298692082
0.933685302734375	0.0402252197265625	5180.39511192076
0.9381103515625	0.0403778076171875	5180.4172369207
0.942535400390625	0.040533447265625	5180.43936192065
0.94696044921875	0.0406768798828125	5180.46148692059
0.951385498046875	0.040826416015625	5180.48361192054
0.955810546875	0.040972900390625	5180.50573692048
0.960235595703125	0.0411163330078125	5180.52786192042
0.96466064453125	0.0412628173828125	5180.54998692037
0.969085693359375	0.04140625	5180.57211192031
0.9735107421875	0.0415496826171875	5180.59423692026
0.977935791015625	0.0416839599609375	5180.6163619202
0.98236083984375	0.0418304443359375	5180.63848692014
0.986785888671875	0.041961669921875	5180.66061192009
0.9912109375	0.0421112060546875	5180.68273692003
0.995635986328125	0.0422393798828125	5180.70486191998
1.00006103515625	0.042376708984375	5180.72698691992
0.995635986328125	0.041455078125	5180.74911191987
0.9912109375	0.040545654296875	5180.77123691981
0.986785888671875	0.0396514892578125	5180.79336191975
0.98236083984375	0.03878173828125	5180.8154869197
0.977935791015625	0.0379119873046875	5180.83761191964
0.9735107421875	0.0370635986328125	5180.85973691959
0.969085693359375	0.0362274169921875	5180.88186191953
0.96466064453125	0.035394287109375	5180.90398691947
0.960235595703125	0.0345794677734375	5180.92611191942
0.955810546875	0.033770751953125	5180.94823691936
0.951385498046875	0.0329742431640625	5180.97036191931
0.94696044921875	0.032183837890625	5180.99248691925
0.942535400390625	0.0314056396484375	5181.0146119192
0.9381103515625	0.03062744140625	5181.03673691914
0.933685302734375	0.0298614501953125	5181.05886191908
0.92926025390625	0.0291107177734375	5181.08098691903
0.924835205078125	0.028363037109375	5181.10311191897
0.92041015625	0.0276275634765625	5181.12523691892
0.915985107421875	0.0268951416015625	5181.14736191886
0.91156005859375	0.026177978515625	5181.1694869188
0.907135009765625	0.0254608154296875	5181.19161191875
0.9027099609375	0.024755859375	5181.21373691869
0.898284912109375	0.0240570068359375	5181.23586191864
0.89385986328125	0.0233673095703125	5181.25798691858
0.889434814453125	0.0226806640625	5181.28011191853
0.885009765625	0.022003173828125	5181.30223691847
0.880584716796875	0.021331787109375	5181.32436191841
0.87615966796875	0.02066650390625	5181.34648691836
0.871734619140625	0.0200164794921875	5181.3686119183
0.8673095703125	0.0193634033203125	5181.39073691825
0.862884521484375	0.018719482421875	5181.41286191819
0.85845947265625	0.0180816650390625	5181.43498691813
0.854034423828125	0.0174530029296875	5181.45711191808
0.849609375	0.0168304443359375	5181.47923691802
0.845184326171875	0.0162109375	5181.50136191797
0.84075927734375	0.0155975341796875	5181.52348691791
0.836334228515625	0.014990234375	5181.54561191786
0.8319091796875	0.0143890380859375	5181.5677369178
0.827484130859375	0.0137969970703125	5181.58986191774
0.82305908203125	0.0132080078125	5181.61198691769
0.818634033203125	0.0126251220703125	5181.63411191763
0.814208984375	0.01204833984375	5181.65623691758
0.809783935546875	0.011474609375	5181.67836191752
0.80535888671875	0.0109100341796875	5181.70048691746
0.800933837890625	0.0103485107421875	5181.72261191741
0.7965087890625	0.0097930908203125	5181.74473691735
0.792083740234375	0.0092437744140625	5181.7668619173
0.78765869140625	0.008697509765625	5181.78898691724
0.783233642578125	0.008154296875	5181.81111191718
0.77880859375	0.007623291015625	5181.83323691713
0.774383544921875	0.00709228515625	5181.85536191707
0.76995849609375	0.0065673828125	5181.87748691702
0.765533447265625	0.006048583984375	5181.89961191696
0.7611083984375	0.00552978515625	5181.92173691691
0.756683349609375	0.0050201416015625	5181.94386191685
0.75225830078125	0.004512939453125	5181.96598691679
0.747833251953125	0.004012451171875	5181.98811191674
0.743408203125	0.00351531982421875	5182.01023691668
0.738983154296875	0.00302581787109375	5182.03236191663
0.73455810546875	0.0025384521484375	5182.05448691657
0.730133056640625	0.00205657958984375	5182.07661191651
0.7257080078125	0.001575927734375	5182.09873691646
0.721282958984375	0.0011004638671875	5182.1208619164
0.71685791015625	0.00062957763671875	5182.14298691635
0.712432861328125	0.000162628173828125	5182.16511191629
0.7080078125	-0.000300384521484375	5182.18723691623
0.703582763671875	-0.00075836181640625	5182.20936191618
0.69915771484375	-0.0012115478515625	5182.23148691612
0.694732666015625	-0.00166168212890625	5182.25361191607
0.6903076171875	-0.00210784912109375	5182.27573691601
0.685882568359375	-0.0025494384765625	5182.29786191596
0.68145751953125	-0.00298797607421875	5182.3199869159
0.677032470703125	-0.00342254638671875	5182.34211191584
0.672607421875	-0.0038525390625	5182.36423691579
0.668182373046875	-0.00427947998046875	5182.38636191573
0.66375732421875	-0.0047027587890625	5182.40848691568
0.659332275390625	-0.00512237548828125	5182.43061191562
0.6549072265625	-0.00553741455078125	5182.45273691556
0.650482177734375	-0.0059503173828125	5182.47486191551
0.64605712890625	-0.006358642578125	5182.49698691545
0.641632080078125	-0.00673828125	5182.5191119154
0.63720703125	-0.0071380615234375	5182.54123691534
0.632781982421875	-0.0075347900390625	5182.56336191528
0.62835693359375	-0.0079254150390625	5182.58548691523
0.623931884765625	-0.0083221435546875	5182.60761191517
0.6195068359375	-0.0087066650390625	5182.62973691512
0.615081787109375	-0.0090911865234375	5182.65186191506
0.61065673828125	-0.009466552734375	5182.67398691501
0.606231689453125	-0.009844970703125	5182.69611191495
0.601806640625	-0.01021728515625	5182.71823691489
0.597381591796875	-0.010589599609375	5182.74036191484
0.59295654296875	-0.0109527587890625	5182.76248691478
0.588531494140625	-0.01131591796875	5182.78461191473
0.5841064453125	-0.011676025390625	5182.80673691467
0.579681396484375	-0.012030029296875	5182.82886191462
0.57525634765625	-0.0123870849609375	5182.85098691456
0.570831298828125	-0.0127349853515625	5182.8731119145
0.56640625	-0.0130828857421875	5182.89523691445
0.561981201171875	-0.013427734375	5182.91736191439
0.55755615234375	-0.0137725830078125	5182.93948691434
0.553131103515625	-0.0141082763671875	5182.96161191428
0.5487060546875	-0.0144439697265625	5182.98373691422
0.544281005859375	-0.014776611328125	5183.00586191417
0.53985595703125	-0.015106201171875	5183.02798691411
0.535430908203125	-0.015435791015625	5183.05011191406
0.531005859375	-0.0157562255859375	5183.072236914
0.526580810546875	-0.0160858154296875	5183.09436191394
0.52215576171875	-0.0164031982421875	5183.11648691389
0.517730712890625	-0.0167236328125	5183.13861191383
0.5133056640625	-0.017034912109375	5183.16073691378
0.508880615234375	-0.0173431396484375	5183.18286191372
0.50445556640625	-0.0176513671875	5183.20498691367
0.500030517578125	-0.0179595947265625	5183.22711191361
0.49560546875	-0.0182647705078125	5183.24923691355
0.491180419921875	-0.01856689453125	5183.2713619135
0.48675537109375	-0.0188690185546875	5183.29348691344
0.482330322265625	-0.0191680908203125	5183.31561191339
0.4779052734375	-0.0194671630859375	5183.33773691333
0.473480224609375	-0.0197601318359375	5183.35986191327
0.46905517578125	-0.0200531005859375	5183.38198691322
0.464630126953125	-0.0203369140625	5183.40411191316
0.460205078125	-0.0206298828125	5183.42623691311
0.455780029296875	-0.02091064453125	5183.44836191305
0.45135498046875	-0.0211944580078125	5183.47048691299
0.446929931640625	-0.021478271484375	5183.49261191294
0.4425048828125	-0.021759033203125	5183.51473691288
0.438079833984375	-0.0220367431640625	5183.53686191283
0.43365478515625	-0.022308349609375	5183.55898691277
0.429229736328125	-0.0225830078125	5183.58111191272
0.4248046875	-0.0228515625	5183.60323691266
0.420379638671875	-0.0231292724609375	5183.6253619126
0.41595458984375	-0.023394775390625	5183.64748691255
0.411529541015625	-0.023663330078125	5183.66961191249
0.4071044921875	-0.0239288330078125	5183.69173691244
0.402679443359375	-0.0241912841796875	5183.71386191238
0.39825439453125	-0.0244476318359375	5183.73598691232
0.393829345703125	-0.0247100830078125	5183.75811191227
0.389404296875	-0.02496337890625	5183.78023691221
0.384979248046875	-0.025213623046875	5183.80236191216
0.38055419921875	-0.025469970703125	5183.8244869121
0.376129150390625	-0.0257171630859375	5183.84661191205
0.3717041015625	-0.025970458984375	5183.86873691199
0.367279052734375	-0.026214599609375	5183.89086191193
0.36285400390625	-0.02646484375	5183.91298691188
0.358428955078125	-0.0266998291015625	5183.93511191182
0.35400390625	-0.026947021484375	5183.95723691177
0.349578857421875	-0.02718505859375	5183.97936191171
0.34515380859375	-0.027423095703125	5184.00148691165
0.340728759765625	-0.0276611328125	5184.0236119116
0.3363037109375	-0.027899169921875	5184.04573691154
0.331878662109375	-0.02813720703125	5184.06786191149
0.32745361328125	-0.0283721923828125	5184.08998691143
0.323028564453125	-0.028607177734375	5184.11211191137
0.318603515625	-0.028839111328125	5184.13423691132
0.314178466796875	-0.0290740966796875	5184.15636191126
0.30975341796875	-0.0293060302734375	5184.17848691121
0.305328369140625	-0.029534912109375	5184.20061191115
0.3009033203125	-0.029754638671875	5184.2227369111
0.296478271484375	-0.0299835205078125	5184.24486191104
0.29205322265625	-0.030206298828125	5184.26698691098
0.287628173828125	-0.030426025390625	5184.28911191093
0.283203125	-0.03065185546875	5184.31123691087
0.278778076171875	-0.0308685302734375	5184.33336191082
0.27435302734375	-0.03109130859375	5184.35548691076
0.269927978515625	-0.031304931640625	5184.37761191071
0.2655029296875	-0.0315277099609375	5184.39973691065
0.261077880859375	-0.03173828125	5184.42186191059
0.25665283203125	-0.0319549560546875	5184.44398691054
0.252227783203125	-0.03216552734375	5184.46611191048
0.247802734375	-0.0323822021484375	5184.48823691043
0.243377685546875	-0.0325927734375	5184.51036191037
0.23895263671875	-0.0328033447265625	5184.53248691031
0.234527587890625	-0.0330108642578125	5184.55461191026
0.2301025390625	-0.033221435546875	5184.5767369102
0.225677490234375	-0.033428955078125	5184.59886191015
0.22125244140625	-0.0336334228515625	5184.62098691009
0.216827392578125	-0.0338409423828125	5184.64311191003
0.21240234375	-0.0340423583984375	5184.66523690998
0.207977294921875	-0.0342529296875	5184.68736190992
0.20355224609375	-0.0344451904296875	5184.70948690987
0.199127197265625	-0.0346527099609375	5184.73161190981
0.1947021484375	-0.03485107421875	5184.75373690976
0.190277099609375	-0.0350555419921875	5184.7758619097
0.18585205078125	-0.03525390625	5184.79798690964
0.181427001953125	-0.0354522705078125	5184.82011190959
0.177001953125	-0.035650634765625	5184.84223690953
0.172576904296875	-0.0358428955078125	5184.86436190948
0.16815185546875	-0.036041259765625	5184.88648690942
0.163726806640625	-0.0362335205078125	5184.90861190936
0.1593017578125	-0.036431884765625	5184.93073690931
0.154876708984375	-0.03662109375	5184.95286190925
0.15045166015625	-0.03681640625	5184.9749869092
0.146026611328125	-0.0370025634765625	5184.99711190914
0.1416015625	-0.0371978759765625	5185.01923690908
0.137176513671875	-0.0373809814453125	5185.04136190903
0.13275146484375	-0.037567138671875	5185.06348690897
0.128326416015625	-0.0377532958984375	5185.08561190892
0.1239013671875	-0.037939453125	5185.10773690886
0.119476318359375	-0.038128662109375	5185.12986190881
0.11505126953125	-0.0383026123046875	5185.15198690875
0.110626220703125	-0.038494873046875	5185.17411190869
0.106201171875	-0.0386688232421875	5185.19623690864
0.101776123046875	-0.0388580322265625	5185.21836190858
0.09735107421875	-0.039031982421875	5185.24048690853
0.092926025390625	-0.0392181396484375	5185.26261190847
0.0885009765625	-0.03939208984375	5185.28473690841
0.084075927734375	-0.0395721435546875	5185.30686190836
0.07965087890625	-0.03974609375	5185.3289869083
0.075225830078125	-0.0399200439453125	5185.35111190825
0.07080078125	-0.0400970458984375	5185.37323690819
0.066375732421875	-0.04027099609375	5185.39536190813
0.06195068359375	-0.04044189453125	5185.41748690808
0.057525634765625	-0.04061279296875	5185.43961190802
0.0531005859375	-0.0407867431640625	5185.46173690797
0.048675537109375	-0.040948486328125	5185.48386190791
0.04425048828125	-0.04112548828125	5185.50598690786
0.039825439453125	-0.041290283203125	5185.5281119078
0.035400390625	-0.041461181640625	5185.55023690774
0.030975341796875	-0.0416259765625	5185.57236190769
0.02655029296875	-0.041796875	5185.59448690763
0.022125244140625	-0.0419586181640625	5185.61661190758
0.0177001953125	-0.042120361328125	5185.63873690752
0.013275146484375	-0.042279052734375	5185.66086190747
0.00885009765625	-0.0424407958984375	5185.68298690741
0.004425048828125	-0.0426055908203125	5185.70511190735
0	-0.04276123046875	5185.7272369073
0.004425048828125	-0.041864013671875	5185.74936190724
0.00885009765625	-0.0409698486328125	5185.77148690719
0.013275146484375	-0.040106201171875	5185.79361190713
0.0177001953125	-0.039239501953125	5185.81573690707
0.022125244140625	-0.0384033203125	5185.83786190702
0.02655029296875	-0.037567138671875	5185.85998690696
0.030975341796875	-0.0367431640625	5185.88211190691
0.035400390625	-0.0359344482421875	5185.90423690685
0.039825439453125	-0.0351318359375	5185.92636190679
0.04425048828125	-0.0343414306640625	5185.94848690674
0.048675537109375	-0.0335540771484375	5185.97061190668
0.0531005859375	-0.032781982421875	5185.99273690663
0.057525634765625	-0.0320098876953125	5186.01486190657
0.06195068359375	-0.0312530517578125	5186.03698690652
0.066375732421875	-0.0304962158203125	5186.05911190646
0.07080078125	-0.0297576904296875	5186.0812369064
0.075225830078125	-0.0290191650390625	5186.10336190635
0.07965087890625	-0.0282928466796875	5186.12548690629
0.084075927734375	-0.0275726318359375	5186.14761190624
0.0885009765625	-0.026861572265625	5186.16973690618
0.092926025390625	-0.026153564453125	5186.19186190612
0.09735107421875	-0.0254547119140625	5186.21398690607
0.101776123046875	-0.0247650146484375	5186.23611190601
0.106201171875	-0.024078369140625	5186.25823690596
0.110626220703125	-0.0234039306640625	5186.2803619059
0.11505126953125	-0.0227264404296875	5186.30248690584
0.119476318359375	-0.0220672607421875	5186.32461190579
0.1239013671875	-0.021405029296875	5186.34673690573
0.128326416015625	-0.0207550048828125	5186.36886190568
0.13275146484375	-0.0201080322265625	5186.39098690562
0.137176513671875	-0.0194671630859375	5186.41311190557
0.1416015625	-0.018829345703125	5186.43523690551
0.146026611328125	-0.0182037353515625	5186.45736190545
0.15045166015625	-0.017578125	5186.4794869054
0.154876708984375	-0.0169647216796875	5186.50161190534
0.1593017578125	-0.016351318359375	5186.52373690529
0.163726806640625	-0.0157440185546875	5186.54586190523
0.16815185546875	-0.0151458740234375	5186.56798690517
0.172576904296875	-0.0145477294921875	5186.59011190512
0.177001953125	-0.0139617919921875	5186.61223690506
0.181427001953125	-0.013372802734375	5186.63436190501
0.18585205078125	-0.0127960205078125	5186.65648690495
0.190277099609375	-0.0122222900390625	5186.6786119049
0.1947021484375	-0.011651611328125	5186.70073690484
0.199127197265625	-0.0110870361328125	5186.72286190478
0.20355224609375	-0.0105316162109375	5186.74498690473
0.207977294921875	-0.0099761962890625	5186.76711190467
0.21240234375	-0.0094268798828125	5186.78923690462
0.216827392578125	-0.0088836669921875	5186.81136190456
0.22125244140625	-0.0083404541015625	5186.8334869045
0.225677490234375	-0.0078094482421875	5186.85561190445
0.2301025390625	-0.007275390625	5186.87773690439
0.234527587890625	-0.0067535400390625	5186.89986190434
0.23895263671875	-0.0062286376953125	5186.92198690428
0.243377685546875	-0.005712890625	5186.94411190422
0.247802734375	-0.0052001953125	5186.96623690417
0.252227783203125	-0.0046923828125	5186.98836190411
0.25665283203125	-0.004189453125	5187.01048690406
0.261077880859375	-0.0036895751953125	5187.032611904
0.2655029296875	-0.0031951904296875	5187.05473690395
0.269927978515625	-0.002703857421875	5187.07686190389
0.27435302734375	-0.0022271728515625	5187.09898690383
0.278778076171875	-0.00174224853515625	5187.12111190378
0.283203125	-0.0012628173828125	5187.14323690372
0.287628173828125	-0.00078704833984375	5187.16536190367
0.29205322265625	-0.00031597900390625	5187.18748690361
0.296478271484375	0.000151580810546875	5187.20961190356
0.3009033203125	0.0006146240234375	5187.2317369035
0.305328369140625	0.00107452392578125	5187.25386190344
0.30975341796875	0.00153076171875	5187.27598690339
0.314178466796875	0.00198699951171875	5187.29811190333
0.318603515625	0.0024365234375	5187.32023690328
0.323028564453125	0.0028814697265625	5187.34236190322
0.32745361328125	0.00332244873046875	5187.36448690316
0.331878662109375	0.00376007080078125	5187.38661190311
0.3363037109375	0.00419097900390625	5187.40873690305
0.340728759765625	0.00462249755859375	5187.430861903
0.34515380859375	0.0050506591796875	5187.45298690294
0.349578857421875	0.005474853515625	5187.47511190288
0.35400390625	0.00589202880859375	5187.49723690283
0.358428955078125	0.006309814453125	5187.51936190277
0.36285400390625	0.0067108154296875	5187.54148690272
0.367279052734375	0.0071197509765625	5187.56361190266
0.3717041015625	0.0075286865234375	5187.58573690261
0.376129150390625	0.007928466796875	5187.60786190255
0.38055419921875	0.008331298828125	5187.62998690249
0.384979248046875	0.0087249755859375	5187.65211190244
0.389404296875	0.00911865234375	5187.67423690238
0.393829345703125	0.0095062255859375	5187.69636190233
0.39825439453125	0.009893798828125	5187.71848690227
0.402679443359375	0.0102752685546875	5187.74061190221
0.4071044921875	0.0106597900390625	5187.76273690216
0.411529541015625	0.0110321044921875	5187.7848619021
0.41595458984375	0.0114044189453125	5187.80698690205
0.420379638671875	0.0117767333984375	5187.82911190199
0.4248046875	0.0121490478515625	5187.85123690193
0.429229736328125	0.0125152587890625	5187.87336190188
0.43365478515625	0.0128753662109375	5187.89548690182
0.438079833984375	0.013238525390625	5187.91761190177
0.4425048828125	0.013592529296875	5187.93973690171
0.446929931640625	0.01395263671875	5187.96186190166
0.45135498046875	0.0142974853515625	5187.9839869016
0.455780029296875	0.0146484375	5188.00611190154
0.460205078125	0.0149932861328125	5188.02823690149
0.464630126953125	0.015338134765625	5188.05036190143
0.46905517578125	0.015673828125	5188.07248690138
0.473480224609375	0.016015625	5188.09461190132
0.4779052734375	0.016351318359375	5188.11673690126
0.482330322265625	0.016680908203125	5188.13886190121
0.48675537109375	0.0170135498046875	5188.16098690115
0.491180419921875	0.017333984375	5188.1831119011
0.49560546875	0.0176605224609375	5188.20523690104
0.500030517578125	0.01798095703125	5188.22736190098
0.50445556640625	0.0183013916015625	5188.24948690093
0.508880615234375	0.01861572265625	5188.27161190087
0.5133056640625	0.0189300537109375	5188.29373690082
0.517730712890625	0.0192413330078125	5188.31586190076
0.52215576171875	0.0195526123046875	5188.33798690071
0.526580810546875	0.01986083984375	5188.36011190065
0.531005859375	0.020166015625	5188.38223690059
0.535430908203125	0.020465087890625	5188.40436190054
0.53985595703125	0.02076416015625	5188.42648690048
0.544281005859375	0.021063232421875	5188.44861190043
0.5487060546875	0.021356201171875	5188.47073690037
0.553131103515625	0.0216552734375	5188.49286190031
0.55755615234375	0.021942138671875	5188.51498690026
0.561981201171875	0.0222381591796875	5188.5371119002
0.56640625	0.0225250244140625	5188.55923690015
0.570831298828125	0.022808837890625	5188.58136190009
0.57525634765625	0.023089599609375	5188.60348690004
0.579681396484375	0.0233734130859375	5188.62561189998
0.5841064453125	0.02364501953125	5188.64773689992
0.588531494140625	0.023919677734375	5188.66986189987
0.59295654296875	0.024200439453125	5188.69198689981
0.597381591796875	0.024468994140625	5188.71411189976
0.601806640625	0.024749755859375	5188.7362368997
0.606231689453125	0.025006103515625	5188.75836189964
0.61065673828125	0.02528076171875	5188.78048689959
0.615081787109375	0.02554931640625	5188.80261189953
0.6195068359375	0.02581787109375	5188.82473689948
0.623931884765625	0.026080322265625	5188.84686189942
0.62835693359375	0.026348876953125	5188.86898689937
0.632781982421875	0.0266021728515625	5188.89111189931
0.63720703125	0.0268585205078125	5188.91323689925
0.641632080078125	0.0271148681640625	5188.9353618992
0.64605712890625	0.0273651123046875	5188.95748689914
0.650482177734375	0.027618408203125	5188.97961189909
0.6549072265625	0.027862548828125	5189.00173689903
0.659332275390625	0.02811279296875	5189.02386189897
0.66375732421875	0.0283538818359375	5189.04598689892
0.668182373046875	0.02860107421875	5189.06811189886
0.672607421875	0.028839111328125	5189.09023689881
0.677032470703125	0.0290802001953125	5189.11236189875
0.68145751953125	0.0293182373046875	5189.13448689869
0.685882568359375	0.0295501708984375	5189.15661189864
0.6903076171875	0.02978515625	5189.17873689858
0.694732666015625	0.0300140380859375	5189.20086189853
0.69915771484375	0.0302490234375	5189.22298689847
0.703582763671875	0.030474853515625	5189.24511189842
0.7080078125	0.030706787109375	5189.26723689836
0.712432861328125	0.0309295654296875	5189.2893618983
0.71685791015625	0.031158447265625	5189.31148689825
0.721282958984375	0.031378173828125	5189.33361189819
0.7257080078125	0.03160400390625	5189.35573689814
0.730133056640625	0.0318206787109375	5189.37786189808
0.73455810546875	0.032037353515625	5189.39998689802
0.738983154296875	0.032257080078125	5189.42211189797
0.743408203125	0.0324615478515625	5189.44423689791
0.747833251953125	0.03267822265625	5189.46636189786
0.75225830078125	0.0328857421875	5189.4884868978
0.756683349609375	0.033099365234375	5189.51061189775
0.7611083984375	0.0333038330078125	5189.53273689769
0.765533447265625	0.0335174560546875	5189.55486189763
0.76995849609375	0.0337188720703125	5189.57698689758
0.774383544921875	0.0339263916015625	5189.59911189752
0.77880859375	0.0341278076171875	5189.62123689747
0.783233642578125	0.034326171875	5189.64336189741
0.78765869140625	0.034521484375	5189.66548689735
0.792083740234375	0.034716796875	5189.6876118973
0.7965087890625	0.034918212890625	5189.70973689724
0.800933837890625	0.0351104736328125	5189.73186189719
0.80535888671875	0.0353057861328125	5189.75398689713
0.809783935546875	0.0354949951171875	5189.77611189707
0.814208984375	0.0356903076171875	5189.79823689702
0.818634033203125	0.03587646484375	5189.82036189696
0.82305908203125	0.036065673828125	5189.84248689691
0.827484130859375	0.036248779296875	5189.86461189685
0.8319091796875	0.0364349365234375	5189.8867368968
0.836334228515625	0.03662109375	5189.90886189674
0.84075927734375	0.0368011474609375	5189.93098689668
0.845184326171875	0.0369842529296875	5189.95311189663
0.849609375	0.037158203125	5189.97523689657
0.854034423828125	0.03734130859375	5189.99736189652
0.85845947265625	0.0375091552734375	5190.01948689646
0.862884521484375	0.037689208984375	5190.0416118964
0.8673095703125	0.0378570556640625	5190.06373689635
0.871734619140625	0.0380340576171875	5190.08586189629
0.87615966796875	0.0381988525390625	5190.10798689624
0.880584716796875	0.03836669921875	5190.13011189618
0.885009765625	0.0385345458984375	5190.15223689613
0.889434814453125	0.038702392578125	5190.17436189607
0.89385986328125	0.0388671875	5190.19648689601
0.898284912109375	0.039031982421875	5190.21861189596
0.9027099609375	0.0391876220703125	5190.2407368959
0.907135009765625	0.03934326171875	5190.26286189585
0.91156005859375	0.039508056640625	5190.28498689579
0.915985107421875	0.03966064453125	5190.30711189573
0.92041015625	0.0398162841796875	5190.32923689568
0.924835205078125	0.0399688720703125	5190.35136189562
0.92926025390625	0.0401275634765625	5190.37348689557
0.933685302734375	0.0402801513671875	5190.39561189551
0.9381103515625	0.0404388427734375	5190.41773689546
0.942535400390625	0.040582275390625	5190.4398618954
0.94696044921875	0.0407318115234375	5190.46198689534
0.951385498046875	0.04088134765625	5190.48411189529
0.955810546875	0.0410247802734375	5190.50623689523
0.960235595703125	0.04117431640625	5190.52836189518
0.96466064453125	0.041314697265625	5190.55048689512
0.969085693359375	0.0414581298828125	5190.57261189506
0.9735107421875	0.0415985107421875	5190.59473689501
0.977935791015625	0.041741943359375	5190.61686189495
0.98236083984375	0.0418792724609375	5190.6389868949
0.986785888671875	0.042022705078125	5190.66111189484
0.9912109375	0.042156982421875	5190.68323689478
