Potential applied (V)	WE(1).Current (A)	Time (s)
0.004425048828125	-0.09141845703125	3890.96910817625
0.00885009765625	-0.0767913818359375	3891.41161317513
0.013275146484375	-0.065087890625	3891.85411817401
0.0177001953125	-0.0556304931640625	3892.2966231729
0.022125244140625	-0.0480072021484375	3892.73912817178
0.02655029296875	-0.0416717529296875	3893.18163317066
0.030975341796875	-0.0363067626953125	3893.62413816954
0.035400390625	-0.0316802978515625	3894.06664316843
0.039825439453125	-0.0276580810546875	3894.50914816731
0.04425048828125	-0.0241546630859375	3894.95165316619
0.048675537109375	-0.0211090087890625	3895.39415816508
0.0531005859375	-0.01845703125	3895.83666316396
0.057525634765625	-0.0161376953125	3896.27916816284
0.06195068359375	-0.014111328125	3896.72167316172
0.066375732421875	-0.01234130859375	3897.16417816061
0.07080078125	-0.0107879638671875	3897.60668315949
0.075225830078125	-0.0094207763671875	3898.04918815837
0.07965087890625	-0.0082244873046875	3898.49169315725
0.084075927734375	-0.00716552734375	3898.93419815614
0.0885009765625	-0.0062286376953125	3899.37670315502
0.092926025390625	-0.0053924560546875	3899.8192081539
0.09735107421875	-0.00465667724609375	3900.26171315279
0.101776123046875	-0.00399932861328125	3900.70421815167
0.106201171875	-0.0034130859375	3901.14672315055
0.110626220703125	-0.00288909912109375	3901.58922814943
0.11505126953125	-0.00241851806640625	3902.03173314832
0.119476318359375	-0.00200714111328125	3902.4742381472
0.1239013671875	-0.00162506103515625	3902.91674314608
0.128326416015625	-0.0012811279296875	3903.35924814497
0.13275146484375	-0.0009698486328125	3903.80175314385
0.137176513671875	-0.00068878173828125	3904.24425814273
0.1416015625	-0.000432647705078125	3904.68676314161
0.146026611328125	-0.0001995849609375	3905.1292681405
0.15045166015625	1.1767578125E-05	3905.57177313938
0.154876708984375	0.000205078125	3906.01427813826
0.1593017578125	0.00038128662109375	3906.45678313714
0.163726806640625	0.00054388427734375	3906.89928813603
0.16815185546875	0.00069287109375	3907.34179313491
0.172576904296875	0.000830078125	3907.78429813379
0.177001953125	0.00095550537109375	3908.22680313268
0.181427001953125	0.0010723876953125	3908.66930813156
0.18585205078125	0.00117950439453125	3909.11181313044
0.190277099609375	0.0012774658203125	3909.55431812932
0.1947021484375	0.00136932373046875	3909.99682312821
0.199127197265625	0.001456298828125	3910.43932812709
0.20355224609375	0.00153778076171875	3910.88183312597
0.207977294921875	0.00161407470703125	3911.32433812486
0.21240234375	0.00168487548828125	3911.76684312374
0.216827392578125	0.0017510986328125	3912.20934812262
0.22125244140625	0.00181488037109375	3912.6518531215
0.225677490234375	0.0018743896484375	3913.09435812039
0.2301025390625	0.00193023681640625	3913.53686311927
0.234527587890625	0.00198089599609375	3913.97936811815
0.23895263671875	0.0020306396484375	3914.42187311703
0.243377685546875	0.0020782470703125	3914.86437811592
0.247802734375	0.0021234130859375	3915.3068831148
0.252227783203125	0.002166748046875	3915.74938811368
0.25665283203125	0.0022076416015625	3916.19189311257
0.261077880859375	0.00224700927734375	3916.63439811145
0.2655029296875	0.002283935546875	3917.07690311033
0.269927978515625	0.002320556640625	3917.51940810921
0.27435302734375	0.0023553466796875	3917.9619131081
0.278778076171875	0.0023895263671875	3918.40441810698
0.283203125	0.0024212646484375	3918.84692310586
0.287628173828125	0.00245330810546875	3919.28942810475
0.29205322265625	0.0024847412109375	3919.73193310363
0.296478271484375	0.0025152587890625	3920.17443810251
0.3009033203125	0.0025439453125	3920.61694310139
0.305328369140625	0.0025726318359375	3921.05944810028
0.30975341796875	0.00260040283203125	3921.50195309916
0.314178466796875	0.0026300048828125	3921.94445809804
0.318603515625	0.0026556396484375	3922.38696309692
0.323028564453125	0.0026812744140625	3922.82946809581
0.32745361328125	0.0027056884765625	3923.27197309469
0.331878662109375	0.002730712890625	3923.71447809357
0.3363037109375	0.00275421142578125	3924.15698309246
0.340728759765625	0.00277801513671875	3924.59948809134
0.34515380859375	0.002801513671875	3925.04199309022
0.349578857421875	0.00282379150390625	3925.4844980891
0.35400390625	0.00284423828125	3925.92700308799
0.358428955078125	0.0028668212890625	3926.36950808687
0.36285400390625	0.0028887939453125	3926.81201308575
0.367279052734375	0.00291168212890625	3927.25451808464
0.3717041015625	0.00293243408203125	3927.69702308352
0.376129150390625	0.00295318603515625	3928.1395280824
0.38055419921875	0.00297332763671875	3928.58203308128
0.384979248046875	0.00299407958984375	3929.02453808017
0.389404296875	0.00301361083984375	3929.46704307905
0.393829345703125	0.00303253173828125	3929.90954807793
0.39825439453125	0.0030517578125	3930.35205307682
0.402679443359375	0.003070068359375	3930.7945580757
0.4071044921875	0.00308868408203125	3931.23706307458
0.411529541015625	0.00310699462890625	3931.67956807346
0.41595458984375	0.003125	3932.12207307235
0.420379638671875	0.00314208984375	3932.56457807123
0.4248046875	0.0031591796875	3933.00708307011
0.429229736328125	0.00317596435546875	3933.44958806899
0.43365478515625	0.003192138671875	3933.89209306788
0.438079833984375	0.00320831298828125	3934.33459806676
0.4425048828125	0.0032232666015625	3934.77710306564
0.446929931640625	0.0032391357421875	3935.21960806453
0.45135498046875	0.00325439453125	3935.66211306341
0.455780029296875	0.0032696533203125	3936.10461806229
0.460205078125	0.00328369140625	3936.54712306117
0.464630126953125	0.003297119140625	3936.98962806006
0.46905517578125	0.003310546875	3937.43213305894
0.473480224609375	0.003323974609375	3937.87463805782
0.4779052734375	0.00333709716796875	3938.3171430567
0.482330322265625	0.0033502197265625	3938.75964805559
0.48675537109375	0.003363037109375	3939.20215305447
0.491180419921875	0.00337493896484375	3939.64465805335
0.49560546875	0.00338653564453125	3940.08716305224
0.500030517578125	0.00339813232421875	3940.52966805112
0.50445556640625	0.00340972900390625	3940.97217305
0.508880615234375	0.00342071533203125	3941.41467804888
0.5133056640625	0.003431396484375	3941.85718304777
0.517730712890625	0.00344085693359375	3942.29968804665
0.52215576171875	0.0034503173828125	3942.74219304553
0.526580810546875	0.0034600830078125	3943.18469804442
0.531005859375	0.00346893310546875	3943.6272030433
0.535430908203125	0.0034783935546875	3944.06970804218
0.53985595703125	0.003486328125	3944.51221304106
0.544281005859375	0.00349334716796875	3944.95471803995
0.5487060546875	0.003499755859375	3945.39722303883
0.553131103515625	0.00350799560546875	3945.83972803771
0.55755615234375	0.00351531982421875	3946.2822330366
0.561981201171875	0.00352203369140625	3946.72473803548
0.56640625	0.00352813720703125	3947.16724303436
0.570831298828125	0.00353485107421875	3947.60974803324
0.57525634765625	0.00354034423828125	3948.05225303213
0.579681396484375	0.003546142578125	3948.49475803101
0.5841064453125	0.0035516357421875	3948.93726302989
0.588531494140625	0.0035546875	3949.37976802877
0.59295654296875	0.00355987548828125	3949.82227302766
0.597381591796875	0.00356475830078125	3950.26477802654
0.601806640625	0.00356964111328125	3950.70728302542
0.606231689453125	0.00357513427734375	3951.14978802431
0.61065673828125	0.00357879638671875	3951.59229302319
0.615081787109375	0.0035833740234375	3952.03479802207
0.6195068359375	0.00358734130859375	3952.47730302095
0.623931884765625	0.00359100341796875	3952.91980801984
0.62835693359375	0.0035986328125	3953.36231301872
0.632781982421875	0.0036016845703125	3953.8048180176
0.63720703125	0.003603515625	3954.24732301649
0.641632080078125	0.00360687255859375	3954.68982801537
0.64605712890625	0.00361053466796875	3955.13233301425
0.650482177734375	0.00361328125	3955.57483801313
0.6549072265625	0.00361602783203125	3956.01734301202
0.659332275390625	0.00361846923828125	3956.4598480109
0.66375732421875	0.00362152099609375	3956.90235300978
0.668182373046875	0.00362457275390625	3957.34485800866
0.672607421875	0.0036273193359375	3957.78736300755
0.677032470703125	0.0036297607421875	3958.22986800643
0.68145751953125	0.00363250732421875	3958.67237300531
0.685882568359375	0.00363525390625	3959.1148780042
0.6903076171875	0.003638916015625	3959.55738300308
0.694732666015625	0.00364166259765625	3959.99988800196
0.69915771484375	0.00364501953125	3960.44239300084
0.703582763671875	0.00364654541015625	3960.88489799973
0.7080078125	0.0036505126953125	3961.32740299861
0.712432861328125	0.00365478515625	3961.76990799749
0.71685791015625	0.003658447265625	3962.21241299638
0.721282958984375	0.00366241455078125	3962.65491799526
0.7257080078125	0.00366546630859375	3963.09742299414
0.730133056640625	0.0036700439453125	3963.53992799302
0.73455810546875	0.00367431640625	3963.98243299191
0.738983154296875	0.00367889404296875	3964.42493799079
0.743408203125	0.003681640625	3964.86744298967
0.747833251953125	0.0036871337890625	3965.30994798855
0.75225830078125	0.00369293212890625	3965.75245298744
0.756683349609375	0.00369903564453125	3966.19495798632
0.7611083984375	0.0037066650390625	3966.6374629852
0.765533447265625	0.00371307373046875	3967.07996798409
0.76995849609375	0.00372039794921875	3967.52247298297
0.774383544921875	0.00372802734375	3967.96497798185
0.77880859375	0.003736572265625	3968.40748298073
0.783233642578125	0.0037457275390625	3968.84998797962
0.78765869140625	0.0037554931640625	3969.2924929785
0.792083740234375	0.00376617431640625	3969.73499797738
0.7965087890625	0.00377777099609375	3970.17750297627
0.800933837890625	0.0037908935546875	3970.62000797515
0.80535888671875	0.00380523681640625	3971.06251297403
0.809783935546875	0.0038201904296875	3971.50501797291
0.814208984375	0.00383575439453125	3971.9475229718
0.818634033203125	0.003853759765625	3972.39002797068
0.82305908203125	0.0038720703125	3972.83253296956
0.827484130859375	0.00389312744140625	3973.27503796844
0.8319091796875	0.003914794921875	3973.71754296733
0.836334228515625	0.00393890380859375	3974.16004796621
0.84075927734375	0.0039642333984375	3974.60255296509
0.845184326171875	0.00399139404296875	3975.04505796398
0.849609375	0.00402099609375	3975.48756296286
0.854034423828125	0.004052734375	3975.93006796174
0.85845947265625	0.00408599853515625	3976.37257296062
0.862884521484375	0.004119873046875	3976.81507795951
0.8673095703125	0.00415771484375	3977.25758295839
0.871734619140625	0.00419830322265625	3977.70008795727
0.87615966796875	0.00424041748046875	3978.14259295616
0.880584716796875	0.00428497314453125	3978.58509795504
0.885009765625	0.0043316650390625	3979.02760295392
0.889434814453125	0.0043817138671875	3979.4701079528
0.89385986328125	0.0044342041015625	3979.91261295169
0.898284912109375	0.0044891357421875	3980.35511795057
0.9027099609375	0.00454620361328125	3980.79762294945
0.907135009765625	0.0046063232421875	3981.24012794833
0.91156005859375	0.004669189453125	3981.68263294722
0.915985107421875	0.0047332763671875	3982.1251379461
0.92041015625	0.004801025390625	3982.56764294498
0.924835205078125	0.00487152099609375	3983.01014794387
0.92926025390625	0.0049432373046875	3983.45265294275
0.933685302734375	0.00501800537109375	3983.89515794163
0.9381103515625	0.00509796142578125	3984.33766294051
0.942535400390625	0.005177001953125	3984.7801679394
0.94696044921875	0.00525909423828125	3985.22267293828
0.951385498046875	0.00534210205078125	3985.66517793716
0.955810546875	0.0054278564453125	3986.10768293605
0.960235595703125	0.00551513671875	3986.55018793493
0.96466064453125	0.005604248046875	3986.99269293381
0.969085693359375	0.0056951904296875	3987.43519793269
0.9735107421875	0.00578857421875	3987.87770293158
0.977935791015625	0.0058795166015625	3988.32020793046
0.98236083984375	0.0059735107421875	3988.76271292934
0.986785888671875	0.00607025146484375	3989.20521792823
0.9912109375	0.0061553955078125	3989.64772292711
0.995635986328125	0.0062469482421875	3990.09022792599
1.00006103515625	0.006341552734375	3990.53273292487
0.995635986328125	0.0055389404296875	3990.97523792376
0.9912109375	0.00483642578125	3991.41774292264
0.986785888671875	0.00420745849609375	3991.86024792152
0.98236083984375	0.00363861083984375	3992.3027529204
0.977935791015625	0.00311981201171875	3992.74525791929
0.9735107421875	0.0026458740234375	3993.18776291817
0.969085693359375	0.002208251953125	3993.63026791705
0.96466064453125	0.00180206298828125	3994.07277291594
0.960235595703125	0.00142486572265625	3994.51527791482
0.955810546875	0.00107391357421875	3994.9577829137
0.951385498046875	0.00074615478515625	3995.40028791258
0.94696044921875	0.000439697265625	3995.84279291147
0.942535400390625	0.000153656005859375	3996.28529791035
0.9381103515625	-0.000114166259765625	3996.72780290923
0.933685302734375	-0.000367950439453125	3997.17030790812
0.92926025390625	-0.0006024169921875	3997.612812907
0.924835205078125	-0.00082275390625	3998.05531790588
0.92041015625	-0.0010296630859375	3998.49782290476
0.915985107421875	-0.00122314453125	3998.94032790365
0.91156005859375	-0.001405029296875	3999.38283290253
0.907135009765625	-0.00157623291015625	3999.82533790141
0.9027099609375	-0.00173583984375	4000.26784290029
0.898284912109375	-0.001885986328125	4000.71034789918
0.89385986328125	-0.00202728271484375	4001.15285289806
0.889434814453125	-0.0021588134765625	4001.59535789694
0.885009765625	-0.00228179931640625	4002.03786289583
0.880584716796875	-0.002396240234375	4002.48036789471
0.87615966796875	-0.00250274658203125	4002.92287289359
0.871734619140625	-0.0026031494140625	4003.36537789247
0.8673095703125	-0.00269622802734375	4003.80788289136
0.862884521484375	-0.0027825927734375	4004.25038789024
0.85845947265625	-0.0028607177734375	4004.69289288912
0.854034423828125	-0.0029345703125	4005.13539788801
0.849609375	-0.0030029296875	4005.57790288689
0.845184326171875	-0.0030657958984375	4006.02040788577
0.84075927734375	-0.0031231689453125	4006.46291288465
0.836334228515625	-0.00317626953125	4006.90541788354
0.8319091796875	-0.00322357177734375	4007.34792288242
0.827484130859375	-0.0032666015625	4007.7904278813
0.82305908203125	-0.0033062744140625	4008.23293288018
0.818634033203125	-0.00334197998046875	4008.67543787907
0.814208984375	-0.00337432861328125	4009.11794287795
0.809783935546875	-0.00340057373046875	4009.56044787683
0.80535888671875	-0.0034246826171875	4010.00295287572
0.800933837890625	-0.0034454345703125	4010.4454578746
0.7965087890625	-0.00346435546875	4010.88796287348
0.792083740234375	-0.003480224609375	4011.33046787236
0.78765869140625	-0.00349273681640625	4011.77297287125
0.783233642578125	-0.00350311279296875	4012.21547787013
0.77880859375	-0.0035113525390625	4012.65798286901
0.774383544921875	-0.00351837158203125	4013.1004878679
0.76995849609375	-0.003524169921875	4013.54299286678
0.765533447265625	-0.0035272216796875	4013.98549786566
0.7611083984375	-0.00352935791015625	4014.42800286454
0.756683349609375	-0.00352996826171875	4014.87050786343
0.75225830078125	-0.0035308837890625	4015.31301286231
0.747833251953125	-0.00352935791015625	4015.75551786119
0.743408203125	-0.00352691650390625	4016.19802286007
0.738983154296875	-0.003521728515625	4016.64052785896
0.73455810546875	-0.0035186767578125	4017.08303285784
0.730133056640625	-0.00351531982421875	4017.52553785672
0.7257080078125	-0.0035113525390625	4017.96804285561
0.721282958984375	-0.00350738525390625	4018.41054785449
0.71685791015625	-0.00350311279296875	4018.85305285337
0.712432861328125	-0.00349761962890625	4019.29555785225
0.7080078125	-0.003492431640625	4019.73806285114
0.703582763671875	-0.00348663330078125	4020.18056785002
0.69915771484375	-0.00348114013671875	4020.6230728489
0.694732666015625	-0.00347625732421875	4021.06557784779
0.6903076171875	-0.0034716796875	4021.50808284667
0.685882568359375	-0.00346649169921875	4021.95058784555
0.68145751953125	-0.00346221923828125	4022.39309284443
0.677032470703125	-0.00345855712890625	4022.83559784332
0.672607421875	-0.00345458984375	4023.2781028422
0.668182373046875	-0.003450927734375	4023.72060784108
0.66375732421875	-0.00344696044921875	4024.16311283996
0.659332275390625	-0.0034442138671875	4024.60561783885
0.6549072265625	-0.003441162109375	4025.04812283773
0.650482177734375	-0.00343902587890625	4025.49062783661
0.64605712890625	-0.00343719482421875	4025.9331328355
0.641632080078125	-0.00343505859375	4026.37563783438
0.63720703125	-0.00343414306640625	4026.81814283326
0.632781982421875	-0.00343292236328125	4027.26064783214
0.62835693359375	-0.00343231201171875	4027.70315283103
0.623931884765625	-0.00343658447265625	4028.14565782991
0.6195068359375	-0.003436279296875	4028.58816282879
0.615081787109375	-0.00343597412109375	4029.03066782768
0.61065673828125	-0.00343658447265625	4029.47317282656
0.606231689453125	-0.00343841552734375	4029.91567782544
0.601806640625	-0.00343994140625	4030.35818282432
0.597381591796875	-0.0034423828125	4030.80068782321
0.59295654296875	-0.00344482421875	4031.24319282209
0.588531494140625	-0.0034478759765625	4031.68569782097
0.5841064453125	-0.00344970703125	4032.12820281985
0.579681396484375	-0.00345458984375	4032.57070781874
0.57525634765625	-0.00345916748046875	4033.01321281762
0.570831298828125	-0.0034649658203125	4033.4557178165
0.56640625	-0.00347076416015625	4033.89822281539
0.561981201171875	-0.0034771728515625	4034.34072781427
0.55755615234375	-0.00348480224609375	4034.78323281315
0.553131103515625	-0.00349151611328125	4035.22573781203
0.5487060546875	-0.00349853515625	4035.66824281092
0.544281005859375	-0.00350616455078125	4036.1107478098
0.53985595703125	-0.003515625	4036.55325280868
0.535430908203125	-0.0035247802734375	4036.99575780757
0.531005859375	-0.00353485107421875	4037.43826280645
0.526580810546875	-0.00354522705078125	4037.88076780533
0.52215576171875	-0.00355621337890625	4038.32327280421
0.517730712890625	-0.00356719970703125	4038.7657778031
0.5133056640625	-0.0035791015625	4039.20828280198
0.508880615234375	-0.00359100341796875	4039.65078780086
0.50445556640625	-0.00360198974609375	4040.09329279975
0.500030517578125	-0.0036151123046875	4040.53579779863
0.49560546875	-0.0036279296875	4040.97830279751
0.491180419921875	-0.003641357421875	4041.42080779639
0.48675537109375	-0.00365509033203125	4041.86331279528
0.482330322265625	-0.003668212890625	4042.30581779416
0.4779052734375	-0.00368194580078125	4042.74832279304
0.473480224609375	-0.00369537353515625	4043.19082779192
0.46905517578125	-0.0037091064453125	4043.63333279081
0.464630126953125	-0.0037225341796875	4044.07583778969
0.460205078125	-0.00373687744140625	4044.51834278857
0.455780029296875	-0.0037506103515625	4044.96084778746
0.45135498046875	-0.0037640380859375	4045.40335278634
0.446929931640625	-0.00377716064453125	4045.84585778522
0.4425048828125	-0.003790283203125	4046.2883627841
0.438079833984375	-0.0038031005859375	4046.73086778299
0.43365478515625	-0.00381500244140625	4047.17337278187
0.429229736328125	-0.00382659912109375	4047.61587778075
0.4248046875	-0.00383819580078125	4048.05838277963
0.420379638671875	-0.003848876953125	4048.50088777852
0.41595458984375	-0.00385894775390625	4048.9433927774
0.411529541015625	-0.003868408203125	4049.38589777628
0.4071044921875	-0.0038775634765625	4049.82840277517
0.402679443359375	-0.00388580322265625	4050.27090777405
0.39825439453125	-0.00389312744140625	4050.71341277293
0.393829345703125	-0.0039007568359375	4051.15591777181
0.389404296875	-0.00390533447265625	4051.5984227707
0.384979248046875	-0.0039111328125	4052.04092776958
0.38055419921875	-0.00391571044921875	4052.48343276846
0.376129150390625	-0.00391937255859375	4052.92593776735
0.3717041015625	-0.0039239501953125	4053.36844276623
