Time (s)	WE(1).Potential (V)
1067.42561830501	0.77850341796875
1068.42561830248	0.7708740234375
1069.42561829996	0.76385498046875
1070.42561829743	0.75775146484375
1071.42561829491	0.75164794921875
1072.42561829239	0.74615478515625
1073.42561828986	0.7403564453125
1074.42561828734	0.73516845703125
1075.42561828481	0.72998046875
1076.42561828229	0.72479248046875
1077.42561827976	0.7196044921875
1078.42561827724	0.7147216796875
1079.42561827471	0.7098388671875
1080.42561827219	0.7049560546875
1081.42561826966	0.7000732421875
1082.42561826714	0.69549560546875
1083.42561826461	0.69061279296875
1084.42561826209	0.68603515625
1085.42561825956	0.68145751953125
1086.42561825704	0.67657470703125
1087.42561825451	0.6719970703125
1088.42561825199	0.66741943359375
1089.42561824946	0.662841796875
1090.42561824694	0.65826416015625
1091.42561824442	0.65399169921875
1092.42561824189	0.6494140625
1093.42561823937	0.64483642578125
1094.42561823684	0.64056396484375
1095.42561823432	0.635986328125
1096.42561823179	0.6317138671875
1097.42561822927	0.62713623046875
1098.42561822674	0.6231689453125
1099.42561822422	0.61859130859375
1100.42561822169	0.61431884765625
1101.42561821917	0.61004638671875
1102.42561821664	0.60577392578125
1103.42561821412	0.60150146484375
1104.42561821159	0.596923828125
1105.42561820907	0.5926513671875
1106.42561820654	0.58837890625
1107.42561820402	0.5841064453125
1108.42561820149	0.58013916015625
1109.42561819897	0.57586669921875
1110.42561819644	0.57159423828125
1111.42561819392	0.56732177734375
1112.4256181914	0.56304931640625
1113.42561818887	0.55908203125
1114.42561818635	0.5548095703125
1115.42561818382	0.550537109375
1116.4256181813	0.54656982421875
1117.42561817877	0.5426025390625
1118.42561817625	0.538330078125
1119.42561817372	0.53436279296875
1120.4256181712	0.53009033203125
1121.42561816867	0.526123046875
1122.42561816615	0.5218505859375
1123.42561816362	0.51788330078125
1124.4256181611	0.513916015625
1125.42561815857	0.50994873046875
1126.42561815605	0.50567626953125
1127.42561815352	0.501708984375
1128.425618151	0.497802734375
1129.42561814847	0.493804931640625
1130.42561814595	0.48980712890625
1131.42561814342	0.48583984375
1132.4256181409	0.481903076171875
1133.42561813838	0.477935791015625
1134.42561813585	0.4739990234375
1135.42561813333	0.470062255859375
1136.4256181308	0.466156005859375
1137.42561812828	0.46221923828125
1138.42561812575	0.45831298828125
1139.42561812323	0.45440673828125
1140.4256181207	0.4505615234375
1141.42561811818	0.4466552734375
1142.42561811565	0.44281005859375
1143.42561811313	0.438934326171875
1144.4256181106	0.435089111328125
1145.42561810808	0.431243896484375
1146.42561810555	0.427398681640625
1147.42561810303	0.423583984375
1148.4256181005	0.4197998046875
1149.42561809798	0.415985107421875
1150.42561809545	0.412200927734375
1151.42561809293	0.408416748046875
1152.4256180904	0.4046630859375
1153.42561808788	0.400909423828125
1154.42561808536	0.39715576171875
1155.42561808283	0.393402099609375
1156.42561808031	0.38970947265625
1157.42561807778	0.385986328125
1158.42561807526	0.382293701171875
1159.42561807273	0.378570556640625
1160.42561807021	0.374908447265625
1161.42561806768	0.3712158203125
1162.42561806516	0.3675537109375
1163.42561806263	0.3638916015625
1164.42561806011	0.360260009765625
1165.42561805758	0.356658935546875
1166.42561805506	0.35302734375
1167.42561805253	0.34942626953125
1168.42561805001	0.345794677734375
1169.42561804748	0.342254638671875
1170.42561804496	0.338653564453125
1171.42561804243	0.3350830078125
1172.42561803991	0.331512451171875
1173.42561803738	0.3280029296875
1174.42561803486	0.324462890625
1175.42561803234	0.320953369140625
1176.42561802981	0.31744384765625
1177.42561802729	0.313934326171875
1178.42561802476	0.3104248046875
1179.42561802224	0.30694580078125
1180.42561801971	0.303466796875
1181.42561801719	0.300018310546875
1182.42561801466	0.296600341796875
1183.42561801214	0.29315185546875
1184.42561800961	0.289703369140625
1185.42561800709	0.286285400390625
1186.42561800456	0.2828369140625
1187.42561800204	0.27947998046875
1188.42561799951	0.27606201171875
1189.42561799699	0.272674560546875
1190.42561799446	0.269287109375
1191.42561799194	0.265899658203125
1192.42561798941	0.2625732421875
1193.42561798689	0.259185791015625
1194.42561798437	0.255859375
1195.42561798184	0.25250244140625
1196.42561797932	0.249176025390625
1197.42561797679	0.245849609375
1198.42561797427	0.24249267578125
1199.42561797174	0.23919677734375
1200.42561796922	0.235870361328125
1201.42561796669	0.232574462890625
1202.42561796417	0.229278564453125
1203.42561796164	0.225982666015625
1204.42561795912	0.22265625
1205.42561795659	0.2193603515625
1206.42561795407	0.216094970703125
1207.42561795154	0.212799072265625
1208.42561794902	0.20953369140625
1209.42561794649	0.20623779296875
1210.42561794397	0.2030029296875
1211.42561794144	0.19970703125
1212.42561793892	0.196441650390625
1213.42561793639	0.19317626953125
1214.42561793387	0.189910888671875
1215.42561793135	0.1866455078125
1216.42561792882	0.183380126953125
1217.4256179263	0.18011474609375
1218.42561792377	0.1768798828125
1219.42561792125	0.173614501953125
1220.42561791872	0.17041015625
1221.4256179162	0.16717529296875
1222.42561791367	0.163970947265625
1223.42561791115	0.160736083984375
1224.42561790862	0.157501220703125
1225.4256179061	0.154327392578125
1226.42561790357	0.151123046875
1227.42561790105	0.14794921875
1228.42561789852	0.144744873046875
1229.425617896	0.141571044921875
1230.42561789347	0.138427734375
1231.42561789095	0.13525390625
1232.42561788842	0.132110595703125
1233.4256178859	0.12896728515625
1234.42561788337	0.125823974609375
1235.42561788085	0.122711181640625
1236.42561787833	0.11956787109375
1237.4256178758	0.116485595703125
1238.42561787328	0.113372802734375
1239.42561787075	0.110260009765625
1240.42561786823	0.107208251953125
1241.4256178657	0.104095458984375
1242.42561786318	0.101043701171875
1243.42561786065	0.09796142578125
1244.42561785813	0.094879150390625
1245.4256178556	0.091827392578125
1246.42561785308	0.088775634765625
1247.42561785055	0.085723876953125
1248.42561784803	0.082672119140625
1249.4256178455	0.079620361328125
1250.42561784298	0.076629638671875
1251.42561784045	0.073577880859375
1252.42561783793	0.070556640625
1253.4256178354	0.067535400390625
1254.42561783288	0.06451416015625
1255.42561783035	0.0615234375
1256.42561782783	0.058502197265625
1257.42561782531	0.05548095703125
1258.42561782278	0.052520751953125
1259.42561782026	0.049517822265625
1260.42561781773	0.0465423583984375
1261.42561781521	0.043572998046875
1262.42561781268	0.04061279296875
1263.42561781016	0.0376617431640625
1264.42561780763	0.0347198486328125
1265.42561780511	0.031787109375
1266.42561780258	0.0288665771484375
1267.42561780006	0.0259552001953125
1268.42561779753	0.0230560302734375
1269.42561779501	0.0201690673828125
1270.42561779248	0.0173004150390625
1271.42561778996	0.0144378662109375
1272.42561778743	0.0115936279296875
1273.42561778491	0.008758544921875
1274.42561778238	0.00594482421875001
1275.42561777986	0.00313720703125001
1276.42561777733	0.000347900390625003
1277.42561777481	-0.0024261474609375
1278.42561777229	-0.00518798828125
1279.42561776976	-0.0079315185546875
1280.42561776724	-0.010662841796875
