Potential applied (V)	WE(1).Current (A)	Time (s)
0.004425048828125	-0.0998687744140625	4591.83967340672
0.00885009765625	-0.0902740478515625	4592.06092540616
0.013275146484375	-0.0819671630859375	4592.2821774056
0.0177001953125	-0.0746368408203125	4592.50342940504
0.022125244140625	-0.0681365966796875	4592.72468140448
0.02655029296875	-0.06239013671875	4592.94593340393
0.030975341796875	-0.0572662353515625	4593.16718540337
0.035400390625	-0.052685546875	4593.38843740281
0.039825439453125	-0.048565673828125	4593.60968940225
0.04425048828125	-0.0448394775390625	4593.83094140169
0.048675537109375	-0.041448974609375	4594.05219340113
0.0531005859375	-0.038330078125	4594.27344540057
0.057525634765625	-0.03546142578125	4594.49469740002
0.06195068359375	-0.032806396484375	4594.71594939946
0.066375732421875	-0.0303375244140625	4594.9372013989
0.07080078125	-0.028057861328125	4595.15845339834
0.075225830078125	-0.0259307861328125	4595.37970539778
0.07965087890625	-0.0239501953125	4595.60095739722
0.084075927734375	-0.02210693359375	4595.82220939666
0.0885009765625	-0.0203857421875	4596.04346139611
0.092926025390625	-0.0187896728515625	4596.26471339555
0.09735107421875	-0.017291259765625	4596.48596539499
0.101776123046875	-0.0159027099609375	4596.70721739443
0.106201171875	-0.014605712890625	4596.92846939387
0.110626220703125	-0.01339111328125	4597.14972139331
0.11505126953125	-0.012261962890625	4597.37097339275
0.119476318359375	-0.0112030029296875	4597.5922253922
0.1239013671875	-0.0102142333984375	4597.81347739164
0.128326416015625	-0.009295654296875	4598.03472939108
0.13275146484375	-0.008428955078125	4598.25598139052
0.137176513671875	-0.0076263427734375	4598.47723338996
0.1416015625	-0.0068695068359375	4598.6984853894
0.146026611328125	-0.0061614990234375	4598.91973738884
0.15045166015625	-0.0054962158203125	4599.14098938829
0.154876708984375	-0.00487762451171875	4599.36224138773
0.1593017578125	-0.00429595947265625	4599.58349338717
0.163726806640625	-0.00374908447265625	4599.80474538661
0.16815185546875	-0.003236083984375	4600.02599738605
0.172576904296875	-0.00275421142578125	4600.24724938549
0.177001953125	-0.002310791015625	4600.46850138493
0.181427001953125	-0.0018841552734375	4600.68975338437
0.18585205078125	-0.0014825439453125	4600.91100538382
0.190277099609375	-0.00110443115234375	4601.13225738326
0.1947021484375	-0.00074920654296875	4601.3535093827
0.199127197265625	-0.0004134521484375	4601.57476138214
0.20355224609375	-9.7442626953125E-05	4601.79601338158
0.207977294921875	0.000200927734375	4602.01726538102
0.21240234375	0.00048297119140625	4602.23851738047
0.216827392578125	0.00074920654296875	4602.45976937991
0.22125244140625	0.0010003662109375	4602.68102137935
0.225677490234375	0.0012384033203125	4602.90227337879
0.2301025390625	0.0014630126953125	4603.12352537823
0.234527587890625	0.0016748046875	4603.34477737767
0.23895263671875	0.00187652587890625	4603.56602937711
0.243377685546875	0.00206695556640625	4603.78728137655
0.247802734375	0.00224761962890625	4604.008533376
0.252227783203125	0.00241790771484375	4604.22978537544
0.25665283203125	0.00258026123046875	4604.45103737488
0.261077880859375	0.00273529052734375	4604.67228937432
0.2655029296875	0.00288330078125	4604.89354137376
0.269927978515625	0.003023681640625	4605.1147933732
0.27435302734375	0.00315765380859375	4605.33604537264
0.278778076171875	0.00328582763671875	4605.55729737209
0.283203125	0.003406982421875	4605.77854937153
0.287628173828125	0.003525390625	4605.99980137097
0.29205322265625	0.00363739013671875	4606.22105337041
0.296478271484375	0.00374298095703125	4606.44230536985
0.3009033203125	0.00384490966796875	4606.66355736929
0.305328369140625	0.00394073486328125	4606.88480936873
0.30975341796875	0.00403411865234375	4607.10606136818
0.314178466796875	0.00412750244140625	4607.32731336762
0.318603515625	0.00421295166015625	4607.54856536706
0.323028564453125	0.0042950439453125	4607.7698173665
0.32745361328125	0.0043731689453125	4607.99106936594
0.331878662109375	0.00444976806640625	4608.21232136538
0.3363037109375	0.0045233154296875	4608.43357336482
0.340728759765625	0.00459503173828125	4608.65482536426
0.34515380859375	0.00466461181640625	4608.87607736371
0.349578857421875	0.004730224609375	4609.09732936315
0.35400390625	0.004793701171875	4609.31858136259
0.358428955078125	0.00485595703125	4609.53983336203
0.36285400390625	0.0049163818359375	4609.76108536147
0.367279052734375	0.00497467041015625	4609.98233736091
0.3717041015625	0.00503082275390625	4610.20358936036
0.376129150390625	0.0050860595703125	4610.4248413598
0.38055419921875	0.00513946533203125	4610.64609335924
0.384979248046875	0.00519134521484375	4610.86734535868
0.389404296875	0.0052423095703125	4611.08859735812
0.393829345703125	0.0052899169921875	4611.30984935756
0.39825439453125	0.00533782958984375	4611.531101357
0.402679443359375	0.00538482666015625	4611.75235335644
0.4071044921875	0.005430908203125	4611.97360535589
0.411529541015625	0.00547607421875	4612.19485735533
0.41595458984375	0.0055194091796875	4612.41610935477
0.420379638671875	0.00556243896484375	4612.63736135421
0.4248046875	0.0056036376953125	4612.85861335365
0.429229736328125	0.00564453125	4613.07986535309
0.43365478515625	0.005684814453125	4613.30111735253
0.438079833984375	0.00572357177734375	4613.52236935198
0.4425048828125	0.005762939453125	4613.74362135142
0.446929931640625	0.00579925537109375	4613.96487335086
0.45135498046875	0.00583648681640625	4614.1861253503
0.455780029296875	0.00587188720703125	4614.40737734974
0.460205078125	0.005906982421875	4614.62862934918
0.464630126953125	0.00594207763671875	4614.84988134862
0.46905517578125	0.00597442626953125	4615.07113334807
0.473480224609375	0.00600830078125	4615.29238534751
0.4779052734375	0.0060333251953125	4615.51363734695
0.482330322265625	0.006060791015625	4615.73488934639
0.48675537109375	0.00609130859375	4615.95614134583
0.491180419921875	0.0061187744140625	4616.17739334527
0.49560546875	0.0061492919921875	4616.39864534471
0.500030517578125	0.0061767578125	4616.61989734416
0.50445556640625	0.0062042236328125	4616.8411493436
0.508880615234375	0.006231689453125	4617.06240134304
0.5133056640625	0.0062591552734375	4617.28365334248
0.517730712890625	0.0062835693359375	4617.50490534192
0.52215576171875	0.00631103515625	4617.72615734136
0.526580810546875	0.00633544921875	4617.9474093408
0.531005859375	0.00635986328125	4618.16866134025
0.535430908203125	0.00638427734375	4618.38991333969
0.53985595703125	0.00640869140625	4618.61116533913
0.544281005859375	0.0064300537109375	4618.83241733857
0.5487060546875	0.0064544677734375	4619.05366933801
0.553131103515625	0.006475830078125	4619.27492133745
0.55755615234375	0.006494140625	4619.49617333689
0.561981201171875	0.0065155029296875	4619.71742533633
0.56640625	0.0065338134765625	4619.93867733578
0.570831298828125	0.00655517578125	4620.15992933522
0.57525634765625	0.006573486328125	4620.38118133466
0.579681396484375	0.006591796875	4620.6024333341
0.5841064453125	0.0066070556640625	4620.82368533354
0.588531494140625	0.006622314453125	4621.04493733298
0.59295654296875	0.0066375732421875	4621.26618933242
0.597381591796875	0.00665283203125	4621.48744133187
0.601806640625	0.0066680908203125	4621.70869333131
0.606231689453125	0.006683349609375	4621.92994533075
0.61065673828125	0.006695556640625	4622.15119733019
0.615081787109375	0.006707763671875	4622.37244932963
0.6195068359375	0.006719970703125	4622.59370132907
0.623931884765625	0.006732177734375	4622.81495332851
0.62835693359375	0.0067474365234375	4623.03620532796
0.632781982421875	0.006756591796875	4623.2574573274
0.63720703125	0.006768798828125	4623.47870932684
0.641632080078125	0.0067779541015625	4623.69996132628
0.64605712890625	0.0067840576171875	4623.92121332572
0.650482177734375	0.006793212890625	4624.14246532516
0.6549072265625	0.0068023681640625	4624.3637173246
0.659332275390625	0.0068115234375	4624.58496932405
0.66375732421875	0.006817626953125	4624.80622132349
0.668182373046875	0.00682373046875	4625.02747332293
0.672607421875	0.0068328857421875	4625.24872532237
0.677032470703125	0.0068389892578125	4625.46997732181
0.68145751953125	0.0068450927734375	4625.69122932125
0.685882568359375	0.0068511962890625	4625.91248132069
0.6903076171875	0.0068572998046875	4626.13373332014
0.694732666015625	0.0068634033203125	4626.35498531958
0.69915771484375	0.0068695068359375	4626.57623731902
0.703582763671875	0.0068756103515625	4626.79748931846
0.7080078125	0.0068817138671875	4627.0187413179
0.712432861328125	0.0068878173828125	4627.23999331734
0.71685791015625	0.0068939208984375	4627.46124531678
0.721282958984375	0.0069000244140625	4627.68249731622
0.7257080078125	0.0069061279296875	4627.90374931567
0.730133056640625	0.0069091796875	4628.12500131511
0.73455810546875	0.006915283203125	4628.34625331455
0.738983154296875	0.00692138671875	4628.56750531399
0.743408203125	0.0069244384765625	4628.78875731343
0.747833251953125	0.0069305419921875	4629.01000931287
0.75225830078125	0.0069366455078125	4629.23126131231
0.756683349609375	0.0069427490234375	4629.45251331176
0.7611083984375	0.0069488525390625	4629.6737653112
0.765533447265625	0.0069549560546875	4629.89501731064
0.76995849609375	0.006964111328125	4630.11626931008
0.774383544921875	0.00697021484375	4630.33752130952
0.77880859375	0.0069793701171875	4630.55877330896
0.783233642578125	0.0069854736328125	4630.7800253084
0.78765869140625	0.00699462890625	4631.00127730785
0.792083740234375	0.0070037841796875	4631.22252930729
0.7965087890625	0.0070098876953125	4631.44378130673
0.800933837890625	0.00701904296875	4631.66503330617
0.80535888671875	0.0070281982421875	4631.88628530561
0.809783935546875	0.007037353515625	4632.10753730505
0.814208984375	0.007049560546875	4632.32878930449
0.818634033203125	0.007061767578125	4632.55004130394
0.82305908203125	0.007073974609375	4632.77129330338
0.827484130859375	0.007086181640625	4632.99254530282
0.8319091796875	0.0071014404296875	4633.21379730226
0.836334228515625	0.00711669921875	4633.4350493017
0.84075927734375	0.007135009765625	4633.65630130114
0.845184326171875	0.0071533203125	4633.87755330058
0.849609375	0.0071685791015625	4634.09880530003
0.854034423828125	0.00718994140625	4634.32005729947
0.85845947265625	0.0072113037109375	4634.54130929891
0.862884521484375	0.0072357177734375	4634.76256129835
0.8673095703125	0.0072601318359375	4634.98381329779
0.871734619140625	0.00728759765625	4635.20506529723
0.87615966796875	0.0073150634765625	4635.42631729667
0.880584716796875	0.0073455810546875	4635.64756929611
0.885009765625	0.0073760986328125	4635.86882129556
0.889434814453125	0.0074127197265625	4636.090073295
0.89385986328125	0.0074493408203125	4636.31132529444
0.898284912109375	0.0074859619140625	4636.53257729388
0.9027099609375	0.0075286865234375	4636.75382929332
0.907135009765625	0.0075714111328125	4636.97508129276
0.91156005859375	0.0076171875	4637.19633329221
0.915985107421875	0.007666015625	4637.41758529165
0.92041015625	0.0077178955078125	4637.63883729109
0.924835205078125	0.007769775390625	4637.86008929053
0.92926025390625	0.00782470703125	4638.08134128997
0.933685302734375	0.0078826904296875	4638.30259328941
0.9381103515625	0.00794677734375	4638.52384528885
0.942535400390625	0.008013916015625	4638.74509728829
0.94696044921875	0.0080810546875	4638.96634928774
0.951385498046875	0.0081512451171875	4639.18760128718
0.955810546875	0.0082244873046875	4639.40885328662
0.960235595703125	0.00830078125	4639.63010528606
0.96466064453125	0.008380126953125	4639.8513572855
0.969085693359375	0.00845947265625	4640.07260928494
0.9735107421875	0.008544921875	4640.29386128438
0.977935791015625	0.00863037109375	4640.51511328383
0.98236083984375	0.0087188720703125	4640.73636528327
0.986785888671875	0.0088134765625	4640.95761728271
0.9912109375	0.008905029296875	4641.17886928215
0.995635986328125	0.009002685546875	4641.40012128159
1.00006103515625	0.0091033935546875	4641.62137328103
0.995635986328125	0.008245849609375	4641.84262528047
0.9912109375	0.0074676513671875	4642.06387727992
0.986785888671875	0.0067413330078125	4642.28512927936
0.98236083984375	0.00606689453125	4642.5063812788
0.977935791015625	0.00543212890625	4642.72763327824
0.9735107421875	0.00483917236328125	4642.94888527768
0.969085693359375	0.00427703857421875	4643.17013727712
0.96466064453125	0.00374481201171875	4643.39138927656
0.960235595703125	0.003240966796875	4643.612641276
0.955810546875	0.00276153564453125	4643.83389327545
0.951385498046875	0.00230804443359375	4644.05514527489
0.94696044921875	0.001873779296875	4644.27639727433
0.942535400390625	0.0014599609375	4644.49764927377
0.9381103515625	0.001064453125	4644.71890127321
0.933685302734375	0.00068389892578125	4644.94015327265
0.92926025390625	0.00032379150390625	4645.1614052721
0.924835205078125	-2.081298828125E-05	4645.38265727154
0.92041015625	-0.000350189208984375	4645.60390927098
0.915985107421875	-0.0006646728515625	4645.82516127042
0.91156005859375	-0.00096527099609375	4646.04641326986
0.907135009765625	-0.0012530517578125	4646.2676652693
0.9027099609375	-0.0015283203125	4646.48891726874
0.898284912109375	-0.00179107666015625	4646.71016926818
0.89385986328125	-0.0020428466796875	4646.93142126763
0.889434814453125	-0.0022833251953125	4647.15267326707
0.885009765625	-0.00251312255859375	4647.37392526651
0.880584716796875	-0.00273193359375	4647.59517726595
0.87615966796875	-0.00294189453125	4647.81642926539
0.871734619140625	-0.00314208984375	4648.03768126483
0.8673095703125	-0.00333221435546875	4648.25893326427
0.862884521484375	-0.003514404296875	4648.48018526372
0.85845947265625	-0.00368560791015625	4648.70143726316
0.854034423828125	-0.00385101318359375	4648.9226892626
0.849609375	-0.0040087890625	4649.14394126204
0.845184326171875	-0.00415771484375	4649.36519326148
0.84075927734375	-0.00429962158203125	4649.58644526092
0.836334228515625	-0.00443450927734375	4649.80769726036
0.8319091796875	-0.004561767578125	4650.02894925981
0.827484130859375	-0.0046832275390625	4650.25020125925
0.82305908203125	-0.00479766845703125	4650.47145325869
0.818634033203125	-0.004906005859375	4650.69270525813
0.814208984375	-0.00500823974609375	4650.91395725757
0.809783935546875	-0.0051043701171875	4651.13520925701
0.80535888671875	-0.005196533203125	4651.35646125645
0.800933837890625	-0.00528228759765625	4651.5777132559
0.7965087890625	-0.0053631591796875	4651.79896525534
0.792083740234375	-0.0054388427734375	4652.02021725478
0.78765869140625	-0.0055108642578125	4652.24146925422
0.783233642578125	-0.00557952880859375	4652.46272125366
0.77880859375	-0.0056414794921875	4652.6839732531
0.774383544921875	-0.00570098876953125	4652.90522525254
0.76995849609375	-0.00575469970703125	4653.12647725199
0.765533447265625	-0.0058056640625	4653.34772925143
0.7611083984375	-0.0058526611328125	4653.56898125087
0.756683349609375	-0.00589599609375	4653.79023325031
0.75225830078125	-0.00593719482421875	4654.01148524975
0.747833251953125	-0.0059735107421875	4654.23273724919
0.743408203125	-0.00600921630859375	4654.45398924863
0.738983154296875	-0.00601806640625	4654.67524124807
0.73455810546875	-0.0060455322265625	4654.89649324752
0.730133056640625	-0.0060760498046875	4655.11774524696
0.7257080078125	-0.0061004638671875	4655.3389972464
0.721282958984375	-0.0061279296875	4655.56024924584
0.71685791015625	-0.0061492919921875	4655.78150124528
0.712432861328125	-0.0061676025390625	4656.00275324472
0.7080078125	-0.00618896484375	4656.22400524416
0.703582763671875	-0.0062042236328125	4656.44525724361
0.69915771484375	-0.006219482421875	4656.66650924305
0.694732666015625	-0.0062347412109375	4656.88776124249
0.6903076171875	-0.0062469482421875	4657.10901324193
0.685882568359375	-0.0062591552734375	4657.33026524137
0.68145751953125	-0.0062713623046875	4657.55151724081
0.677032470703125	-0.0062835693359375	4657.77276924025
0.672607421875	-0.006292724609375	4657.9940212397
0.668182373046875	-0.006304931640625	4658.21527323914
0.66375732421875	-0.0063140869140625	4658.43652523858
0.659332275390625	-0.0063232421875	4658.65777723802
0.6549072265625	-0.0063323974609375	4658.87902923746
0.650482177734375	-0.0063385009765625	4659.1002812369
0.64605712890625	-0.00634765625	4659.32153323634
0.641632080078125	-0.0063568115234375	4659.54278523579
0.63720703125	-0.006365966796875	4659.76403723523
0.632781982421875	-0.0063720703125	4659.98528923467
0.62835693359375	-0.0063812255859375	4660.20654123411
0.623931884765625	-0.0063934326171875	4660.42779323355
0.6195068359375	-0.006402587890625	4660.64904523299
0.615081787109375	-0.00640869140625	4660.87029723243
0.61065673828125	-0.0064178466796875	4661.09154923188
0.606231689453125	-0.0064239501953125	4661.31280123132
0.601806640625	-0.00643310546875	4661.53405323076
0.597381591796875	-0.0064422607421875	4661.7553052302
0.59295654296875	-0.006451416015625	4661.97655722964
0.588531494140625	-0.0064605712890625	4662.19780922908
0.5841064453125	-0.0064666748046875	4662.41906122852
0.579681396484375	-0.0064788818359375	4662.64031322796
0.57525634765625	-0.006488037109375	4662.86156522741
0.570831298828125	-0.006500244140625	4663.08281722685
0.56640625	-0.0065093994140625	4663.30406922629
0.561981201171875	-0.0065185546875	4663.52532122573
0.55755615234375	-0.00653076171875	4663.74657322517
0.553131103515625	-0.00654296875	4663.96782522461
0.5487060546875	-0.00655517578125	4664.18907722405
0.544281005859375	-0.0065673828125	4664.4103292235
0.53985595703125	-0.0065826416015625	4664.63158122294
0.535430908203125	-0.0065948486328125	4664.85283322238
0.531005859375	-0.006610107421875	4665.07408522182
0.526580810546875	-0.0066253662109375	4665.29533722126
0.52215576171875	-0.006640625	4665.5165892207
0.517730712890625	-0.0066558837890625	4665.73784122014
0.5133056640625	-0.0066741943359375	4665.95909321959
0.508880615234375	-0.006689453125	4666.18034521903
0.50445556640625	-0.006707763671875	4666.40159721847
0.500030517578125	-0.0067230224609375	4666.62284921791
0.49560546875	-0.0067413330078125	4666.84410121735
0.491180419921875	-0.0067626953125	4667.06535321679
0.48675537109375	-0.006781005859375	4667.28660521623
0.482330322265625	-0.0068023681640625	4667.50785721568
0.4779052734375	-0.0068206787109375	4667.72910921512
0.473480224609375	-0.006842041015625	4667.95036121456
0.46905517578125	-0.0068634033203125	4668.171613214
0.464630126953125	-0.006884765625	4668.39286521344
0.460205078125	-0.0069091796875	4668.61411721288
0.455780029296875	-0.0069305419921875	4668.83536921232
0.45135498046875	-0.0069549560546875	4669.05662121177
0.446929931640625	-0.006976318359375	4669.27787321121
0.4425048828125	-0.007000732421875	4669.49912521065
0.438079833984375	-0.0070220947265625	4669.72037721009
0.43365478515625	-0.0070465087890625	4669.94162920953
0.429229736328125	-0.0070709228515625	4670.16288120897
0.4248046875	-0.0070953369140625	4670.38413320841
0.420379638671875	-0.0071197509765625	4670.60538520785
0.41595458984375	-0.00714111328125	4670.8266372073
0.411529541015625	-0.00716552734375	4671.04788920674
0.4071044921875	-0.00718994140625	4671.26914120618
0.402679443359375	-0.0072113037109375	4671.49039320562
0.39825439453125	-0.0072357177734375	4671.71164520506
0.393829345703125	-0.0072601318359375	4671.9328972045
0.389404296875	-0.0072784423828125	4672.15414920395
0.384979248046875	-0.0073028564453125	4672.37540120339
0.38055419921875	-0.0073211669921875	4672.59665320283
0.376129150390625	-0.007342529296875	4672.81790520227
0.3717041015625	-0.0073638916015625	4673.03915720171
0.367279052734375	-0.0073822021484375	4673.26040920115
0.36285400390625	-0.007403564453125	4673.48166120059
0.358428955078125	-0.0074188232421875	4673.70291320003
0.35400390625	-0.0074371337890625	4673.92416519948
0.349578857421875	-0.007452392578125	4674.14541719892
0.34515380859375	-0.0074676513671875	4674.36666919836
0.340728759765625	-0.00748291015625	4674.5879211978
0.3363037109375	-0.0074951171875	4674.80917319724
0.331878662109375	-0.00750732421875	4675.03042519668
0.32745361328125	-0.00751953125	4675.25167719612
0.323028564453125	-0.00753173828125	4675.47292919557
0.318603515625	-0.0075408935546875	4675.69418119501
0.314178466796875	-0.007550048828125	4675.91543319445
0.30975341796875	-0.007562255859375	4676.13668519389
0.305328369140625	-0.0075714111328125	4676.35793719333
0.3009033203125	-0.0075775146484375	4676.57918919277
0.296478271484375	-0.0075836181640625	4676.80044119221
0.29205322265625	-0.007586669921875	4677.02169319166
0.287628173828125	-0.0075927734375	4677.2429451911
0.283203125	-0.0075958251953125	4677.46419719054
0.278778076171875	-0.007598876953125	4677.68544918998
0.27435302734375	-0.0076019287109375	4677.90670118942
0.269927978515625	-0.0076019287109375	4678.12795318886
0.2655029296875	-0.00760498046875	4678.3492051883
0.261077880859375	-0.00760498046875	4678.57045718774
0.25665283203125	-0.00760498046875	4678.79170918719
0.252227783203125	-0.00760498046875	4679.01296118663
0.247802734375	-0.0076019287109375	4679.23421318607
0.243377685546875	-0.0076019287109375	4679.45546518551
0.23895263671875	-0.0076019287109375	4679.67671718495
0.234527587890625	-0.007598876953125	4679.89796918439
0.2301025390625	-0.0075958251953125	4680.11922118384
0.225677490234375	-0.0075927734375	4680.34047318328
0.22125244140625	-0.0075897216796875	4680.56172518272
0.216827392578125	-0.007586669921875	4680.78297718216
0.21240234375	-0.007586669921875	4681.0042291816
0.207977294921875	-0.00758056640625	4681.22548118104
0.20355224609375	-0.0075775146484375	4681.44673318048
0.199127197265625	-0.007574462890625	4681.66798517992
0.1947021484375	-0.0075714111328125	4681.88923717937
0.190277099609375	-0.007568359375	4682.11048917881
0.18585205078125	-0.0075653076171875	4682.33174117825
0.181427001953125	-0.007562255859375	4682.55299317769
0.177001953125	-0.0075592041015625	4682.77424517713
0.172576904296875	-0.0075531005859375	4682.99549717657
0.16815185546875	-0.0075531005859375	4683.21674917601
0.163726806640625	-0.007550048828125	4683.43800117546
0.1593017578125	-0.0075469970703125	4683.6592531749
0.154876708984375	-0.0075439453125	4683.88050517434
0.15045166015625	-0.0075408935546875	4684.10175717378
0.146026611328125	-0.007537841796875	4684.32300917322
0.1416015625	-0.007537841796875	4684.54426117266
0.137176513671875	-0.0075347900390625	4684.7655131721
0.13275146484375	-0.0075347900390625	4684.98676517155
0.128326416015625	-0.00753173828125	4685.20801717099
0.1239013671875	-0.0075347900390625	4685.42926917043
0.119476318359375	-0.0075347900390625	4685.65052116987
0.11505126953125	-0.00753173828125	4685.87177316931
0.110626220703125	-0.00753173828125	4686.09302516875
0.106201171875	-0.0075347900390625	4686.31427716819
0.101776123046875	-0.0075347900390625	4686.53552916764
0.09735107421875	-0.007537841796875	4686.75678116708
0.092926025390625	-0.0075408935546875	4686.97803316652
0.0885009765625	-0.0075469970703125	4687.19928516596
0.084075927734375	-0.007550048828125	4687.4205371654
0.07965087890625	-0.00755615234375	4687.64178916484
0.075225830078125	-0.0075592041015625	4687.86304116428
0.07080078125	-0.0075653076171875	4688.08429316373
0.066375732421875	-0.007574462890625	4688.30554516317
0.06195068359375	-0.00758056640625	4688.52679716261
0.057525634765625	-0.0075897216796875	4688.74804916205
0.0531005859375	-0.0076019287109375	4688.96930116149
0.048675537109375	-0.007611083984375	4689.19055316093
0.04425048828125	-0.007623291015625	4689.41180516037
0.039825439453125	-0.0076324462890625	4689.63305715981
0.035400390625	-0.0076446533203125	4689.85430915926
0.030975341796875	-0.007659912109375	4690.0755611587
0.02655029296875	-0.007672119140625	4690.29681315814
0.022125244140625	-0.0076904296875	4690.51806515758
0.0177001953125	-0.0077056884765625	4690.73931715702
0.013275146484375	-0.007720947265625	4690.96056915646
0.00885009765625	-0.0077392578125	4691.1818211559
0.004425048828125	-0.007757568359375	4691.40307315535
0	-0.00777587890625	4691.62432515479
0.004425048828125	-0.0068756103515625	4691.84557715423
0.00885009765625	-0.006060791015625	4692.06682915367
0.013275146484375	-0.005316162109375	4692.28808115311
0.0177001953125	-0.00463531494140625	4692.50933315255
0.022125244140625	-0.004005126953125	4692.73058515199
0.02655029296875	-0.00342193603515625	4692.95183715144
0.030975341796875	-0.00288177490234375	4693.17308915088
0.035400390625	-0.0023785400390625	4693.39434115032
0.039825439453125	-0.0019195556640625	4693.61559314976
0.04425048828125	-0.0014813232421875	4693.8368451492
0.048675537109375	-0.00107208251953125	4694.05809714864
0.0531005859375	-0.00068939208984375	4694.27934914808
0.057525634765625	-0.000330108642578125	4694.50060114753
0.06195068359375	6.4697265625E-06	4694.72185314697
0.066375732421875	0.000322113037109375	4694.94310514641
0.07080078125	0.00061859130859375	4695.16435714585
0.075225830078125	0.0008978271484375	4695.38560914529
0.07965087890625	0.00115875244140625	4695.60686114473
0.084075927734375	0.00140655517578125	4695.82811314417
0.0885009765625	0.00163909912109375	4696.04936514362
0.092926025390625	0.00185821533203125	4696.27061714306
0.09735107421875	0.00206390380859375	4696.4918691425
0.101776123046875	0.00225860595703125	4696.71312114194
0.106201171875	0.0024420166015625	4696.93437314138
0.110626220703125	0.00261383056640625	4697.15562514082
0.11505126953125	0.00277557373046875	4697.37687714026
0.119476318359375	0.002928466796875	4697.5981291397
0.1239013671875	0.00307525634765625	4697.81938113915
0.128326416015625	0.0032159423828125	4698.04063313859
0.13275146484375	0.0033477783203125	4698.26188513803
0.137176513671875	0.00347259521484375	4698.48313713747
0.1416015625	0.0035919189453125	4698.70438913691
0.146026611328125	0.003704833984375	4698.92564113635
0.15045166015625	0.00381256103515625	4699.14689313579
0.154876708984375	0.00391387939453125	4699.36814513524
0.1593017578125	0.00401031494140625	4699.58939713468
0.163726806640625	0.004102783203125	4699.81064913412
0.16815185546875	0.00419097900390625	4700.03190113356
0.172576904296875	0.00427459716796875	4700.253153133
0.177001953125	0.0043548583984375	4700.47440513244
0.181427001953125	0.00443115234375	4700.69565713188
0.18585205078125	0.00450469970703125	4700.91690913133
0.190277099609375	0.004573974609375	4701.13816113077
0.1947021484375	0.00464080810546875	4701.35941313021
0.199127197265625	0.0047039794921875	4701.58066512965
0.20355224609375	0.00476837158203125	4701.80191712909
0.207977294921875	0.00482879638671875	4702.02316912853
0.21240234375	0.00488494873046875	4702.24442112797
0.216827392578125	0.00494110107421875	4702.46567312742
0.22125244140625	0.00499298095703125	4702.68692512686
0.225677490234375	0.0050457763671875	4702.9081771263
0.2301025390625	0.00509735107421875	4703.12942912574
0.234527587890625	0.00514312744140625	4703.35068112518
0.23895263671875	0.005189208984375	4703.57193312462
0.243377685546875	0.005233154296875	4703.79318512406
0.247802734375	0.0052764892578125	4704.01443712351
0.252227783203125	0.0053192138671875	4704.23568912295
0.25665283203125	0.0053594970703125	4704.45694112239
0.261077880859375	0.0053997802734375	4704.67819312183
0.2655029296875	0.005438232421875	4704.89944512127
0.269927978515625	0.0054754638671875	4705.12069712071
0.27435302734375	0.00551239013671875	4705.34194912015
0.278778076171875	0.00554901123046875	4705.56320111959
0.283203125	0.00558563232421875	4705.78445311904
0.287628173828125	0.0056207275390625	4706.00570511848
0.29205322265625	0.005655517578125	4706.22695711792
0.296478271484375	0.0056884765625	4706.44820911736
0.3009033203125	0.00572113037109375	4706.6694611168
0.305328369140625	0.00575439453125	4706.89071311624
0.30975341796875	0.00578521728515625	4707.11196511569
0.314178466796875	0.00582000732421875	4707.33321711513
0.318603515625	0.005850830078125	4707.55446911457
0.323028564453125	0.0058807373046875	4707.77572111401
0.32745361328125	0.00591217041015625	4707.99697311345
0.331878662109375	0.00594085693359375	4708.21822511289
0.3363037109375	0.005970458984375	4708.43947711233
0.340728759765625	0.005999755859375	4708.66072911177
0.34515380859375	0.00602935791015625	4708.88198111122
0.349578857421875	0.006048583984375	4709.10323311066
0.35400390625	0.006072998046875	4709.3244851101
0.358428955078125	0.0061004638671875	4709.54573710954
0.36285400390625	0.0061248779296875	4709.76698910898
0.367279052734375	0.00615234375	4709.98824110842
0.3717041015625	0.0061798095703125	4710.20949310786
0.376129150390625	0.006207275390625	4710.43074510731
0.38055419921875	0.0062347412109375	4710.65199710675
0.384979248046875	0.0062591552734375	4710.87324910619
0.389404296875	0.00628662109375	4711.09450110563
0.393829345703125	0.00631103515625	4711.31575310507
0.39825439453125	0.0063385009765625	4711.53700510451
0.402679443359375	0.006365966796875	4711.75825710395
0.4071044921875	0.0063934326171875	4711.9795091034
0.411529541015625	0.0064208984375	4712.20076110284
0.41595458984375	0.0064453125	4712.42201310228
0.420379638671875	0.0064727783203125	4712.64326510172
0.4248046875	0.0064971923828125	4712.86451710116
0.429229736328125	0.006524658203125	4713.0857691006
0.43365478515625	0.006549072265625	4713.30702110004
0.438079833984375	0.006573486328125	4713.52827309948
0.4425048828125	0.006597900390625	4713.74952509893
0.446929931640625	0.006622314453125	4713.97077709837
0.45135498046875	0.006646728515625	4714.19202909781
0.455780029296875	0.006671142578125	4714.41328109725
0.460205078125	0.006695556640625	4714.63453309669
0.464630126953125	0.0067169189453125	4714.85578509613
0.46905517578125	0.0067413330078125	4715.07703709558
0.473480224609375	0.0067626953125	4715.29828909502
0.4779052734375	0.006787109375	4715.51954109446
0.482330322265625	0.0068084716796875	4715.7407930939
0.48675537109375	0.006829833984375	4715.96204509334
0.491180419921875	0.0068511962890625	4716.18329709278
0.49560546875	0.00687255859375	4716.40454909222
0.500030517578125	0.0068939208984375	4716.62580109166
0.50445556640625	0.006915283203125	4716.84705309111
0.508880615234375	0.0069366455078125	4717.06830509055
0.5133056640625	0.0069549560546875	4717.28955708999
0.517730712890625	0.006976318359375	4717.51080908943
0.52215576171875	0.00699462890625	4717.73206108887
0.526580810546875	0.007012939453125	4717.95331308831
0.531005859375	0.00703125	4718.17456508775
0.535430908203125	0.007049560546875	4718.3958170872
0.53985595703125	0.0070648193359375	4718.61706908664
0.544281005859375	0.0070831298828125	4718.83832108608
0.5487060546875	0.0070953369140625	4719.05957308552
0.553131103515625	0.0071136474609375	4719.28082508496
0.55755615234375	0.00712890625	4719.5020770844
0.561981201171875	0.0071441650390625	4719.72332908384
0.56640625	0.0071563720703125	4719.94458108329
0.570831298828125	0.007171630859375	4720.16583308273
0.57525634765625	0.007183837890625	4720.38708508217
0.579681396484375	0.007196044921875	4720.60833708161
0.5841064453125	0.007208251953125	4720.82958908105
0.588531494140625	0.0072174072265625	4721.05084108049
0.59295654296875	0.0072265625	4721.27209307993
0.597381591796875	0.00723876953125	4721.49334507938
0.601806640625	0.0072479248046875	4721.71459707882
0.606231689453125	0.007257080078125	4721.93584907826
0.61065673828125	0.0072662353515625	4722.1571010777
0.615081787109375	0.007275390625	4722.37835307714
0.6195068359375	0.007281494140625	4722.59960507658
0.623931884765625	0.00728759765625	4722.82085707602
0.62835693359375	0.0072998046875	4723.04210907547
0.632781982421875	0.007305908203125	4723.26336107491
0.63720703125	0.00731201171875	4723.48461307435
0.641632080078125	0.0073150634765625	4723.70586507379
0.64605712890625	0.0073211669921875	4723.92711707323
0.650482177734375	0.00732421875	4724.14836907267
0.6549072265625	0.0073272705078125	4724.36962107211
0.659332275390625	0.0073333740234375	4724.59087307155
0.66375732421875	0.00733642578125	4724.812125071
0.668182373046875	0.0073394775390625	4725.03337707044
0.672607421875	0.007342529296875	4725.25462906988
0.677032470703125	0.0073455810546875	4725.47588106932
0.68145751953125	0.0073455810546875	4725.69713306876
0.685882568359375	0.0073516845703125	4725.9183850682
0.6903076171875	0.0073516845703125	4726.13963706764
0.694732666015625	0.0073577880859375	4726.36088906709
0.69915771484375	0.0073577880859375	4726.58214106653
0.703582763671875	0.00736083984375	4726.80339306597
0.7080078125	0.0073638916015625	4727.02464506541
0.712432861328125	0.0073638916015625	4727.24589706485
0.71685791015625	0.0073699951171875	4727.46714906429
0.721282958984375	0.0073699951171875	4727.68840106373
0.7257080078125	0.007373046875	4727.90965306318
0.730133056640625	0.0073760986328125	4728.13090506262
0.73455810546875	0.007379150390625	4728.35215706206
0.738983154296875	0.0073822021484375	4728.5734090615
0.743408203125	0.0073822021484375	4728.79466106094
0.747833251953125	0.00738525390625	4729.01591306038
0.75225830078125	0.0073883056640625	4729.23716505982
0.756683349609375	0.007391357421875	4729.45841705927
0.7611083984375	0.0073974609375	4729.67966905871
0.765533447265625	0.0074005126953125	4729.90092105815
0.76995849609375	0.007403564453125	4730.12217305759
0.774383544921875	0.0074066162109375	4730.34342505703
0.77880859375	0.0074127197265625	4730.56467705647
0.783233642578125	0.007415771484375	4730.78592905591
0.78765869140625	0.007421875	4731.00718105536
0.792083740234375	0.007427978515625	4731.2284330548
0.7965087890625	0.00743408203125	4731.44968505424
0.800933837890625	0.007440185546875	4731.67093705368
0.80535888671875	0.0074462890625	4731.89218905312
0.809783935546875	0.007452392578125	4732.11344105256
0.814208984375	0.0074615478515625	4732.334693052
0.818634033203125	0.007470703125	4732.55594505144
0.82305908203125	0.0074798583984375	4732.77719705089
0.827484130859375	0.007489013671875	4732.99844905033
0.8319091796875	0.0074981689453125	4733.21970104977
0.836334228515625	0.007513427734375	4733.44095304921
0.84075927734375	0.0075225830078125	4733.66220504865
0.845184326171875	0.007537841796875	4733.88345704809
0.849609375	0.0075531005859375	4734.10470904753
0.854034423828125	0.0075714111328125	4734.32596104698
0.85845947265625	0.0075897216796875	4734.54721304642
0.862884521484375	0.00760498046875	4734.76846504586
0.8673095703125	0.0076263427734375	4734.9897170453
0.871734619140625	0.007647705078125	4735.21096904474
0.87615966796875	0.007672119140625	4735.43222104418
0.880584716796875	0.0076995849609375	4735.65347304362
0.885009765625	0.00772705078125	4735.87472504307
0.889434814453125	0.0077545166015625	4736.09597704251
0.89385986328125	0.0077880859375	4736.31722904195
0.898284912109375	0.007818603515625	4736.53848104139
0.9027099609375	0.007855224609375	4736.75973304083
0.907135009765625	0.007891845703125	4736.98098504027
0.91156005859375	0.0079345703125	4737.20223703971
0.915985107421875	0.007977294921875	4737.42348903916
0.92041015625	0.0080230712890625	4737.6447410386
0.924835205078125	0.0080718994140625	4737.86599303804
0.92926025390625	0.008123779296875	4738.08724503748
0.933685302734375	0.0081787109375	4738.30849703692
0.9381103515625	0.00823974609375	4738.52974903636
0.942535400390625	0.0082977294921875	4738.7510010358
0.94696044921875	0.00836181640625	4738.97225303525
0.951385498046875	0.0084259033203125	4739.19350503469
0.955810546875	0.0084930419921875	4739.41475703413
0.960235595703125	0.0085662841796875	4739.63600903357
0.96466064453125	0.008636474609375	4739.85726103301
0.969085693359375	0.0087158203125	4740.07851303245
0.9735107421875	0.0087921142578125	4740.29976503189
0.977935791015625	0.0088714599609375	4740.52101703133
0.98236083984375	0.0089569091796875	4740.74226903078
0.986785888671875	0.0090423583984375	4740.96352103022
0.9912109375	0.0091339111328125	4741.18477302966
0.995635986328125	0.0092254638671875	4741.4060250291
1.00006103515625	0.009320068359375	4741.62727702854
0.995635986328125	0.0084625244140625	4741.84852902798
0.9912109375	0.00767822265625	4742.06978102743
0.986785888671875	0.006951904296875	4742.29103302687
0.98236083984375	0.0062713623046875	4742.51228502631
0.977935791015625	0.005633544921875	4742.73353702575
0.9735107421875	0.0050384521484375	4742.95478902519
0.969085693359375	0.00447418212890625	4743.17604102463
0.96466064453125	0.00394012451171875	4743.39729302407
0.960235595703125	0.0034332275390625	4743.61854502351
0.955810546875	0.00295166015625	4743.83979702296
0.951385498046875	0.00249359130859375	4744.0610490224
0.94696044921875	0.00205780029296875	4744.28230102184
0.942535400390625	0.001641845703125	4744.50355302128
0.9381103515625	0.001243896484375	4744.72480502072
0.933685302734375	0.00086090087890625	4744.94605702016
0.92926025390625	0.000498046875	4745.1673090196
0.924835205078125	0.0001512451171875	4745.38856101905
0.92041015625	-0.00018017578125	4745.60981301849
0.915985107421875	-0.000496826171875	4745.83106501793
0.91156005859375	-0.0008001708984375	4746.05231701737
0.907135009765625	-0.0010906982421875	4746.27356901681
0.9027099609375	-0.00136810302734375	4746.49482101625
0.898284912109375	-0.00163330078125	4746.71607301569
0.89385986328125	-0.00188720703125	4746.93732501514
0.889434814453125	-0.00212982177734375	4747.15857701458
0.885009765625	-0.00236114501953125	4747.37982901402
0.880584716796875	-0.00258270263671875	4747.60108101346
0.87615966796875	-0.002794189453125	4747.8223330129
0.871734619140625	-0.00299560546875	4748.04358501234
0.8673095703125	-0.0031884765625	4748.26483701178
0.862884521484375	-0.00337188720703125	4748.48608901122
0.85845947265625	-0.00354644775390625	4748.70734101067
0.854034423828125	-0.00371307373046875	4748.92859301011
0.849609375	-0.00387176513671875	4749.14984500955
0.845184326171875	-0.0040228271484375	4749.37109700899
0.84075927734375	-0.00416595458984375	4749.59234900843
0.836334228515625	-0.00430206298828125	4749.81360100787
0.8319091796875	-0.00443206787109375	4750.03485300732
0.827484130859375	-0.0045538330078125	4750.25610500676
0.82305908203125	-0.00467071533203125	4750.4773570062
0.818634033203125	-0.0047802734375	4750.69860900564
0.814208984375	-0.0048846435546875	4750.91986100508
0.809783935546875	-0.0049822998046875	4751.14111300452
0.80535888671875	-0.00507476806640625	4751.36236500396
0.800933837890625	-0.005162353515625	4751.5836170034
0.7965087890625	-0.00524383544921875	4751.80486900285
0.792083740234375	-0.005322265625	4752.02612100229
0.78765869140625	-0.00539520263671875	4752.24737300173
0.783233642578125	-0.00546234130859375	4752.46862500117
0.77880859375	-0.005526123046875	4752.68987700061
0.774383544921875	-0.00558624267578125	4752.91112900005
0.76995849609375	-0.00564422607421875	4753.13238099949
0.765533447265625	-0.00569854736328125	4753.35363299894
0.7611083984375	-0.00574859619140625	4753.57488499838
0.756683349609375	-0.00579559326171875	4753.79613699782
0.75225830078125	-0.0058367919921875	4754.01738899726
0.747833251953125	-0.00587646484375	4754.2386409967
0.743408203125	-0.00591217041015625	4754.45989299614
0.738983154296875	-0.0059454345703125	4754.68114499558
0.73455810546875	-0.00597747802734375	4754.90239699503
0.730133056640625	-0.00600616455078125	4755.12364899447
0.7257080078125	-0.006011962890625	4755.34490099391
0.721282958984375	-0.006036376953125	4755.56615299335
0.71685791015625	-0.0060638427734375	4755.78740499279
0.712432861328125	-0.006085205078125	4756.00865699223
0.7080078125	-0.006103515625	4756.22990899167
0.703582763671875	-0.0061248779296875	4756.45116099112
0.69915771484375	-0.00614013671875	4756.67241299056
0.694732666015625	-0.0061553955078125	4756.89366499
0.6903076171875	-0.006170654296875	4757.11491698944
0.685882568359375	-0.0061859130859375	4757.33616898888
0.68145751953125	-0.006201171875	4757.55742098832
0.677032470703125	-0.00621337890625	4757.77867298776
0.672607421875	-0.0062255859375	4757.99992498721
0.668182373046875	-0.0062347412109375	4758.22117698665
0.66375732421875	-0.0062469482421875	4758.44242898609
0.659332275390625	-0.0062591552734375	4758.66368098553
0.6549072265625	-0.006268310546875	4758.88493298497
0.650482177734375	-0.0062774658203125	4759.10618498441
0.64605712890625	-0.00628662109375	4759.32743698385
0.641632080078125	-0.006298828125	4759.54868898329
0.63720703125	-0.0063079833984375	4759.76994098274
0.632781982421875	-0.006317138671875	4759.99119298218
0.62835693359375	-0.0063262939453125	4760.21244498162
0.623931884765625	-0.006341552734375	4760.43369698106
0.6195068359375	-0.0063507080078125	4760.6549489805
0.615081787109375	-0.00635986328125	4760.87620097994
0.61065673828125	-0.0063690185546875	4761.09745297938
0.606231689453125	-0.006378173828125	4761.31870497883
0.601806640625	-0.0063873291015625	4761.53995697827
0.597381591796875	-0.006396484375	4761.76120897771
0.59295654296875	-0.00640869140625	4761.98246097715
0.588531494140625	-0.0064178466796875	4762.20371297659
0.5841064453125	-0.006427001953125	4762.42496497603
0.579681396484375	-0.0064361572265625	4762.64621697547
0.57525634765625	-0.0064483642578125	4762.86746897492
0.570831298828125	-0.0064605712890625	4763.08872097436
0.56640625	-0.0064727783203125	4763.3099729738
0.561981201171875	-0.0064849853515625	4763.53122497324
0.55755615234375	-0.0064971923828125	4763.75247697268
0.553131103515625	-0.006512451171875	4763.97372897212
0.5487060546875	-0.006524658203125	4764.19498097156
0.544281005859375	-0.006536865234375	4764.41623297101
0.53985595703125	-0.0065521240234375	4764.63748497045
0.535430908203125	-0.0065643310546875	4764.85873696989
0.531005859375	-0.0065826416015625	4765.07998896933
0.526580810546875	-0.006597900390625	4765.30124096877
0.52215576171875	-0.0066131591796875	4765.52249296821
0.517730712890625	-0.0066314697265625	4765.74374496765
0.5133056640625	-0.006646728515625	4765.9649969671
0.508880615234375	-0.0066650390625	4766.18624896654
0.50445556640625	-0.006683349609375	4766.40750096598
0.500030517578125	-0.00670166015625	4766.62875296542
0.49560546875	-0.0067230224609375	4766.85000496486
0.491180419921875	-0.0067413330078125	4767.0712569643
0.48675537109375	-0.0067626953125	4767.29250896374
0.482330322265625	-0.006781005859375	4767.51376096318
0.4779052734375	-0.0068023681640625	4767.73501296263
0.473480224609375	-0.00682373046875	4767.95626496207
0.46905517578125	-0.0068450927734375	4768.17751696151
0.464630126953125	-0.0068695068359375	4768.39876896095
0.460205078125	-0.006890869140625	4768.62002096039
0.455780029296875	-0.006915283203125	4768.84127295983
0.45135498046875	-0.006939697265625	4769.06252495927
0.446929931640625	-0.0069610595703125	4769.28377695872
0.4425048828125	-0.006988525390625	4769.50502895816
0.438079833984375	-0.0070098876953125	4769.7262809576
0.43365478515625	-0.0070343017578125	4769.94753295704
0.429229736328125	-0.0070587158203125	4770.16878495648
0.4248046875	-0.0070831298828125	4770.39003695592
0.420379638671875	-0.0071075439453125	4770.61128895536
0.41595458984375	-0.0071319580078125	4770.83254095481
0.411529541015625	-0.0071563720703125	4771.05379295425
0.4071044921875	-0.007177734375	4771.27504495369
0.402679443359375	-0.0072021484375	4771.49629695313
0.39825439453125	-0.0072265625	4771.71754895257
0.393829345703125	-0.0072479248046875	4771.93880095201
0.389404296875	-0.0072723388671875	4772.16005295145
0.384979248046875	-0.007293701171875	4772.3813049509
0.38055419921875	-0.0073150634765625	4772.60255695034
0.376129150390625	-0.00733642578125	4772.82380894978
0.3717041015625	-0.0073577880859375	4773.04506094922
0.367279052734375	-0.0073760986328125	4773.26631294866
0.36285400390625	-0.0073944091796875	4773.4875649481
0.358428955078125	-0.0074127197265625	4773.70881694754
0.35400390625	-0.0074310302734375	4773.93006894699
0.349578857421875	-0.0074432373046875	4774.15132094643
0.34515380859375	-0.0074615478515625	4774.37257294587
0.340728759765625	-0.0074737548828125	4774.59382494531
0.3363037109375	-0.007489013671875	4774.81507694475
0.331878662109375	-0.0075042724609375	4775.03632894419
0.32745361328125	-0.007513427734375	4775.25758094363
0.323028564453125	-0.007525634765625	4775.47883294307
0.318603515625	-0.0075347900390625	4775.70008494252
0.314178466796875	-0.0075439453125	4775.92133694196
0.30975341796875	-0.00755615234375	4776.1425889414
0.305328369140625	-0.0075653076171875	4776.36384094084
0.3009033203125	-0.0075714111328125	4776.58509294028
0.296478271484375	-0.0075775146484375	4776.80634493972
0.29205322265625	-0.00758056640625	4777.02759693917
0.287628173828125	-0.007586669921875	4777.24884893861
0.283203125	-0.0075897216796875	4777.47010093805
0.278778076171875	-0.0075927734375	4777.69135293749
0.27435302734375	-0.0075927734375	4777.91260493693
0.269927978515625	-0.0075958251953125	4778.13385693637
0.2655029296875	-0.0075958251953125	4778.35510893581
0.261077880859375	-0.0075958251953125	4778.57636093525
0.25665283203125	-0.0075958251953125	4778.7976129347
0.252227783203125	-0.0075958251953125	4779.01886493414
0.247802734375	-0.0075927734375	4779.24011693358
0.243377685546875	-0.0075927734375	4779.46136893302
0.23895263671875	-0.0075897216796875	4779.68262093246
0.234527587890625	-0.0075897216796875	4779.9038729319
0.2301025390625	-0.0075836181640625	4780.12512493134
0.225677490234375	-0.0075836181640625	4780.34637693079
0.22125244140625	-0.00758056640625	4780.56762893023
0.216827392578125	-0.0075775146484375	4780.78888092967
0.21240234375	-0.007574462890625	4781.01013292911
0.207977294921875	-0.007568359375	4781.23138492855
0.20355224609375	-0.0075653076171875	4781.45263692799
0.199127197265625	-0.007562255859375	4781.67388892743
0.1947021484375	-0.00755615234375	4781.89514092688
0.190277099609375	-0.0075531005859375	4782.11639292632
0.18585205078125	-0.007550048828125	4782.33764492576
0.181427001953125	-0.0075469970703125	4782.5588969252
0.177001953125	-0.0075408935546875	4782.78014892464
0.172576904296875	-0.007537841796875	4783.00140092408
0.16815185546875	-0.0075347900390625	4783.22265292352
0.163726806640625	-0.0075286865234375	4783.44390492296
0.1593017578125	-0.007525634765625	4783.66515692241
0.154876708984375	-0.00751953125	4783.88640892185
0.15045166015625	-0.0075164794921875	4784.10766092129
0.146026611328125	-0.007513427734375	4784.32891292073
0.1416015625	-0.007513427734375	4784.55016492017
0.137176513671875	-0.0075103759765625	4784.77141691961
0.13275146484375	-0.00750732421875	4784.99266891906
0.128326416015625	-0.0075042724609375	4785.2139209185
0.1239013671875	-0.007501220703125	4785.43517291794
0.119476318359375	-0.007501220703125	4785.65642491738
0.11505126953125	-0.0074981689453125	4785.87767691682
0.110626220703125	-0.0074981689453125	4786.09892891626
0.106201171875	-0.0074981689453125	4786.3201809157
0.101776123046875	-0.0074981689453125	4786.54143291514
0.09735107421875	-0.0074981689453125	4786.76268491459
0.092926025390625	-0.007501220703125	4786.98393691403
0.0885009765625	-0.007501220703125	4787.20518891347
0.084075927734375	-0.0075042724609375	4787.42644091291
0.07965087890625	-0.00750732421875	4787.64769291235
0.075225830078125	-0.0075103759765625	4787.86894491179
0.07080078125	-0.0075164794921875	4788.09019691123
0.066375732421875	-0.00751953125	4788.31144891068
0.06195068359375	-0.0075286865234375	4788.53270091012
0.057525634765625	-0.0075347900390625	4788.75395290956
0.0531005859375	-0.0075408935546875	4788.975204909
0.048675537109375	-0.007550048828125	4789.19645690844
0.04425048828125	-0.0075592041015625	4789.41770890788
0.039825439453125	-0.007568359375	4789.63896090732
0.035400390625	-0.00758056640625	4789.86021290677
0.030975341796875	-0.0075927734375	4790.08146490621
0.02655029296875	-0.00760498046875	4790.30271690565
0.022125244140625	-0.0076202392578125	4790.52396890509
0.0177001953125	-0.007635498046875	4790.74522090453
0.013275146484375	-0.0076507568359375	4790.96647290397
0.00885009765625	-0.007666015625	4791.18772490341
0.004425048828125	-0.007684326171875	4791.40897690286
0	-0.00770263671875	4791.6302289023
0.004425048828125	-0.0068023681640625	4791.85148090174
0.00885009765625	-0.0059906005859375	4792.07273290118
0.013275146484375	-0.0052459716796875	4792.29398490062
0.0177001953125	-0.00456695556640625	4792.51523690006
0.022125244140625	-0.0039385986328125	4792.7364888995
0.02655029296875	-0.003358154296875	4792.95774089895
0.030975341796875	-0.0028192138671875	4793.17899289839
0.035400390625	-0.00231903076171875	4793.40024489783
0.039825439453125	-0.00186126708984375	4793.62149689727
0.04425048828125	-0.00142547607421875	4793.84274889671
0.048675537109375	-0.0010186767578125	4794.06400089615
0.0531005859375	-0.00063751220703125	4794.28525289559
0.057525634765625	-0.00028082275390625	4794.50650489503
0.06195068359375	5.3680419921875E-05	4794.72775689448
0.066375732421875	0.00036749267578125	4794.94900889392
0.07080078125	0.00066253662109375	4795.17026089336
0.075225830078125	0.00093963623046875	4795.3915128928
0.07965087890625	0.001199951171875	4795.61276489224
0.084075927734375	0.0014453125	4795.83401689168
0.0885009765625	0.00167633056640625	4796.05526889112
0.092926025390625	0.00189361572265625	4796.27652089057
0.09735107421875	0.00209869384765625	4796.49777289001
0.101776123046875	0.00229156494140625	4796.71902488945
0.106201171875	0.00247283935546875	4796.94027688889
0.110626220703125	0.00264312744140625	4797.16152888833
0.11505126953125	0.0028045654296875	4797.38278088777
0.119476318359375	0.00295623779296875	4797.60403288721
0.1239013671875	0.0031024169921875	4797.82528488666
0.128326416015625	0.00324127197265625	4798.0465368861
0.13275146484375	0.0033721923828125	4798.26778888554
0.137176513671875	0.003497314453125	4798.48904088498
0.1416015625	0.0036151123046875	4798.71029288442
0.146026611328125	0.00372802734375	4798.93154488386
0.15045166015625	0.003834228515625	4799.1527968833
0.154876708984375	0.00393585205078125	4799.37404888275
0.1593017578125	0.00403228759765625	4799.59530088219
0.163726806640625	0.00412261962890625	4799.81655288163
0.16815185546875	0.0042108154296875	4800.03780488107
0.172576904296875	0.00429443359375	4800.25905688051
0.177001953125	0.004373779296875	4800.48030887995
0.181427001953125	0.0044500732421875	4800.70156087939
0.18585205078125	0.0045220947265625	4800.92281287884
0.190277099609375	0.00459136962890625	4801.14406487828
0.1947021484375	0.00465911865234375	4801.36531687772
0.199127197265625	0.00472412109375	4801.58656887716
0.20355224609375	0.0047869873046875	4801.8078208766
0.207977294921875	0.004844970703125	4802.02907287604
0.21240234375	0.0049017333984375	4802.25032487548
0.216827392578125	0.00495574951171875	4802.47157687492
0.22125244140625	0.0050115966796875	4802.69282887437
0.225677490234375	0.0050628662109375	4802.91408087381
0.2301025390625	0.00511138916015625	4803.13533287325
0.234527587890625	0.005157470703125	4803.35658487269
0.23895263671875	0.00520263671875	4803.57783687213
0.243377685546875	0.0052471923828125	4803.79908887157
0.247802734375	0.0052899169921875	4804.02034087101
0.252227783203125	0.0053314208984375	4804.24159287046
0.25665283203125	0.005372314453125	4804.4628448699
0.261077880859375	0.00541168212890625	4804.68409686934
0.2655029296875	0.00545013427734375	4804.90534886878
0.269927978515625	0.00548828125	4805.12660086822
0.27435302734375	0.00552520751953125	4805.34785286766
0.278778076171875	0.00556182861328125	4805.5691048671
0.283203125	0.00559661865234375	4805.79035686655
0.287628173828125	0.00563201904296875	4806.01160886599
0.29205322265625	0.00566558837890625	4806.23286086543
0.296478271484375	0.0056988525390625	4806.45411286487
0.3009033203125	0.005731201171875	4806.67536486431
0.305328369140625	0.005762939453125	4806.89661686375
0.30975341796875	0.00579498291015625	4807.11786886319
0.314178466796875	0.0058294677734375	4807.33912086264
0.318603515625	0.005859375	4807.56037286208
0.323028564453125	0.00589019775390625	4807.78162486152
0.32745361328125	0.00591949462890625	4808.00287686096
0.331878662109375	0.00594940185546875	4808.2241288604
0.3363037109375	0.0059783935546875	4808.44538085984
0.340728759765625	0.00600738525390625	4808.66663285928
0.34515380859375	0.0060272216796875	4808.88788485873
0.349578857421875	0.0060516357421875	4809.10913685817
0.35400390625	0.0060760498046875	4809.33038885761
0.358428955078125	0.006103515625	4809.55164085705
0.36285400390625	0.0061309814453125	4809.77289285649
0.367279052734375	0.006158447265625	4809.99414485593
0.3717041015625	0.006182861328125	4810.21539685537
0.376129150390625	0.00621337890625	4810.43664885481
0.38055419921875	0.00623779296875	4810.65790085426
0.384979248046875	0.0062652587890625	4810.8791528537
0.389404296875	0.0062896728515625	4811.10040485314
0.393829345703125	0.006317138671875	4811.32165685258
0.39825439453125	0.006341552734375	4811.54290885202
0.402679443359375	0.0063690185546875	4811.76416085146
0.4071044921875	0.006396484375	4811.98541285091
0.411529541015625	0.0064208984375	4812.20666485035
0.41595458984375	0.0064483642578125	4812.42791684979
0.420379638671875	0.006475830078125	4812.64916884923
0.4248046875	0.006500244140625	4812.87042084867
0.429229736328125	0.006524658203125	4813.09167284811
0.43365478515625	0.0065521240234375	4813.31292484755
0.438079833984375	0.006573486328125	4813.53417684699
0.4425048828125	0.0066009521484375	4813.75542884644
0.446929931640625	0.006622314453125	4813.97668084588
0.45135498046875	0.006646728515625	4814.19793284532
0.455780029296875	0.006671142578125	4814.41918484476
0.460205078125	0.0066925048828125	4814.6404368442
0.464630126953125	0.0067169189453125	4814.86168884364
0.46905517578125	0.00673828125	4815.08294084308
0.473480224609375	0.0067626953125	4815.30419284253
0.4779052734375	0.0067840576171875	4815.52544484197
0.482330322265625	0.006805419921875	4815.74669684141
0.48675537109375	0.0068267822265625	4815.96794884085
0.491180419921875	0.00684814453125	4816.18920084029
0.49560546875	0.0068695068359375	4816.41045283973
0.500030517578125	0.006890869140625	4816.63170483917
0.50445556640625	0.0069122314453125	4816.85295683862
0.508880615234375	0.00693359375	4817.07420883806
0.5133056640625	0.006951904296875	4817.2954608375
0.517730712890625	0.00697021484375	4817.51671283694
0.52215576171875	0.006988525390625	4817.73796483638
0.526580810546875	0.0070068359375	4817.95921683582
0.531005859375	0.007025146484375	4818.18046883526
0.535430908203125	0.00704345703125	4818.4017208347
0.53985595703125	0.0070587158203125	4818.62297283415
0.544281005859375	0.0070770263671875	4818.84422483359
0.5487060546875	0.0070892333984375	4819.06547683303
0.553131103515625	0.0071075439453125	4819.28672883247
0.55755615234375	0.0071197509765625	4819.50798083191
0.561981201171875	0.007135009765625	4819.72923283135
0.56640625	0.0071502685546875	4819.9504848308
0.570831298828125	0.0071624755859375	4820.17173683024
0.57525634765625	0.0071746826171875	4820.39298882968
0.579681396484375	0.0071868896484375	4820.61424082912
0.5841064453125	0.0071990966796875	4820.83549282856
0.588531494140625	0.007208251953125	4821.056744828
0.59295654296875	0.0072174072265625	4821.27799682744
0.597381591796875	0.0072296142578125	4821.49924882688
0.601806640625	0.00723876953125	4821.72050082633
0.606231689453125	0.0072479248046875	4821.94175282577
0.61065673828125	0.0072540283203125	4822.16300482521
0.615081787109375	0.00726318359375	4822.38425682465
0.6195068359375	0.007269287109375	4822.60550882409
0.623931884765625	0.007275390625	4822.82676082353
0.62835693359375	0.00728759765625	4823.04801282297
0.632781982421875	0.007293701171875	4823.26926482242
0.63720703125	0.0072998046875	4823.49051682186
0.641632080078125	0.0073028564453125	4823.7117688213
0.64605712890625	0.0073089599609375	4823.93302082074
0.650482177734375	0.00731201171875	4824.15427282018
0.6549072265625	0.0073150634765625	4824.37552481962
0.659332275390625	0.0073211669921875	4824.59677681906
0.66375732421875	0.00732421875	4824.81802881851
0.668182373046875	0.0073272705078125	4825.03928081795
0.672607421875	0.007330322265625	4825.26053281739
0.677032470703125	0.0073333740234375	4825.48178481683
0.68145751953125	0.00733642578125	4825.70303681627
0.685882568359375	0.0073394775390625	4825.92428881571
0.6903076171875	0.007342529296875	4826.14554081515
0.694732666015625	0.0073455810546875	4826.3667928146
0.69915771484375	0.0073455810546875	4826.58804481404
0.703582763671875	0.0073486328125	4826.80929681348
0.7080078125	0.0073486328125	4827.03054881292
0.712432861328125	0.0073516845703125	4827.25180081236
0.71685791015625	0.007354736328125	4827.4730528118
0.721282958984375	0.0073577880859375	4827.69430481124
0.7257080078125	0.00736083984375	4827.91555681069
0.730133056640625	0.0073638916015625	4828.13680881013
0.73455810546875	0.0073638916015625	4828.35806080957
0.738983154296875	0.007366943359375	4828.57931280901
0.743408203125	0.007366943359375	4828.80056480845
0.747833251953125	0.0073699951171875	4829.02181680789
0.75225830078125	0.007373046875	4829.24306880733
0.756683349609375	0.0073760986328125	4829.46432080677
0.7611083984375	0.0073822021484375	4829.68557280622
0.765533447265625	0.00738525390625	4829.90682480566
0.76995849609375	0.0073883056640625	4830.1280768051
0.774383544921875	0.007391357421875	4830.34932880454
0.77880859375	0.0073974609375	4830.57058080398
0.783233642578125	0.0074005126953125	4830.79183280342
0.78765869140625	0.0074066162109375	4831.01308480286
0.792083740234375	0.0074127197265625	4831.23433680231
0.7965087890625	0.0074188232421875	4831.45558880175
0.800933837890625	0.0074249267578125	4831.67684080119
0.80535888671875	0.0074310302734375	4831.89809280063
0.809783935546875	0.0074371337890625	4832.11934480007
0.814208984375	0.0074462890625	4832.34059679951
0.818634033203125	0.007452392578125	4832.56184879895
0.82305908203125	0.0074615478515625	4832.7831007984
0.827484130859375	0.0074737548828125	4833.00435279784
0.8319091796875	0.00748291015625	4833.22560479728
0.836334228515625	0.0074951171875	4833.44685679672
0.84075927734375	0.00750732421875	4833.66810879616
0.845184326171875	0.0075225830078125	4833.8893607956
0.849609375	0.0075347900390625	4834.11061279504
0.854034423828125	0.0075531005859375	4834.33186479449
0.85845947265625	0.0075714111328125	4834.55311679393
0.862884521484375	0.007586669921875	4834.77436879337
0.8673095703125	0.0076080322265625	4834.99562079281
0.871734619140625	0.00762939453125	4835.21687279225
0.87615966796875	0.00765380859375	4835.43812479169
0.880584716796875	0.0076812744140625	4835.65937679113
0.885009765625	0.0077056884765625	4835.88062879058
0.889434814453125	0.0077362060546875	4836.10188079002
0.89385986328125	0.0077667236328125	4836.32313278946
0.898284912109375	0.00780029296875	4836.5443847889
0.9027099609375	0.0078338623046875	4836.76563678834
0.907135009765625	0.0078704833984375	4836.98688878778
0.91156005859375	0.0079132080078125	4837.20814078722
0.915985107421875	0.0079559326171875	4837.42939278666
0.92041015625	0.008001708984375	4837.65064478611
0.924835205078125	0.008050537109375	4837.87189678555
0.92926025390625	0.008099365234375	4838.09314878499
0.933685302734375	0.008154296875	4838.31440078443
0.9381103515625	0.00821533203125	4838.53565278387
0.942535400390625	0.0082733154296875	4838.75690478331
0.94696044921875	0.0083343505859375	4838.97815678275
0.951385498046875	0.0083984375	4839.1994087822
0.955810546875	0.0084686279296875	4839.42066078164
0.960235595703125	0.008538818359375	4839.64191278108
0.96466064453125	0.0086090087890625	4839.86316478052
0.969085693359375	0.008685302734375	4840.08441677996
0.9735107421875	0.0087646484375	4840.3056687794
0.977935791015625	0.008843994140625	4840.52692077884
0.98236083984375	0.0089263916015625	4840.74817277829
0.986785888671875	0.009014892578125	4840.96942477773
0.9912109375	0.0091033935546875	4841.19067677717
0.995635986328125	0.00919189453125	4841.41192877661
1.00006103515625	0.0092864990234375	4841.63318077605
0.995635986328125	0.0084259033203125	4841.85443277549
0.9912109375	0.0076446533203125	4842.07568477493
0.986785888671875	0.0069183349609375	4842.29693677438
0.98236083984375	0.0062408447265625	4842.51818877382
0.977935791015625	0.0056060791015625	4842.73944077326
0.9735107421875	0.005010986328125	4842.9606927727
0.969085693359375	0.0044482421875	4843.18194477214
0.96466064453125	0.0039154052734375	4843.40319677158
0.960235595703125	0.0034100341796875	4843.62444877102
0.955810546875	0.00293060302734375	4843.84570077047
0.951385498046875	0.0024737548828125	4844.06695276991
0.94696044921875	0.002039794921875	4844.28820476935
0.942535400390625	0.001624755859375	4844.50945676879
0.9381103515625	0.00122833251953125	4844.73070876823
0.933685302734375	0.00084686279296875	4844.95196076767
0.92926025390625	0.000485748291015625	4845.17321276711
0.924835205078125	0.000140594482421875	4845.39446476655
0.92041015625	-0.0001900634765625	4845.615716766
0.915985107421875	-0.00050567626953125	4845.83696876544
0.91156005859375	-0.0008074951171875	4846.05822076488
0.907135009765625	-0.00109588623046875	4846.27947276432
0.9027099609375	-0.00137237548828125	4846.50072476376
0.898284912109375	-0.0016357421875	4846.7219767632
0.89385986328125	-0.00188812255859375	4846.94322876265
0.889434814453125	-0.00212921142578125	4847.16448076209
0.885009765625	-0.00235931396484375	4847.38573276153
0.880584716796875	-0.0025799560546875	4847.60698476097
0.87615966796875	-0.0027899169921875	4847.82823676041
0.871734619140625	-0.00299041748046875	4848.04948875985
0.8673095703125	-0.003182373046875	4848.27074075929
0.862884521484375	-0.00336395263671875	4848.49199275873
0.85845947265625	-0.00353668212890625	4848.71324475818
0.854034423828125	-0.003702392578125	4848.93449675762
0.849609375	-0.0038604736328125	4849.15574875706
0.845184326171875	-0.00400970458984375	4849.3770007565
0.84075927734375	-0.00415191650390625	4849.59825275594
0.836334228515625	-0.0042877197265625	4849.81950475538
0.8319091796875	-0.00441558837890625	4850.04075675482
0.827484130859375	-0.0045367431640625	4850.26200875427
0.82305908203125	-0.00465240478515625	4850.48326075371
0.818634033203125	-0.0047607421875	4850.70451275315
0.814208984375	-0.0048638916015625	4850.92576475259
0.809783935546875	-0.0049609375	4851.14701675203
0.80535888671875	-0.00505218505859375	4851.36826875147
0.800933837890625	-0.00513946533203125	4851.58952075091
0.7965087890625	-0.00522003173828125	4851.81077275036
0.792083740234375	-0.00529815673828125	4852.0320247498
0.78765869140625	-0.00536895751953125	4852.25327674924
0.783233642578125	-0.00543792724609375	4852.47452874868
0.77880859375	-0.00549957275390625	4852.69578074812
0.774383544921875	-0.00555938720703125	4852.91703274756
0.76995849609375	-0.00561614990234375	4853.138284747
0.765533447265625	-0.0056689453125	4853.35953674644
0.7611083984375	-0.005718994140625	4853.58078874589
0.756683349609375	-0.00576507568359375	4853.80204074533
0.75225830078125	-0.0058074951171875	4854.02329274477
0.747833251953125	-0.00584716796875	4854.24454474421
0.743408203125	-0.00588226318359375	4854.46579674365
0.738983154296875	-0.0059161376953125	4854.68704874309
0.73455810546875	-0.005947265625	4854.90830074254
0.730133056640625	-0.0059771728515625	4855.12955274198
0.7257080078125	-0.006004638671875	4855.35080474142
0.721282958984375	-0.0060089111328125	4855.57205674086
0.71685791015625	-0.0060333251953125	4855.7933087403
0.712432861328125	-0.0060546875	4856.01456073974
0.7080078125	-0.0060760498046875	4856.23581273918
0.703582763671875	-0.0060943603515625	4856.45706473862
0.69915771484375	-0.0061126708984375	4856.67831673807
0.694732666015625	-0.0061279296875	4856.89956873751
0.6903076171875	-0.0061431884765625	4857.12082073695
0.685882568359375	-0.006158447265625	4857.34207273639
0.68145751953125	-0.0061737060546875	4857.56332473583
0.677032470703125	-0.0061859130859375	4857.78457673527
0.672607421875	-0.0061981201171875	4858.00582873471
0.668182373046875	-0.0062103271484375	4858.22708073416
0.66375732421875	-0.0062225341796875	4858.4483327336
0.659332275390625	-0.006231689453125	4858.66958473304
0.6549072265625	-0.006243896484375	4858.89083673248
0.650482177734375	-0.0062530517578125	4859.11208873192
0.64605712890625	-0.00626220703125	4859.33334073136
0.641632080078125	-0.0062744140625	4859.5545927308
0.63720703125	-0.0062835693359375	4859.77584473025
0.632781982421875	-0.006292724609375	4859.99709672969
0.62835693359375	-0.006304931640625	4860.21834872913
0.623931884765625	-0.006317138671875	4860.43960072857
0.6195068359375	-0.006329345703125	4860.66085272801
0.615081787109375	-0.0063385009765625	4860.88210472745
0.61065673828125	-0.00634765625	4861.10335672689
0.606231689453125	-0.0063568115234375	4861.32460872634
0.601806640625	-0.006365966796875	4861.54586072578
0.597381591796875	-0.006378173828125	4861.76711272522
0.59295654296875	-0.0063873291015625	4861.98836472466
0.588531494140625	-0.0063995361328125	4862.2096167241
0.5841064453125	-0.00640869140625	4862.43086872354
0.579681396484375	-0.0064178466796875	4862.65212072298
0.57525634765625	-0.0064300537109375	4862.87337272243
0.570831298828125	-0.0064422607421875	4863.09462472187
0.56640625	-0.0064544677734375	4863.31587672131
0.561981201171875	-0.0064666748046875	4863.53712872075
0.55755615234375	-0.0064788818359375	4863.75838072019
0.553131103515625	-0.006494140625	4863.97963271963
0.5487060546875	-0.00650634765625	4864.20088471907
0.544281005859375	-0.0065216064453125	4864.42213671851
0.53985595703125	-0.0065338134765625	4864.64338871796
0.535430908203125	-0.006549072265625	4864.8646407174
0.531005859375	-0.0065673828125	4865.08589271684
0.526580810546875	-0.00657958984375	4865.30714471628
0.52215576171875	-0.006597900390625	4865.52839671572
0.517730712890625	-0.0066162109375	4865.74964871516
0.5133056640625	-0.0066314697265625	4865.9709007146
0.508880615234375	-0.0066497802734375	4866.19215271405
0.50445556640625	-0.0066680908203125	4866.41340471349
0.500030517578125	-0.006689453125	4866.63465671293
0.49560546875	-0.006707763671875	4866.85590871237
0.491180419921875	-0.00672607421875	4867.07716071181
0.48675537109375	-0.0067474365234375	4867.29841271125
0.482330322265625	-0.006768798828125	4867.51966471069
0.4779052734375	-0.0067901611328125	4867.74091671014
0.473480224609375	-0.0068115234375	4867.96216870958
0.46905517578125	-0.0068328857421875	4868.18342070902
0.464630126953125	-0.006854248046875	4868.40467270846
0.460205078125	-0.006878662109375	4868.6259247079
0.455780029296875	-0.006903076171875	4868.84717670734
0.45135498046875	-0.0069244384765625	4869.06842870678
0.446929931640625	-0.0069488525390625	4869.28968070623
0.4425048828125	-0.0069732666015625	4869.51093270567
0.438079833984375	-0.0069976806640625	4869.73218470511
0.43365478515625	-0.0070220947265625	4869.95343670455
0.429229736328125	-0.0070465087890625	4870.17468870399
0.4248046875	-0.0070709228515625	4870.39594070343
0.420379638671875	-0.0070953369140625	4870.61719270287
0.41595458984375	-0.0071197509765625	4870.83844470232
0.411529541015625	-0.0071441650390625	4871.05969670176
0.4071044921875	-0.0071685791015625	4871.2809487012
0.402679443359375	-0.0071929931640625	4871.50220070064
0.39825439453125	-0.0072174072265625	4871.72345270008
0.393829345703125	-0.00723876953125	4871.94470469952
0.389404296875	-0.0072601318359375	4872.16595669896
0.384979248046875	-0.007281494140625	4872.3872086984
0.38055419921875	-0.0073028564453125	4872.60846069785
0.376129150390625	-0.0073272705078125	4872.82971269729
0.3717041015625	-0.0073455810546875	4873.05096469673
0.367279052734375	-0.007366943359375	4873.27221669617
0.36285400390625	-0.00738525390625	4873.49346869561
0.358428955078125	-0.007403564453125	4873.71472069505
0.35400390625	-0.007421875	4873.93597269449
0.349578857421875	-0.00743408203125	4874.15722469394
0.34515380859375	-0.0074493408203125	4874.37847669338
0.340728759765625	-0.007464599609375	4874.59972869282
0.3363037109375	-0.0074798583984375	4874.82098069226
0.331878662109375	-0.0074920654296875	4875.0422326917
0.32745361328125	-0.0075042724609375	4875.26348469114
0.323028564453125	-0.0075164794921875	4875.48473669058
0.318603515625	-0.007525634765625	4875.70598869003
0.314178466796875	-0.0075347900390625	4875.92724068947
0.30975341796875	-0.0075469970703125	4876.14849268891
0.305328369140625	-0.0075531005859375	4876.36974468835
0.3009033203125	-0.007562255859375	4876.59099668779
0.296478271484375	-0.0075653076171875	4876.81224868723
0.29205322265625	-0.0075714111328125	4877.03350068667
0.287628173828125	-0.007574462890625	4877.25475268612
0.283203125	-0.0075775146484375	4877.47600468556
0.278778076171875	-0.00758056640625	4877.697256685
0.27435302734375	-0.0075836181640625	4877.91850868444
0.269927978515625	-0.0075836181640625	4878.13976068388
0.2655029296875	-0.007586669921875	4878.36101268332
0.261077880859375	-0.007586669921875	4878.58226468276
0.25665283203125	-0.007586669921875	4878.80351668221
0.252227783203125	-0.0075836181640625	4879.02476868165
0.247802734375	-0.0075836181640625	4879.24602068109
0.243377685546875	-0.0075836181640625	4879.46727268053
0.23895263671875	-0.00758056640625	4879.68852467997
0.234527587890625	-0.0075775146484375	4879.90977667941
0.2301025390625	-0.007574462890625	4880.13102867885
0.225677490234375	-0.0075714111328125	4880.35228067829
0.22125244140625	-0.007568359375	4880.57353267774
0.216827392578125	-0.0075653076171875	4880.79478467718
0.21240234375	-0.007562255859375	4881.01603667662
0.207977294921875	-0.00755615234375	4881.23728867606
0.20355224609375	-0.0075531005859375	4881.4585406755
0.199127197265625	-0.007550048828125	4881.67979267494
0.1947021484375	-0.0075439453125	4881.90104467439
0.190277099609375	-0.0075408935546875	4882.12229667383
0.18585205078125	-0.007537841796875	4882.34354867327
0.181427001953125	-0.0075347900390625	4882.56480067271
0.177001953125	-0.0075286865234375	4882.78605267215
0.172576904296875	-0.007525634765625	4883.00730467159
0.16815185546875	-0.0075225830078125	4883.22855667103
0.163726806640625	-0.0075164794921875	4883.44980867047
0.1593017578125	-0.007513427734375	4883.67106066992
0.154876708984375	-0.00750732421875	4883.89231266936
0.15045166015625	-0.00750732421875	4884.1135646688
0.146026611328125	-0.007501220703125	4884.33481666824
0.1416015625	-0.0074981689453125	4884.55606866768
0.137176513671875	-0.0074981689453125	4884.77732066712
0.13275146484375	-0.0074920654296875	4884.99857266656
0.128326416015625	-0.0074920654296875	4885.21982466601
0.1239013671875	-0.007489013671875	4885.44107666545
0.119476318359375	-0.0074859619140625	4885.66232866489
0.11505126953125	-0.00748291015625	4885.88358066433
0.110626220703125	-0.00748291015625	4886.10483266377
0.106201171875	-0.00748291015625	4886.32608466321
0.101776123046875	-0.00748291015625	4886.54733666265
0.09735107421875	-0.00748291015625	4886.7685886621
0.092926025390625	-0.0074859619140625	4886.98984066154
0.0885009765625	-0.0074859619140625	4887.21109266098
0.084075927734375	-0.007489013671875	4887.43234466042
0.07965087890625	-0.0074920654296875	4887.65359665986
0.075225830078125	-0.0074951171875	4887.8748486593
0.07080078125	-0.007501220703125	4888.09610065874
0.066375732421875	-0.0075042724609375	4888.31735265818
0.06195068359375	-0.0075103759765625	4888.53860465763
0.057525634765625	-0.00751953125	4888.75985665707
0.0531005859375	-0.007525634765625	4888.98110865651
0.048675537109375	-0.0075347900390625	4889.20236065595
0.04425048828125	-0.0075439453125	4889.42361265539
0.039825439453125	-0.0075531005859375	4889.64486465483
0.035400390625	-0.0075653076171875	4889.86611665428
0.030975341796875	-0.0075775146484375	4890.08736865372
0.02655029296875	-0.0075897216796875	4890.30862065316
0.022125244140625	-0.0076019287109375	4890.5298726526
0.0177001953125	-0.0076171875	4890.75112465204
0.013275146484375	-0.0076324462890625	4890.97237665148
0.00885009765625	-0.0076507568359375	4891.19362865092
0.004425048828125	-0.0076690673828125	4891.41488065036
0	-0.0076873779296875	4891.63613264981
0.004425048828125	-0.006787109375	4891.85738464925
0.00885009765625	-0.005975341796875	4892.07863664869
0.013275146484375	-0.0052337646484375	4892.29988864813
0.0177001953125	-0.004554443359375	4892.52114064757
0.022125244140625	-0.00392669677734375	4892.74239264701
0.02655029296875	-0.003345947265625	4892.96364464645
0.030975341796875	-0.0028082275390625	4893.1848966459
0.035400390625	-0.00230743408203125	4893.40614864534
0.039825439453125	-0.00185028076171875	4893.62740064478
0.04425048828125	-0.00141448974609375	4893.84865264422
0.048675537109375	-0.00100799560546875	4894.06990464366
0.0531005859375	-0.00062713623046875	4894.2911566431
0.057525634765625	-0.000270538330078125	4894.51240864254
0.06195068359375	6.390380859375E-05	4894.73366064199
0.066375732421875	0.000378204345703125	4894.95491264143
0.07080078125	0.00067291259765625	4895.17616464087
0.075225830078125	0.00094970703125	4895.39741664031
0.07965087890625	0.00121002197265625	4895.61866863975
0.084075927734375	0.00145599365234375	4895.83992063919
0.0885009765625	0.00168670654296875	4896.06117263863
0.092926025390625	0.00190399169921875	4896.28242463808
0.09735107421875	0.002109375	4896.50367663752
0.101776123046875	0.00230224609375	4896.72492863696
0.106201171875	0.00248443603515625	4896.9461806364
0.110626220703125	0.0026544189453125	4897.16743263584
0.11505126953125	0.00281585693359375	4897.38868463528
0.119476318359375	0.00296783447265625	4897.60993663472
0.1239013671875	0.0031146240234375	4897.83118863417
0.128326416015625	0.00325347900390625	4898.05244063361
0.13275146484375	0.0033837890625	4898.27369263305
0.137176513671875	0.00350921630859375	4898.49494463249
0.1416015625	0.00362762451171875	4898.71619663193
0.146026611328125	0.00373992919921875	4898.93744863137
0.15045166015625	0.0038470458984375	4899.15870063081
0.154876708984375	0.00394775390625	4899.37995263025
0.1593017578125	0.00404388427734375	4899.6012046297
0.163726806640625	0.0041357421875	4899.82245662914
0.16815185546875	0.00422271728515625	4900.04370862858
0.172576904296875	0.004306640625	4900.26496062802
0.177001953125	0.00438568115234375	4900.48621262746
0.181427001953125	0.0044622802734375	4900.7074646269
0.18585205078125	0.00453399658203125	4900.92871662634
0.190277099609375	0.00460357666015625	4901.14996862579
0.1947021484375	0.004671630859375	4901.37122062523
0.199127197265625	0.00473541259765625	4901.59247262467
0.20355224609375	0.00479766845703125	4901.81372462411
0.207977294921875	0.00485565185546875	4902.03497662355
0.21240234375	0.00491241455078125	4902.25622862299
0.216827392578125	0.00496734619140625	4902.47748062243
0.22125244140625	0.0050213623046875	4902.69873262188
0.225677490234375	0.00507232666015625	4902.91998462132
0.2301025390625	0.00512054443359375	4903.14123662076
0.234527587890625	0.00516632080078125	4903.3624886202
0.23895263671875	0.00521270751953125	4903.58374061964
0.243377685546875	0.00525665283203125	4903.80499261908
0.247802734375	0.00529998779296875	4904.02624461852
0.252227783203125	0.00534088134765625	4904.24749661797
0.25665283203125	0.005382080078125	4904.46874861741
0.261077880859375	0.00542144775390625	4904.69000061685
0.2655029296875	0.00546051025390625	4904.91125261629
0.269927978515625	0.0054986572265625	4905.13250461573
0.27435302734375	0.00553497314453125	4905.35375661517
0.278778076171875	0.0055712890625	4905.57500861461
0.283203125	0.0056060791015625	4905.79626061406
0.287628173828125	0.00564056396484375	4906.0175126135
0.29205322265625	0.005675048828125	4906.23876461294
0.296478271484375	0.00570709228515625	4906.46001661238
0.3009033203125	0.00574005126953125	4906.68126861182
0.305328369140625	0.005771484375	4906.90252061126
0.30975341796875	0.00580291748046875	4907.1237726107
0.314178466796875	0.00583709716796875	4907.34502461014
0.318603515625	0.00586639404296875	4907.56627660959
0.323028564453125	0.0058966064453125	4907.78752860903
0.32745361328125	0.00592620849609375	4908.00878060847
0.331878662109375	0.00595550537109375	4908.23003260791
0.3363037109375	0.005985107421875	4908.45128460735
0.340728759765625	0.00601318359375	4908.67253660679
0.34515380859375	0.0060333251953125	4908.89378860623
0.349578857421875	0.0060577392578125	4909.11504060568
0.35400390625	0.0060821533203125	4909.33629260512
0.358428955078125	0.006109619140625	4909.55754460456
0.36285400390625	0.006134033203125	4909.778796604
0.367279052734375	0.0061614990234375	4910.00004860344
0.3717041015625	0.0061859130859375	4910.22130060288
0.376129150390625	0.00621337890625	4910.44255260232
0.38055419921875	0.0062408447265625	4910.66380460177
0.384979248046875	0.0062652587890625	4910.88505660121
0.389404296875	0.006292724609375	4911.10630860065
0.393829345703125	0.006317138671875	4911.32756060009
0.39825439453125	0.0063446044921875	4911.54881259953
0.402679443359375	0.0063690185546875	4911.77006459897
0.4071044921875	0.006396484375	4911.99131659841
0.411529541015625	0.0064208984375	4912.21256859786
0.41595458984375	0.0064483642578125	4912.4338205973
0.420379638671875	0.0064727783203125	4912.65507259674
0.4248046875	0.0064971923828125	4912.87632459618
0.429229736328125	0.0065216064453125	4913.09757659562
0.43365478515625	0.006549072265625	4913.31882859506
0.438079833984375	0.006573486328125	4913.5400805945
0.4425048828125	0.006597900390625	4913.76133259395
0.446929931640625	0.0066192626953125	4913.98258459339
0.45135498046875	0.0066436767578125	4914.20383659283
0.455780029296875	0.0066680908203125	4914.42508859227
0.460205078125	0.006689453125	4914.64634059171
0.464630126953125	0.0067138671875	4914.86759259115
0.46905517578125	0.0067352294921875	4915.08884459059
0.473480224609375	0.006756591796875	4915.31009659003
0.4779052734375	0.006781005859375	4915.53134858948
0.482330322265625	0.00679931640625	4915.75260058892
0.48675537109375	0.0068206787109375	4915.97385258836
0.491180419921875	0.006842041015625	4916.1951045878
0.49560546875	0.0068634033203125	4916.41635658724
0.500030517578125	0.0068817138671875	4916.63760858668
0.50445556640625	0.006903076171875	4916.85886058613
0.508880615234375	0.0069244384765625	4917.08011258557
0.5133056640625	0.0069427490234375	4917.30136458501
0.517730712890625	0.0069610595703125	4917.52261658445
0.52215576171875	0.006982421875	4917.74386858389
0.526580810546875	0.0069976806640625	4917.96512058333
0.531005859375	0.0070159912109375	4918.18637258277
0.535430908203125	0.0070343017578125	4918.40762458221
0.53985595703125	0.007049560546875	4918.62887658166
0.544281005859375	0.0070648193359375	4918.8501285811
0.5487060546875	0.007080078125	4919.07138058054
0.553131103515625	0.0070953369140625	4919.29263257998
0.55755615234375	0.007110595703125	4919.51388457942
0.561981201171875	0.0071258544921875	4919.73513657886
0.56640625	0.0071380615234375	4919.9563885783
0.570831298828125	0.0071502685546875	4920.17764057775
0.57525634765625	0.00716552734375	4920.39889257719
0.579681396484375	0.0071746826171875	4920.62014457663
0.5841064453125	0.0071868896484375	4920.84139657607
0.588531494140625	0.007196044921875	4921.06264857551
0.59295654296875	0.0072052001953125	4921.28390057495
0.597381591796875	0.00721435546875	4921.50515257439
0.601806640625	0.0072235107421875	4921.72640457384
0.606231689453125	0.007232666015625	4921.94765657328
0.61065673828125	0.0072418212890625	4922.16890857272
0.615081787109375	0.0072479248046875	4922.39016057216
0.6195068359375	0.007257080078125	4922.6114125716
0.623931884765625	0.00726318359375	4922.83266457104
0.62835693359375	0.007275390625	4923.05391657048
0.632781982421875	0.0072784423828125	4923.27516856992
0.63720703125	0.0072845458984375	4923.49642056937
0.641632080078125	0.0072906494140625	4923.71767256881
0.64605712890625	0.007293701171875	4923.93892456825
0.650482177734375	0.0072967529296875	4924.16017656769
0.6549072265625	0.0072998046875	4924.38142856713
0.659332275390625	0.007305908203125	4924.60268056657
0.66375732421875	0.0073089599609375	4924.82393256602
0.668182373046875	0.00731201171875	4925.04518456546
0.672607421875	0.0073150634765625	4925.2664365649
0.677032470703125	0.007318115234375	4925.48768856434
0.68145751953125	0.0073211669921875	4925.70894056378
0.685882568359375	0.00732421875	4925.93019256322
0.6903076171875	0.00732421875	4926.15144456266
0.694732666015625	0.0073272705078125	4926.3726965621
0.69915771484375	0.007330322265625	4926.59394856155
0.703582763671875	0.007330322265625	4926.81520056099
0.7080078125	0.0073333740234375	4927.03645256043
0.712432861328125	0.00733642578125	4927.25770455987
0.71685791015625	0.0073394775390625	4927.47895655931
0.721282958984375	0.0073394775390625	4927.70020855875
0.7257080078125	0.007342529296875	4927.92146055819
0.730133056640625	0.0073455810546875	4928.14271255764
0.73455810546875	0.0073455810546875	4928.36396455708
0.738983154296875	0.0073486328125	4928.58521655652
0.743408203125	0.0073486328125	4928.80646855596
0.747833251953125	0.0073516845703125	4929.0277205554
0.75225830078125	0.007354736328125	4929.24897255484
0.756683349609375	0.0073577880859375	4929.47022455428
0.7611083984375	0.0073638916015625	4929.69147655373
0.765533447265625	0.0073638916015625	4929.91272855317
0.76995849609375	0.0073699951171875	4930.13398055261
0.774383544921875	0.007373046875	4930.35523255205
0.77880859375	0.0073760986328125	4930.57648455149
0.783233642578125	0.007379150390625	4930.79773655093
0.78765869140625	0.00738525390625	4931.01898855037
0.792083740234375	0.007391357421875	4931.24024054982
0.7965087890625	0.0073944091796875	4931.46149254926
0.800933837890625	0.007403564453125	4931.6827445487
0.80535888671875	0.00740966796875	4931.90399654814
0.809783935546875	0.007415771484375	4932.12524854758
0.814208984375	0.007421875	4932.34650054702
0.818634033203125	0.0074310302734375	4932.56775254646
0.82305908203125	0.007440185546875	4932.78900454591
0.827484130859375	0.0074493408203125	4933.01025654535
0.8319091796875	0.0074615478515625	4933.23150854479
0.836334228515625	0.007470703125	4933.45276054423
0.84075927734375	0.00748291015625	4933.67401254367
0.845184326171875	0.0074981689453125	4933.89526454311
0.849609375	0.0075103759765625	4934.11651654255
0.854034423828125	0.007525634765625	4934.33776854199
0.85845947265625	0.0075439453125	4934.55902054144
0.862884521484375	0.007562255859375	4934.78027254088
0.8673095703125	0.0075836181640625	4935.00152454032
0.871734619140625	0.00760498046875	4935.22277653976
0.87615966796875	0.0076263427734375	4935.4440285392
0.880584716796875	0.00765380859375	4935.66528053864
0.885009765625	0.00767822265625	4935.88653253808
0.889434814453125	0.007708740234375	4936.10778453753
0.89385986328125	0.0077392578125	4936.32903653697
0.898284912109375	0.0077728271484375	4936.55028853641
0.9027099609375	0.007806396484375	4936.77154053585
0.907135009765625	0.007843017578125	4936.99279253529
0.91156005859375	0.0078826904296875	4937.21404453473
0.915985107421875	0.0079254150390625	4937.43529653417
0.92041015625	0.0079681396484375	4937.65654853362
0.924835205078125	0.00802001953125	4937.87780053306
0.92926025390625	0.00806884765625	4938.0990525325
0.933685302734375	0.0081207275390625	4938.32030453194
0.9381103515625	0.0081817626953125	4938.54155653138
0.942535400390625	0.00823974609375	4938.76280853082
0.94696044921875	0.00830078125	4938.98406053026
0.951385498046875	0.0083648681640625	4939.20531252971
0.955810546875	0.008428955078125	4939.42656452915
0.960235595703125	0.0084991455078125	4939.64781652859
0.96466064453125	0.0085723876953125	4939.86906852803
0.969085693359375	0.0086456298828125	4940.09032052747
0.9735107421875	0.008721923828125	4940.31157252691
0.977935791015625	0.00880126953125	4940.53282452635
0.98236083984375	0.0088836669921875	4940.7540765258
0.986785888671875	0.0089691162109375	4940.97532852524
0.9912109375	0.0090576171875	4941.19658052468
