Potential applied (V)	WE(1).Current (A)	Time (s)
0.004425048828125	-0.00042822265625	2491.10056071058
0.00885009765625	-0.00024383544921875	2491.98557070834
0.013275146484375	-9.2864990234375E-05	2492.87058070611
0.0177001953125	3.34991455078125E-05	2493.75559070387
0.022125244140625	0.00014276123046875	2494.64060070164
0.02655029296875	0.00023846435546875	2495.5256106994
0.030975341796875	0.00032403564453125	2496.41062069717
0.035400390625	0.000399627685546875	2497.29563069493
0.039825439453125	0.00046795654296875	2498.1806406927
0.04425048828125	0.000529144287109375	2499.06565069047
0.048675537109375	0.000585784912109375	2499.95066068823
0.0531005859375	0.000636749267578125	2500.835670686
0.057525634765625	0.00068389892578125	2501.72068068376
0.06195068359375	0.00072723388671875	2502.60569068153
0.066375732421875	0.000767822265625	2503.49070067929
0.07080078125	0.0008038330078125	2504.37571067706
0.075225830078125	0.0008380126953125	2505.26072067482
0.07965087890625	0.0008685302734375	2506.14573067259
0.084075927734375	0.00089752197265625	2507.03074067036
0.0885009765625	0.00092498779296875	2507.91575066812
0.092926025390625	0.00095123291015625	2508.80076066589
0.09735107421875	0.000975341796875	2509.68577066365
0.101776123046875	0.0009979248046875	2510.57078066142
0.106201171875	0.001019287109375	2511.45579065918
0.110626220703125	0.00103973388671875	2512.34080065695
0.11505126953125	0.00105926513671875	2513.22581065471
0.119476318359375	0.00107574462890625	2514.11082065248
0.1239013671875	0.00109375	2514.99583065025
0.128326416015625	0.00111053466796875	2515.88084064801
0.13275146484375	0.001126708984375	2516.76585064578
0.137176513671875	0.00114288330078125	2517.65086064354
0.1416015625	0.00115814208984375	2518.53587064131
0.146026611328125	0.0011724853515625	2519.42088063907
0.15045166015625	0.0011859130859375	2520.30589063684
0.154876708984375	0.001199951171875	2521.1909006346
0.1593017578125	0.001212158203125	2522.07591063237
0.163726806640625	0.0012255859375	2522.96092063014
0.16815185546875	0.00123809814453125	2523.8459306279
0.172576904296875	0.0012506103515625	2524.73094062567
0.177001953125	0.00126251220703125	2525.61595062343
0.181427001953125	0.00127471923828125	2526.5009606212
0.18585205078125	0.00128662109375	2527.38597061896
0.190277099609375	0.0012982177734375	2528.27098061673
0.1947021484375	0.00131011962890625	2529.15599061449
0.199127197265625	0.0013214111328125	2530.04100061226
0.20355224609375	0.00133270263671875	2530.92601061003
0.207977294921875	0.001343994140625	2531.81102060779
0.21240234375	0.0013555908203125	2532.69603060556
0.216827392578125	0.0013671875	2533.58104060332
0.22125244140625	0.001378173828125	2534.46605060109
0.225677490234375	0.00138946533203125	2535.35106059885
0.2301025390625	0.0014007568359375	2536.23607059662
0.234527587890625	0.00141082763671875	2537.12108059439
0.23895263671875	0.00142242431640625	2538.00609059215
0.243377685546875	0.001434326171875	2538.89110058992
0.247802734375	0.0014453125	2539.77611058768
0.252227783203125	0.00145721435546875	2540.66112058545
0.25665283203125	0.00146881103515625	2541.54613058321
0.261077880859375	0.00148040771484375	2542.43114058098
0.2655029296875	0.00149200439453125	2543.31615057874
0.269927978515625	0.00150390625	2544.20116057651
0.27435302734375	0.00151519775390625	2545.08617057428
0.278778076171875	0.001527099609375	2545.97118057204
0.283203125	0.00153839111328125	2546.85619056981
0.287628173828125	0.00155120849609375	2547.74120056757
0.29205322265625	0.0015631103515625	2548.62621056534
0.296478271484375	0.00157562255859375	2549.5112205631
0.3009033203125	0.00158782958984375	2550.39623056087
0.305328369140625	0.0015997314453125	2551.28124055863
0.30975341796875	0.00161285400390625	2552.1662505564
0.314178466796875	0.00162811279296875	2553.05126055417
0.318603515625	0.00163970947265625	2553.93627055193
0.323028564453125	0.00165191650390625	2554.8212805497
0.32745361328125	0.0016650390625	2555.70629054746
0.331878662109375	0.0016778564453125	2556.59130054523
0.3363037109375	0.001690673828125	2557.47631054299
0.340728759765625	0.00170379638671875	2558.36132054076
0.34515380859375	0.0017156982421875	2559.24633053852
0.349578857421875	0.001728515625	2560.13134053629
0.35400390625	0.0017388916015625	2561.01635053406
0.358428955078125	0.00175201416015625	2561.90136053182
0.36285400390625	0.00176422119140625	2562.78637052959
0.367279052734375	0.001776123046875	2563.67138052735
0.3717041015625	0.0017877197265625	2564.55639052512
0.376129150390625	0.0017987060546875	2565.44140052288
0.38055419921875	0.0018084716796875	2566.32641052065
0.384979248046875	0.00181854248046875	2567.21142051841
0.389404296875	0.0018280029296875	2568.09643051618
0.393829345703125	0.00183563232421875	2568.98144051395
0.39825439453125	0.001844482421875	2569.86645051171
0.402679443359375	0.001851806640625	2570.75146050948
0.4071044921875	0.001859130859375	2571.63647050724
0.411529541015625	0.0018658447265625	2572.52148050501
0.41595458984375	0.001871337890625	2573.40649050277
0.420379638671875	0.00187774658203125	2574.29150050054
0.4248046875	0.0018829345703125	2575.1765104983
0.429229736328125	0.0018878173828125	2576.06152049607
0.43365478515625	0.00189239501953125	2576.94653049384
0.438079833984375	0.00189788818359375	2577.8315404916
0.4425048828125	0.00190155029296875	2578.71655048937
0.446929931640625	0.00190643310546875	2579.60156048713
0.45135498046875	0.0019097900390625	2580.4865704849
0.455780029296875	0.0019134521484375	2581.37158048266
0.460205078125	0.00191619873046875	2582.25659048043
0.464630126953125	0.0019195556640625	2583.14160047819
0.46905517578125	0.00192108154296875	2584.02661047596
0.473480224609375	0.0019244384765625	2584.91162047373
0.4779052734375	0.00192657470703125	2585.79663047149
0.482330322265625	0.00192962646484375	2586.68164046926
0.48675537109375	0.00193084716796875	2587.56665046702
0.491180419921875	0.00193267822265625	2588.45166046479
0.49560546875	0.00193450927734375	2589.33667046255
0.500030517578125	0.00193603515625	2590.22168046032
0.50445556640625	0.00193756103515625	2591.10669045808
0.508880615234375	0.00193878173828125	2591.99170045585
0.5133056640625	0.00194000244140625	2592.87671045362
0.517730712890625	0.00194091796875	2593.76172045138
0.52215576171875	0.00194183349609375	2594.64673044915
0.526580810546875	0.00194305419921875	2595.53174044691
0.531005859375	0.0019439697265625	2596.41675044468
0.535430908203125	0.00194427490234375	2597.30176044244
0.53985595703125	0.00194549560546875	2598.18677044021
0.544281005859375	0.00194580078125	2599.07178043797
0.5487060546875	0.0019451904296875	2599.95679043574
0.553131103515625	0.00194549560546875	2600.84180043351
0.55755615234375	0.00194488525390625	2601.72681043127
0.561981201171875	0.001944580078125	2602.61182042904
0.56640625	0.001943359375	2603.4968304268
0.570831298828125	0.00194244384765625	2604.38184042457
0.57525634765625	0.00194122314453125	2605.26685042233
0.579681396484375	0.00194091796875	2606.1518604201
0.5841064453125	0.00193939208984375	2607.03687041786
0.588531494140625	0.00193695068359375	2607.92188041563
0.59295654296875	0.00193634033203125	2608.8068904134
0.597381591796875	0.001934814453125	2609.69190041116
0.601806640625	0.00193511962890625	2610.57691040893
0.606231689453125	0.0019342041015625	2611.46192040669
0.61065673828125	0.00193359375	2612.34693040446
0.615081787109375	0.00193389892578125	2613.23194040222
0.6195068359375	0.00193389892578125	2614.11695039999
0.623931884765625	0.00193359375	2615.00196039775
0.62835693359375	0.001937255859375	2615.88697039552
0.632781982421875	0.00193572998046875	2616.77198039329
0.63720703125	0.00193603515625	2617.65699039105
0.641632080078125	0.00193634033203125	2618.54200038882
0.64605712890625	0.0019366455078125	2619.42701038658
0.650482177734375	0.001937255859375	2620.31202038435
0.6549072265625	0.0019378662109375	2621.19703038211
0.659332275390625	0.00193939208984375	2622.08204037988
0.66375732421875	0.00194091796875	2622.96705037764
0.668182373046875	0.00194305419921875	2623.85206037541
0.672607421875	0.00194488525390625	2624.73707037318
0.677032470703125	0.00194732666015625	2625.62208037094
0.68145751953125	0.0019500732421875	2626.50709036871
0.685882568359375	0.00195281982421875	2627.39210036647
0.6903076171875	0.00195648193359375	2628.27711036424
0.694732666015625	0.00196014404296875	2629.162120362
0.69915771484375	0.00196441650390625	2630.04713035977
0.703582763671875	0.0019677734375	2630.93214035753
0.7080078125	0.00197296142578125	2631.8171503553
0.712432861328125	0.00197845458984375	2632.70216035307
0.71685791015625	0.0019842529296875	2633.58717035083
0.721282958984375	0.001990966796875	2634.4721803486
0.7257080078125	0.00199798583984375	2635.35719034636
0.730133056640625	0.0020062255859375	2636.24220034413
0.73455810546875	0.0020147705078125	2637.12721034189
0.738983154296875	0.00202392578125	2638.01222033966
0.743408203125	0.002032470703125	2638.89723033742
0.747833251953125	0.00204376220703125	2639.78224033519
0.75225830078125	0.00205596923828125	2640.66725033296
0.756683349609375	0.00206878662109375	2641.55226033072
0.7611083984375	0.0020831298828125	2642.43727032849
0.765533447265625	0.00209869384765625	2643.32228032625
0.76995849609375	0.00211517333984375	2644.20729032402
0.774383544921875	0.0021331787109375	2645.09230032178
0.77880859375	0.002152099609375	2645.97731031955
0.783233642578125	0.0021728515625	2646.86232031732
0.78765869140625	0.0021954345703125	2647.74733031508
0.792083740234375	0.00221923828125	2648.63234031285
0.7965087890625	0.00224609375	2649.51735031061
0.800933837890625	0.00227386474609375	2650.40236030838
0.80535888671875	0.00230377197265625	2651.28737030614
0.809783935546875	0.00233612060546875	2652.17238030391
0.814208984375	0.002369384765625	2653.05739030167
0.818634033203125	0.002406005859375	2653.94240029944
0.82305908203125	0.00244415283203125	2654.82741029721
0.827484130859375	0.00248565673828125	2655.71242029497
0.8319091796875	0.002528076171875	2656.59743029274
0.836334228515625	0.002574462890625	2657.4824402905
0.84075927734375	0.0026226806640625	2658.36745028827
0.845184326171875	0.00267364501953125	2659.25246028603
0.849609375	0.0027276611328125	2660.1374702838
0.854034423828125	0.00278472900390625	2661.02248028156
0.85845947265625	0.00284454345703125	2661.90749027933
0.862884521484375	0.00290557861328125	2662.7925002771
0.8673095703125	0.0029705810546875	2663.67751027486
0.871734619140625	0.00303955078125	2664.56252027263
0.87615966796875	0.0031109619140625	2665.44753027039
0.880584716796875	0.00318389892578125	2666.33254026816
0.885009765625	0.0032611083984375	2667.21755026592
0.889434814453125	0.00334136962890625	2668.10256026369
0.89385986328125	0.0034228515625	2668.98757026145
0.898284912109375	0.00350830078125	2669.87258025922
0.9027099609375	0.00359466552734375	2670.75759025699
0.907135009765625	0.003685302734375	2671.64260025475
0.91156005859375	0.00377777099609375	2672.52761025252
0.915985107421875	0.00387237548828125	2673.41262025028
0.92041015625	0.0039697265625	2674.29763024805
0.924835205078125	0.00406890869140625	2675.18264024581
0.92926025390625	0.0041705322265625	2676.06765024358
0.933685302734375	0.004273681640625	2676.95266024134
0.9381103515625	0.004381103515625	2677.83767023911
0.942535400390625	0.0044879150390625	2678.72268023688
0.94696044921875	0.004595947265625	2679.60769023464
0.951385498046875	0.0047052001953125	2680.49270023241
0.955810546875	0.0048175048828125	2681.37771023017
0.960235595703125	0.00492950439453125	2682.26272022794
0.96466064453125	0.00504302978515625	2683.1477302257
0.969085693359375	0.00515777587890625	2684.03274022347
0.9735107421875	0.00527252197265625	2684.91775022123
0.977935791015625	0.00538543701171875	2685.802760219
0.98236083984375	0.005501708984375	2686.68777021677
0.986785888671875	0.00561798095703125	2687.57278021453
0.9912109375	0.005733642578125	2688.4577902123
0.995635986328125	0.00584991455078125	2689.34280021006
1.00006103515625	0.00596343994140625	2690.22781020783
0.995635986328125	0.0052215576171875	2691.11282020559
0.9912109375	0.004591064453125	2691.99783020336
0.986785888671875	0.00403656005859375	2692.88284020112
0.98236083984375	0.00354156494140625	2693.76785019889
0.977935791015625	0.00309326171875	2694.65286019666
0.9735107421875	0.00268585205078125	2695.53787019442
0.969085693359375	0.00231109619140625	2696.42288019219
0.96466064453125	0.00196533203125	2697.30789018995
0.960235595703125	0.0016461181640625	2698.19290018772
0.955810546875	0.0013507080078125	2699.07791018548
0.951385498046875	0.00107635498046875	2699.96292018325
0.94696044921875	0.00082122802734375	2700.84793018101
0.942535400390625	0.00058441162109375	2701.73294017878
0.9381103515625	0.000363372802734375	2702.61795017655
0.933685302734375	0.00015472412109375	2703.50296017431
0.92926025390625	-3.62884521484375E-05	2704.38797017208
0.924835205078125	-0.0002142333984375	2705.27298016984
0.92041015625	-0.000380126953125	2706.15799016761
0.915985107421875	-0.00053436279296875	2707.04300016537
0.91156005859375	-0.00067816162109375	2707.92801016314
0.907135009765625	-0.00081207275390625	2708.8130201609
0.9027099609375	-0.00093597412109375	2709.69803015867
0.898284912109375	-0.001051025390625	2710.58304015644
0.89385986328125	-0.001158447265625	2711.4680501542
0.889434814453125	-0.0012567138671875	2712.35306015197
0.885009765625	-0.00134796142578125	2713.23807014973
0.880584716796875	-0.001431884765625	2714.1230801475
0.87615966796875	-0.0015093994140625	2715.00809014526
0.871734619140625	-0.0015802001953125	2715.89310014303
0.8673095703125	-0.001644287109375	2716.77811014079
0.862884521484375	-0.0017041015625	2717.66312013856
0.85845947265625	-0.001756591796875	2718.54813013633
0.854034423828125	-0.00180450439453125	2719.43314013409
0.849609375	-0.00184844970703125	2720.31815013186
0.845184326171875	-0.00188690185546875	2721.20316012962
0.84075927734375	-0.00192138671875	2722.08817012739
0.836334228515625	-0.00195159912109375	2722.97318012515
0.8319091796875	-0.00197784423828125	2723.85819012292
0.827484130859375	-0.00200103759765625	2724.74320012068
0.82305908203125	-0.0020208740234375	2725.62821011845
0.818634033203125	-0.0020361328125	2726.51322011622
0.814208984375	-0.00204864501953125	2727.39823011398
0.809783935546875	-0.0020587158203125	2728.28324011175
0.80535888671875	-0.0020654296875	2729.16825010951
0.800933837890625	-0.0020703125	2730.05326010728
0.7965087890625	-0.00207366943359375	2730.93827010504
0.792083740234375	-0.0020745849609375	2731.82328010281
0.78765869140625	-0.002073974609375	2732.70829010057
0.783233642578125	-0.00207183837890625	2733.59330009834
0.77880859375	-0.00206817626953125	2734.47831009611
0.774383544921875	-0.00206390380859375	2735.36332009387
0.76995849609375	-0.00205780029296875	2736.24833009164
0.765533447265625	-0.0020513916015625	2737.1333400894
0.7611083984375	-0.0020440673828125	2738.01835008717
0.756683349609375	-0.0020361328125	2738.90336008493
0.75225830078125	-0.0020281982421875	2739.7883700827
0.747833251953125	-0.00201904296875	2740.67338008046
0.743408203125	-0.0020098876953125	2741.55839007823
0.738983154296875	-0.00199859619140625	2742.443400076
0.73455810546875	-0.0019891357421875	2743.32841007376
0.730133056640625	-0.00197967529296875	2744.21342007153
0.7257080078125	-0.00197052001953125	2745.09843006929
0.721282958984375	-0.00196044921875	2745.98344006706
0.71685791015625	-0.00195098876953125	2746.86845006482
0.712432861328125	-0.00194091796875	2747.75346006259
0.7080078125	-0.0019305419921875	2748.63847006035
0.703582763671875	-0.00192108154296875	2749.52348005812
0.69915771484375	-0.0019110107421875	2750.40849005589
0.694732666015625	-0.00190155029296875	2751.29350005365
0.6903076171875	-0.00189300537109375	2752.17851005142
0.685882568359375	-0.00188385009765625	2753.06352004918
0.68145751953125	-0.0018756103515625	2753.94853004695
0.677032470703125	-0.00186737060546875	2754.83354004471
0.672607421875	-0.001859130859375	2755.71855004248
0.668182373046875	-0.001851806640625	2756.60356004025
0.66375732421875	-0.00184417724609375	2757.48857003801
0.659332275390625	-0.0018377685546875	2758.37358003578
0.6549072265625	-0.00183135986328125	2759.25859003354
0.650482177734375	-0.0018255615234375	2760.14360003131
0.64605712890625	-0.00182037353515625	2761.02861002907
0.641632080078125	-0.00181488037109375	2761.91362002684
0.63720703125	-0.0018109130859375	2762.7986300246
0.632781982421875	-0.00180633544921875	2763.68364002237
0.62835693359375	-0.00180328369140625	2764.56865002014
0.623931884765625	-0.001802978515625	2765.4536600179
0.6195068359375	-0.00179931640625	2766.33867001567
0.615081787109375	-0.001796875	2767.22368001343
0.61065673828125	-0.00179443359375	2768.1086900112
0.606231689453125	-0.00179290771484375	2768.99370000896
0.601806640625	-0.00179168701171875	2769.87871000673
0.597381591796875	-0.00179107666015625	2770.76372000449
0.59295654296875	-0.0017901611328125	2771.64873000226
0.588531494140625	-0.001790771484375	2772.53374000003
0.5841064453125	-0.00178955078125	2773.41874999779
0.579681396484375	-0.00179107666015625	2774.30375999556
0.57525634765625	-0.00179290771484375	2775.18876999332
0.570831298828125	-0.00179443359375	2776.07377999109
0.56640625	-0.001796875	2776.95878998885
0.561981201171875	-0.0017987060546875	2777.84379998662
0.55755615234375	-0.0018017578125	2778.72880998438
0.553131103515625	-0.0018048095703125	2779.61381998215
0.5487060546875	-0.00180755615234375	2780.49882997992
0.544281005859375	-0.001810302734375	2781.38383997768
0.53985595703125	-0.0018145751953125	2782.26884997545
0.535430908203125	-0.00181854248046875	2783.15385997321
0.531005859375	-0.001822509765625	2784.03886997098
0.526580810546875	-0.00182647705078125	2784.92387996874
0.52215576171875	-0.00183135986328125	2785.80888996651
0.517730712890625	-0.00183624267578125	2786.69389996427
0.5133056640625	-0.0018402099609375	2787.57890996204
0.508880615234375	-0.0018450927734375	2788.46391995981
0.50445556640625	-0.0018487548828125	2789.34892995757
0.500030517578125	-0.00185333251953125	2790.23393995534
0.49560546875	-0.00185821533203125	2791.1189499531
0.491180419921875	-0.00186279296875	2792.00395995087
0.48675537109375	-0.0018670654296875	2792.88896994863
0.482330322265625	-0.00187103271484375	2793.7739799464
0.4779052734375	-0.0018756103515625	2794.65898994416
0.473480224609375	-0.00187957763671875	2795.54399994193
0.46905517578125	-0.00188385009765625	2796.4290099397
0.464630126953125	-0.0018865966796875	2797.31401993746
0.460205078125	-0.001890869140625	2798.19902993523
0.455780029296875	-0.00189422607421875	2799.08403993299
0.45135498046875	-0.00189727783203125	2799.96904993076
0.446929931640625	-0.00190032958984375	2800.85405992852
0.4425048828125	-0.00190338134765625	2801.73906992629
0.438079833984375	-0.0019061279296875	2802.62407992405
0.43365478515625	-0.0019085693359375	2803.50908992182
0.429229736328125	-0.0019097900390625	2804.39409991959
0.4248046875	-0.00191192626953125	2805.27910991735
0.420379638671875	-0.001912841796875	2806.16411991512
0.41595458984375	-0.0019146728515625	2807.04912991288
0.411529541015625	-0.0019158935546875	2807.93413991065
0.4071044921875	-0.00191650390625	2808.81914990841
0.402679443359375	-0.0019183349609375	2809.70415990618
0.39825439453125	-0.00191864013671875	2810.58916990394
0.393829345703125	-0.00191925048828125	2811.47417990171
0.389404296875	-0.00191925048828125	2812.35918989948
0.384979248046875	-0.00191925048828125	2813.24419989724
0.38055419921875	-0.001920166015625	2814.12920989501
0.376129150390625	-0.001920166015625	2815.01421989277
0.3717041015625	-0.00192047119140625	2815.89922989054
0.367279052734375	-0.00192138671875	2816.7842398883
0.36285400390625	-0.00192169189453125	2817.66924988607
0.358428955078125	-0.00192138671875	2818.55425988383
0.35400390625	-0.0019219970703125	2819.4392698816
0.349578857421875	-0.00192108154296875	2820.32427987937
0.34515380859375	-0.0019219970703125	2821.20928987713
0.340728759765625	-0.001922607421875	2822.0942998749
0.3363037109375	-0.00192352294921875	2822.97930987266
0.331878662109375	-0.001923828125	2823.86431987043
0.32745361328125	-0.001925048828125	2824.74932986819
0.323028564453125	-0.001925048828125	2825.63433986596
0.318603515625	-0.00192596435546875	2826.51934986372
0.314178466796875	-0.00192657470703125	2827.40435986149
0.30975341796875	-0.00193023681640625	2828.28936985926
0.305328369140625	-0.001929931640625	2829.17437985702
0.3009033203125	-0.00193023681640625	2830.05938985479
0.296478271484375	-0.00193084716796875	2830.94439985255
0.29205322265625	-0.00193145751953125	2831.82940985032
0.287628173828125	-0.00193206787109375	2832.71441984808
0.283203125	-0.00193328857421875	2833.59942984585
0.278778076171875	-0.00193328857421875	2834.48443984361
0.27435302734375	-0.00193450927734375	2835.36944984138
0.269927978515625	-0.00193511962890625	2836.25445983915
0.2655029296875	-0.00193603515625	2837.13946983691
0.261077880859375	-0.00193695068359375	2838.02447983468
0.25665283203125	-0.00193817138671875	2838.90948983244
0.252227783203125	-0.00193878173828125	2839.79449983021
0.247802734375	-0.00194000244140625	2840.67950982797
0.243377685546875	-0.00194091796875	2841.56451982574
0.23895263671875	-0.0019415283203125	2842.4495298235
0.234527587890625	-0.00194244384765625	2843.33453982127
0.2301025390625	-0.00194183349609375	2844.21954981904
0.225677490234375	-0.0019427490234375	2845.1045598168
0.22125244140625	-0.00194366455078125	2845.98956981457
0.216827392578125	-0.00194427490234375	2846.87457981233
0.21240234375	-0.0019451904296875	2847.7595898101
0.207977294921875	-0.00194580078125	2848.64459980786
0.20355224609375	-0.0019464111328125	2849.52960980563
0.199127197265625	-0.00194732666015625	2850.41461980339
0.1947021484375	-0.0019482421875	2851.29962980116
0.190277099609375	-0.001949462890625	2852.18463979893
0.18585205078125	-0.0019500732421875	2853.06964979669
0.181427001953125	-0.00195159912109375	2853.95465979446
0.177001953125	-0.00195281982421875	2854.83966979222
0.172576904296875	-0.001954345703125	2855.72467978999
0.16815185546875	-0.00195556640625	2856.60968978775
0.163726806640625	-0.0019580078125	2857.49469978552
0.1593017578125	-0.00196044921875	2858.37970978328
0.154876708984375	-0.0019622802734375	2859.26471978105
0.15045166015625	-0.00196533203125	2860.14972977882
0.146026611328125	-0.0019677734375	2861.03473977658
0.1416015625	-0.00197174072265625	2861.91974977435
0.137176513671875	-0.00197509765625	2862.80475977211
0.13275146484375	-0.00197845458984375	2863.68976976988
0.128326416015625	-0.001982421875	2864.57477976764
0.1239013671875	-0.001986083984375	2865.45978976541
0.119476318359375	-0.00199066162109375	2866.34479976318
0.11505126953125	-0.001993408203125	2867.22980976094
0.110626220703125	-0.001998291015625	2868.11481975871
0.106201171875	-0.002003173828125	2868.99982975647
0.101776123046875	-0.002008056640625	2869.88483975424
0.09735107421875	-0.00201324462890625	2870.769849752
0.092926025390625	-0.00201751708984375	2871.65485974977
0.0885009765625	-0.00202178955078125	2872.53986974753
0.084075927734375	-0.00202728271484375	2873.4248797453
0.07965087890625	-0.00203155517578125	2874.30988974307
0.075225830078125	-0.002034912109375	2875.19489974083
0.07080078125	-0.0020404052734375	2876.0799097386
0.066375732421875	-0.00204559326171875	2876.96491973636
0.06195068359375	-0.00205078125	2877.84992973413
0.057525634765625	-0.0020562744140625	2878.73493973189
0.0531005859375	-0.002061767578125	2879.61994972966
0.048675537109375	-0.00206756591796875	2880.50495972742
0.04425048828125	-0.00207366943359375	2881.38996972519
0.039825439453125	-0.002080078125	2882.27497972296
0.035400390625	-0.0020867919921875	2883.15998972072
0.030975341796875	-0.0020941162109375	2884.04499971849
0.02655029296875	-0.0021014404296875	2884.93000971625
0.022125244140625	-0.002110595703125	2885.81501971402
0.0177001953125	-0.00211883544921875	2886.70002971178
0.013275146484375	-0.0021282958984375	2887.58503970955
0.00885009765625	-0.002138671875	2888.47004970731
0.004425048828125	-0.0021490478515625	2889.35505970508
0	-0.0021612548828125	2890.24006970285
0.004425048828125	-0.0014910888671875	2891.12507970061
0.00885009765625	-0.0010101318359375	2892.01008969838
0.013275146484375	-0.0006488037109375	2892.89509969614
0.0177001953125	-0.00036834716796875	2893.78010969391
0.022125244140625	-0.000145416259765625	2894.66511969167
0.02655029296875	3.51287841796875E-05	2895.55012968944
0.030975341796875	0.00018414306640625	2896.4351396872
0.035400390625	0.0003087158203125	2897.32014968497
0.039825439453125	0.00041375732421875	2898.20515968274
0.04425048828125	0.000503204345703125	2899.0901696805
0.048675537109375	0.000579986572265625	2899.97517967827
0.0531005859375	0.00064678955078125	2900.86018967603
0.057525634765625	0.0007049560546875	2901.7451996738
0.06195068359375	0.0007568359375	2902.63020967156
0.066375732421875	0.00080322265625	2903.51521966933
0.07080078125	0.0008441162109375	2904.40022966709
0.075225830078125	0.00088104248046875	2905.28523966486
0.07965087890625	0.0009136962890625	2906.17024966263
0.084075927734375	0.00094390869140625	2907.05525966039
0.0885009765625	0.0009716796875	2907.94026965816
0.092926025390625	0.00099761962890625	2908.82527965592
0.09735107421875	0.0010211181640625	2909.71028965369
0.101776123046875	0.0010430908203125	2910.59529965145
0.106201171875	0.001063232421875	2911.48030964922
0.110626220703125	0.00108245849609375	2912.36531964698
0.11505126953125	0.00110015869140625	2913.25032964475
0.119476318359375	0.00111541748046875	2914.13533964252
0.1239013671875	0.001131591796875	2915.02034964028
0.128326416015625	0.0011468505859375	2915.90535963805
0.13275146484375	0.0011614990234375	2916.79036963581
0.137176513671875	0.001175537109375	2917.67537963358
0.1416015625	0.0011883544921875	2918.56038963134
0.146026611328125	0.00120147705078125	2919.44539962911
0.15045166015625	0.0012139892578125	2920.33040962687
0.154876708984375	0.00122650146484375	2921.21541962464
0.1593017578125	0.0012371826171875	2922.10042962241
0.163726806640625	0.0012493896484375	2922.98543962017
0.16815185546875	0.0012603759765625	2923.87044961794
0.172576904296875	0.00127197265625	2924.7554596157
0.177001953125	0.0012823486328125	2925.64046961347
0.181427001953125	0.0012933349609375	2926.52547961123
0.18585205078125	0.0013037109375	2927.410489609
0.190277099609375	0.001314697265625	2928.29549960676
0.1947021484375	0.00132537841796875	2929.18050960453
0.199127197265625	0.00133575439453125	2930.0655196023
0.20355224609375	0.0013458251953125	2930.95052960006
0.207977294921875	0.001356201171875	2931.83553959783
0.21240234375	0.00136688232421875	2932.72054959559
0.216827392578125	0.0013775634765625	2933.60555959336
0.22125244140625	0.0013885498046875	2934.49056959112
0.225677490234375	0.0013983154296875	2935.37557958889
0.2301025390625	0.00140869140625	2936.26058958665
0.234527587890625	0.00141815185546875	2937.14559958442
0.23895263671875	0.001429443359375	2938.03060958219
0.243377685546875	0.00144012451171875	2938.91561957995
0.247802734375	0.00145050048828125	2939.80062957772
0.252227783203125	0.00146209716796875	2940.68563957548
0.25665283203125	0.00147247314453125	2941.57064957325
0.261077880859375	0.00148284912109375	2942.45565957101
0.2655029296875	0.001494140625	2943.34066956878
0.269927978515625	0.0015045166015625	2944.22567956654
0.27435302734375	0.0015155029296875	2945.11068956431
0.278778076171875	0.00152679443359375	2945.99569956208
0.283203125	0.00153778076171875	2946.88070955984
0.287628173828125	0.00154937744140625	2947.76571955761
0.29205322265625	0.00156097412109375	2948.65072955537
0.296478271484375	0.00157257080078125	2949.53573955314
0.3009033203125	0.00158447265625	2950.4207495509
0.305328369140625	0.00159576416015625	2951.30575954867
0.30975341796875	0.00160797119140625	2952.19076954643
0.314178466796875	0.00162200927734375	2953.0757795442
0.318603515625	0.0016339111328125	2953.96078954197
0.323028564453125	0.0016455078125	2954.84579953973
0.32745361328125	0.00165771484375	2955.7308095375
0.331878662109375	0.00166961669921875	2956.61581953526
0.3363037109375	0.0016815185546875	2957.50082953303
0.340728759765625	0.00169403076171875	2958.38583953079
0.34515380859375	0.001705322265625	2959.27084952856
0.349578857421875	0.00171722412109375	2960.15585952633
0.35400390625	0.00172698974609375	2961.04086952409
0.358428955078125	0.00173919677734375	2961.92587952186
0.36285400390625	0.0017510986328125	2962.81088951962
0.367279052734375	0.00176300048828125	2963.69589951739
0.3717041015625	0.0017742919921875	2964.58090951515
0.376129150390625	0.0017852783203125	2965.46591951292
0.38055419921875	0.00179595947265625	2966.35092951068
0.384979248046875	0.00180572509765625	2967.23593950845
0.389404296875	0.001815185546875	2968.12094950621
0.393829345703125	0.00182403564453125	2969.00595950398
0.39825439453125	0.00183258056640625	2969.89096950175
0.402679443359375	0.0018414306640625	2970.77597949951
0.4071044921875	0.001849365234375	2971.66098949728
0.411529541015625	0.00185699462890625	2972.54599949504
0.41595458984375	0.00186431884765625	2973.43100949281
0.420379638671875	0.0018707275390625	2974.31601949057
0.4248046875	0.00187774658203125	2975.20102948834
0.429229736328125	0.00188385009765625	2976.08603948611
0.43365478515625	0.00188995361328125	2976.97104948387
0.438079833984375	0.00189605712890625	2977.85605948164
0.4425048828125	0.0019012451171875	2978.7410694794
0.446929931640625	0.0019073486328125	2979.62607947717
0.45135498046875	0.00191192626953125	2980.51108947493
0.455780029296875	0.00191741943359375	2981.3960994727
0.460205078125	0.0019219970703125	2982.28110947046
0.464630126953125	0.00192657470703125	2983.16611946823
0.46905517578125	0.00193023681640625	2984.051129466
0.473480224609375	0.001934814453125	2984.93613946376
0.4779052734375	0.00193878173828125	2985.82114946153
0.482330322265625	0.00194091796875	2986.70615945929
0.48675537109375	0.00194427490234375	2987.59116945706
0.491180419921875	0.00194732666015625	2988.47617945482
0.49560546875	0.00194976806640625	2989.36118945259
0.500030517578125	0.00195281982421875	2990.24619945035
0.50445556640625	0.00195526123046875	2991.13120944812
0.508880615234375	0.0019573974609375	2992.01621944589
0.5133056640625	0.0019598388671875	2992.90122944365
0.517730712890625	0.001961669921875	2993.78623944142
0.52215576171875	0.0019635009765625	2994.67124943918
0.526580810546875	0.00196533203125	2995.55625943695
0.531005859375	0.00196685791015625	2996.44126943471
0.535430908203125	0.00196868896484375	2997.32627943248
0.53985595703125	0.00197021484375	2998.21128943024
0.544281005859375	0.0019708251953125	2999.09629942801
0.5487060546875	0.001971435546875	2999.98130942578
0.553131103515625	0.00197265625	3000.86631942354
0.55755615234375	0.00197296142578125	3001.75132942131
0.561981201171875	0.00197540283203125	3002.63633941907
0.56640625	0.00197601318359375	3003.52134941684
0.570831298828125	0.00197662353515625	3004.4063594146
0.57525634765625	0.00197784423828125	3005.29136941237
0.579681396484375	0.00197784423828125	3006.17637941013
0.5841064453125	0.0019793701171875	3007.0613894079
0.588531494140625	0.00197845458984375	3007.94639940567
0.59295654296875	0.00197998046875	3008.83140940343
0.597381591796875	0.00198089599609375	3009.7164194012
0.601806640625	0.00198211669921875	3010.60142939896
0.606231689453125	0.001982421875	3011.48643939673
0.61065673828125	0.00198394775390625	3012.37144939449
0.615081787109375	0.00198455810546875	3013.25645939226
0.6195068359375	0.00198516845703125	3014.14146939002
0.623931884765625	0.0019866943359375	3015.02647938779
0.62835693359375	0.0019915771484375	3015.91148938556
0.632781982421875	0.001990966796875	3016.79649938332
0.63720703125	0.001990966796875	3017.68150938109
0.641632080078125	0.00199188232421875	3018.56651937885
0.64605712890625	0.0019927978515625	3019.45152937662
0.650482177734375	0.00199432373046875	3020.33653937438
0.6549072265625	0.00199554443359375	3021.22154937215
0.659332275390625	0.00199676513671875	3022.10655936991
0.66375732421875	0.00199798583984375	3022.99156936768
0.668182373046875	0.0020001220703125	3023.87657936545
0.672607421875	0.0020013427734375	3024.76158936321
0.677032470703125	0.002003173828125	3025.64659936098
0.68145751953125	0.002005615234375	3026.53160935874
0.685882568359375	0.002008056640625	3027.41661935651
0.6903076171875	0.00201019287109375	3028.30162935427
0.694732666015625	0.002012939453125	3029.18663935204
0.69915771484375	0.0020159912109375	3030.0716493498
0.703582763671875	0.00201812744140625	3030.95665934757
0.7080078125	0.0020220947265625	3031.84166934534
0.712432861328125	0.00202606201171875	3032.7266793431
0.71685791015625	0.00202972412109375	3033.61168934087
0.721282958984375	0.00203460693359375	3034.49669933863
0.7257080078125	0.00203948974609375	3035.3817093364
0.730133056640625	0.00204498291015625	3036.26671933416
0.73455810546875	0.0020513916015625	3037.15172933193
0.738983154296875	0.00205780029296875	3038.03673932969
0.743408203125	0.0020635986328125	3038.92174932746
0.747833251953125	0.0020721435546875	3039.80675932523
0.75225830078125	0.0020806884765625	3040.69176932299
0.756683349609375	0.00209075927734375	3041.57677932076
0.7611083984375	0.0021014404296875	3042.46178931852
0.765533447265625	0.00211273193359375	3043.34679931629
0.76995849609375	0.002125244140625	3044.23180931405
0.774383544921875	0.002138671875	3045.11681931182
0.77880859375	0.0021527099609375	3046.00182930958
0.783233642578125	0.00216888427734375	3046.88683930735
0.78765869140625	0.00218597412109375	3047.77184930512
0.792083740234375	0.00220367431640625	3048.65685930288
0.7965087890625	0.00222412109375	3049.54186930065
0.800933837890625	0.00224578857421875	3050.42687929841
0.80535888671875	0.0022686767578125	3051.31188929618
0.809783935546875	0.002294921875	3052.19689929394
0.814208984375	0.00232177734375	3053.08190929171
0.818634033203125	0.0023492431640625	3053.96691928947
0.82305908203125	0.00238006591796875	3054.85192928724
0.827484130859375	0.00241180419921875	3055.73693928501
0.8319091796875	0.0024456787109375	3056.62194928277
0.836334228515625	0.002481689453125	3057.50695928054
0.84075927734375	0.0025201416015625	3058.3919692783
0.845184326171875	0.002559814453125	3059.27697927607
0.849609375	0.00260162353515625	3060.16198927383
0.854034423828125	0.00264678955078125	3061.0469992716
0.85845947265625	0.00269317626953125	3061.93200926936
0.862884521484375	0.002740478515625	3062.81701926713
0.8673095703125	0.00279205322265625	3063.7020292649
0.871734619140625	0.00284576416015625	3064.58703926266
0.87615966796875	0.002901611328125	3065.47204926043
0.880584716796875	0.00295928955078125	3066.35705925819
0.885009765625	0.00302001953125	3067.24206925596
0.889434814453125	0.00308258056640625	3068.12707925372
0.89385986328125	0.00314727783203125	3069.01208925149
0.898284912109375	0.00321441650390625	3069.89709924926
0.9027099609375	0.0032830810546875	3070.78210924702
0.907135009765625	0.00335479736328125	3071.66711924479
0.91156005859375	0.003428955078125	3072.55212924255
0.915985107421875	0.00350433349609375	3073.43713924032
0.92041015625	0.00358245849609375	3074.32214923808
0.924835205078125	0.003662109375	3075.20715923585
0.92926025390625	0.00374420166015625	3076.09216923361
0.933685302734375	0.0038287353515625	3076.97717923138
0.9381103515625	0.00391693115234375	3077.86218922914
0.942535400390625	0.00400360107421875	3078.74719922691
0.94696044921875	0.004093017578125	3079.63220922468
0.951385498046875	0.0041839599609375	3080.51721922244
0.955810546875	0.0042755126953125	3081.40222922021
0.960235595703125	0.004368896484375	3082.28723921797
0.96466064453125	0.004464111328125	3083.17224921574
0.969085693359375	0.0045599365234375	3084.0572592135
0.9735107421875	0.00465667724609375	3084.94226921127
0.977935791015625	0.004752197265625	3085.82727920904
0.98236083984375	0.0048504638671875	3086.7122892068
0.986785888671875	0.0049481201171875	3087.59729920457
0.9912109375	0.005045166015625	3088.48230920233
0.995635986328125	0.00514312744140625	3089.3673192001
1.00006103515625	0.00523895263671875	3090.25232919786
0.995635986328125	0.00449920654296875	3091.13733919563
0.9912109375	0.00387939453125	3092.02234919339
0.986785888671875	0.0033441162109375	3092.90735919116
0.98236083984375	0.00287109375	3093.79236918893
0.977935791015625	0.00245025634765625	3094.67737918669
0.9735107421875	0.00207275390625	3095.56238918446
0.969085693359375	0.0017279052734375	3096.44739918222
0.96466064453125	0.001414794921875	3097.33240917999
0.960235595703125	0.0011273193359375	3098.21741917775
0.955810546875	0.00086456298828125	3099.10242917552
0.951385498046875	0.00062255859375	3099.98743917328
0.94696044921875	0.00039984130859375	3100.87244917105
0.942535400390625	0.000194366455078125	3101.75745916882
0.9381103515625	3.6956787109375E-06	3102.64246916658
0.933685302734375	-0.0001756591796875	3103.52747916435
0.92926025390625	-0.000337890625	3104.41248916211
0.924835205078125	-0.0004884033203125	3105.29749915988
0.92041015625	-0.000628143310546875	3106.18250915764
0.915985107421875	-0.0007574462890625	3107.06751915541
0.91156005859375	-0.00087677001953125	3107.95252915317
0.907135009765625	-0.0009869384765625	3108.83753915094
0.9027099609375	-0.0010894775390625	3109.72254914871
0.898284912109375	-0.001182861328125	3110.60755914647
0.89385986328125	-0.0012689208984375	3111.49256914424
0.889434814453125	-0.00134918212890625	3112.377579142
0.885009765625	-0.00142120361328125	3113.26258913977
0.880584716796875	-0.00148773193359375	3114.14759913753
0.87615966796875	-0.001549072265625	3115.0326091353
0.871734619140625	-0.0016033935546875	3115.91761913306
0.8673095703125	-0.00165313720703125	3116.80262913083
0.862884521484375	-0.00169769287109375	3117.6876391286
0.85845947265625	-0.00173614501953125	3118.57264912636
0.854034423828125	-0.0017718505859375	3119.45765912413
0.849609375	-0.00180389404296875	3120.34266912189
0.845184326171875	-0.00183074951171875	3121.22767911966
0.84075927734375	-0.001854248046875	3122.11268911742
0.836334228515625	-0.00187469482421875	3122.99769911519
0.8319091796875	-0.0018914794921875	3123.88270911295
0.827484130859375	-0.001905517578125	3124.76771911072
0.82305908203125	-0.001917724609375	3125.65272910849
0.818634033203125	-0.00192535400390625	3126.53773910625
0.814208984375	-0.00193145751953125	3127.42274910402
0.809783935546875	-0.00193572998046875	3128.30775910178
0.80535888671875	-0.00193756103515625	3129.19276909955
0.800933837890625	-0.0019384765625	3130.07777909731
0.7965087890625	-0.00193695068359375	3130.96278909508
0.792083740234375	-0.00193389892578125	3131.84779909284
0.78765869140625	-0.00193084716796875	3132.73280909061
0.783233642578125	-0.00192535400390625	3133.61781908838
0.77880859375	-0.00191925048828125	3134.50282908614
0.774383544921875	-0.001912841796875	3135.38783908391
0.76995849609375	-0.00190673828125	3136.27284908167
0.765533447265625	-0.0018994140625	3137.15785907944
0.7611083984375	-0.00189178466796875	3138.0428690772
0.756683349609375	-0.001883544921875	3138.92787907497
0.75225830078125	-0.0018756103515625	3139.81288907273
0.747833251953125	-0.00186676025390625	3140.6978990705
0.743408203125	-0.0018572998046875	3141.58290906827
0.738983154296875	-0.001846923828125	3142.46791906603
0.73455810546875	-0.00183868408203125	3143.3529290638
0.730133056640625	-0.001829833984375	3144.23793906156
0.7257080078125	-0.00182159423828125	3145.12294905933
0.721282958984375	-0.00181304931640625	3146.00795905709
0.71685791015625	-0.0018048095703125	3146.89296905486
0.712432861328125	-0.001796875	3147.77797905262
0.7080078125	-0.0017901611328125	3148.66298905039
0.703582763671875	-0.00178192138671875	3149.54799904816
0.69915771484375	-0.001773681640625	3150.43300904592
0.694732666015625	-0.001766357421875	3151.31801904369
0.6903076171875	-0.00175994873046875	3152.20302904145
0.685882568359375	-0.0017535400390625	3153.08803903922
0.68145751953125	-0.00174713134765625	3153.97304903698
0.677032470703125	-0.001741943359375	3154.85805903475
0.672607421875	-0.001737060546875	3155.74306903251
0.668182373046875	-0.001732177734375	3156.62807903028
0.66375732421875	-0.00172760009765625	3157.51308902805
0.659332275390625	-0.0017236328125	3158.39809902581
0.6549072265625	-0.00171966552734375	3159.28310902358
0.650482177734375	-0.00171630859375	3160.16811902134
0.64605712890625	-0.00171417236328125	3161.05312901911
0.641632080078125	-0.00171142578125	3161.93813901687
0.63720703125	-0.00170989990234375	3162.82314901464
0.632781982421875	-0.00170745849609375	3163.7081590124
0.62835693359375	-0.0017071533203125	3164.59316901017
0.623931884765625	-0.00170928955078125	3165.47817900794
0.6195068359375	-0.00170806884765625	3166.3631890057
0.615081787109375	-0.00170806884765625	3167.24819900347
0.61065673828125	-0.00170806884765625	3168.13320900123
0.606231689453125	-0.00170867919921875	3169.018218999
0.601806640625	-0.0017095947265625	3169.90322899676
0.597381591796875	-0.00171112060546875	3170.78823899453
0.59295654296875	-0.00171295166015625	3171.67324899229
0.588531494140625	-0.001715087890625	3172.55825899006
0.5841064453125	-0.0017169189453125	3173.44326898783
0.579681396484375	-0.00172027587890625	3174.32827898559
0.57525634765625	-0.00172393798828125	3175.21328898336
0.570831298828125	-0.00172943115234375	3176.09829898112
0.56640625	-0.0017340087890625	3176.98330897889
0.561981201171875	-0.00173797607421875	3177.86831897665
0.55755615234375	-0.00174346923828125	3178.75332897442
0.553131103515625	-0.00174896240234375	3179.63833897219
0.5487060546875	-0.00175506591796875	3180.52334896995
0.544281005859375	-0.00176025390625	3181.40835896772
0.53985595703125	-0.0017669677734375	3182.29336896548
0.535430908203125	-0.00177398681640625	3183.17837896325
0.531005859375	-0.0017816162109375	3184.06338896101
0.526580810546875	-0.001788330078125	3184.94839895878
0.52215576171875	-0.00179534912109375	3185.83340895654
0.517730712890625	-0.001802978515625	3186.71841895431
0.5133056640625	-0.00181060791015625	3187.60342895207
0.508880615234375	-0.00181884765625	3188.48843894984
0.50445556640625	-0.00182586669921875	3189.37344894761
0.500030517578125	-0.0018341064453125	3190.25845894537
0.49560546875	-0.0018414306640625	3191.14346894314
0.491180419921875	-0.00184906005859375	3192.0284789409
0.48675537109375	-0.00185638427734375	3192.91348893867
0.482330322265625	-0.0018646240234375	3193.79849893643
0.4779052734375	-0.00187164306640625	3194.6835089342
0.473480224609375	-0.00187774658203125	3195.56851893197
0.46905517578125	-0.00188507080078125	3196.45352892973
0.464630126953125	-0.001890869140625	3197.3385389275
0.460205078125	-0.00189697265625	3198.22354892526
0.455780029296875	-0.001903076171875	3199.10855892303
0.45135498046875	-0.0019085693359375	3199.99356892079
0.446929931640625	-0.0019134521484375	3200.87857891856
0.4425048828125	-0.0019183349609375	3201.76358891632
0.438079833984375	-0.00192230224609375	3202.64859891409
0.43365478515625	-0.00192596435546875	3203.53360891186
0.429229736328125	-0.0019293212890625	3204.41861890962
0.4248046875	-0.001932373046875	3205.30362890739
0.420379638671875	-0.0019342041015625	3206.18863890515
0.41595458984375	-0.00193634033203125	3207.07364890292
0.411529541015625	-0.0019378662109375	3207.95865890068
0.4071044921875	-0.0019390869140625	3208.84366889845
0.402679443359375	-0.0019403076171875	3209.72867889621
0.39825439453125	-0.00194091796875	3210.61368889398
0.393829345703125	-0.00194091796875	3211.49869889175
0.389404296875	-0.0019403076171875	3212.38370888951
0.384979248046875	-0.00194000244140625	3213.26871888728
0.38055419921875	-0.00194061279296875	3214.15372888504
0.376129150390625	-0.00194000244140625	3215.03873888281
0.3717041015625	-0.00193939208984375	3215.92374888057
0.367279052734375	-0.00193878173828125	3216.80875887834
0.36285400390625	-0.001937255859375	3217.6937688761
0.358428955078125	-0.00193634033203125	3218.57877887387
0.35400390625	-0.00193572998046875	3219.46378887164
0.349578857421875	-0.001932373046875	3220.3487988694
0.34515380859375	-0.00193115234375	3221.23380886717
0.340728759765625	-0.00193084716796875	3222.11881886493
0.3363037109375	-0.001929931640625	3223.0038288627
0.331878662109375	-0.00192901611328125	3223.88883886046
0.32745361328125	-0.001927490234375	3224.77384885823
0.323028564453125	-0.00192626953125	3225.65885885599
0.318603515625	-0.00192535400390625	3226.54386885376
0.314178466796875	-0.001923828125	3227.42887885153
0.30975341796875	-0.00192596435546875	3228.31388884929
0.305328369140625	-0.0019244384765625	3229.19889884706
0.3009033203125	-0.001922607421875	3230.08390884482
0.296478271484375	-0.00192108154296875	3230.96891884259
0.29205322265625	-0.00191986083984375	3231.85392884035
0.287628173828125	-0.00191925048828125	3232.73893883812
0.283203125	-0.00191802978515625	3233.62394883588
0.278778076171875	-0.0019171142578125	3234.50895883365
0.27435302734375	-0.00191619873046875	3235.39396883142
0.269927978515625	-0.00191558837890625	3236.27897882918
0.2655029296875	-0.00191436767578125	3237.16398882695
0.261077880859375	-0.0019134521484375	3238.04899882471
0.25665283203125	-0.00191314697265625	3238.93400882248
0.252227783203125	-0.0019122314453125	3239.81901882024
0.247802734375	-0.00191162109375	3240.70402881801
0.243377685546875	-0.00191070556640625	3241.58903881577
0.23895263671875	-0.00190948486328125	3242.47404881354
0.234527587890625	-0.00190887451171875	3243.35905881131
0.2301025390625	-0.00190765380859375	3244.24406880907
0.225677490234375	-0.00190704345703125	3245.12907880684
0.22125244140625	-0.0019073486328125	3246.0140888046
0.216827392578125	-0.00190643310546875	3246.89909880237
0.21240234375	-0.0019061279296875	3247.78410880013
0.207977294921875	-0.00190643310546875	3248.6691187979
0.20355224609375	-0.001905517578125	3249.55412879566
0.199127197265625	-0.00190460205078125	3250.43913879343
0.1947021484375	-0.0019049072265625	3251.3241487912
0.190277099609375	-0.00190521240234375	3252.20915878896
0.18585205078125	-0.0019049072265625	3253.09416878673
0.181427001953125	-0.001905517578125	3253.97917878449
0.177001953125	-0.0019061279296875	3254.86418878226
0.172576904296875	-0.0019061279296875	3255.74919878002
0.16815185546875	-0.00190765380859375	3256.63420877779
0.163726806640625	-0.00190826416015625	3257.51921877555
0.1593017578125	-0.0019097900390625	3258.40422877332
0.154876708984375	-0.00191131591796875	3259.28923877109
0.15045166015625	-0.001912841796875	3260.17424876885
0.146026611328125	-0.0019146728515625	3261.05925876662
0.1416015625	-0.00191741943359375	3261.94426876438
0.137176513671875	-0.0019195556640625	3262.82927876215
0.13275146484375	-0.001922607421875	3263.71428875991
0.128326416015625	-0.00192596435546875	3264.59929875768
0.1239013671875	-0.00192901611328125	3265.48430875544
0.119476318359375	-0.00193206787109375	3266.36931875321
0.11505126953125	-0.0019342041015625	3267.25432875098
0.110626220703125	-0.0019384765625	3268.13933874874
0.106201171875	-0.001943359375	3269.02434874651
0.101776123046875	-0.0019476318359375	3269.90935874427
0.09735107421875	-0.00195220947265625	3270.79436874204
0.092926025390625	-0.00195709228515625	3271.6793787398
0.0885009765625	-0.00196258544921875	3272.56438873757
0.084075927734375	-0.0019677734375	3273.44939873533
0.07965087890625	-0.001973876953125	3274.3344087331
0.075225830078125	-0.00197906494140625	3275.21941873087
0.07080078125	-0.0019854736328125	3276.10442872863
0.066375732421875	-0.0019921875	3276.9894387264
0.06195068359375	-0.00199920654296875	3277.87444872416
0.057525634765625	-0.00200653076171875	3278.75945872193
0.0531005859375	-0.0020147705078125	3279.64446871969
0.048675537109375	-0.0020220947265625	3280.52947871746
0.04425048828125	-0.00203094482421875	3281.41448871522
0.039825439453125	-0.002041015625	3282.29949871299
0.035400390625	-0.00205047607421875	3283.18450871076
0.030975341796875	-0.0020599365234375	3284.06951870852
0.02655029296875	-0.0020721435546875	3284.95452870629
0.022125244140625	-0.002083740234375	3285.83953870405
0.0177001953125	-0.0020965576171875	3286.72454870182
0.013275146484375	-0.00210968017578125	3287.60955869958
0.00885009765625	-0.002122802734375	3288.49456869735
0.004425048828125	-0.00213775634765625	3289.37957869512
0	-0.00215362548828125	3290.26458869288
0.004425048828125	-0.00148345947265625	3291.14959869065
0.00885009765625	-0.00100067138671875	3292.03460868841
0.013275146484375	-0.00063690185546875	3292.91961868618
0.0177001953125	-0.000353759765625	3293.80462868394
0.022125244140625	-0.00012841796875	3294.68963868171
0.02655029296875	5.4840087890625E-05	3295.57464867947
0.030975341796875	0.0002056884765625	3296.45965867724
0.035400390625	0.000332427978515625	3297.344668675
0.039825439453125	0.000439239501953125	3298.22967867277
0.04425048828125	0.00052978515625	3299.11468867054
0.048675537109375	0.00060784912109375	3299.9996986683
0.0531005859375	0.00067596435546875	3300.88470866607
0.057525634765625	0.00073516845703125	3301.76971866383
0.06195068359375	0.0007867431640625	3302.6547286616
0.066375732421875	0.000833740234375	3303.53973865936
0.07080078125	0.000875244140625	3304.42474865713
0.075225830078125	0.00091278076171875	3305.3097586549
0.07965087890625	0.00094573974609375	3306.19476865266
0.084075927734375	0.0009765625	3307.07977865043
0.0885009765625	0.0010040283203125	3307.96478864819
0.092926025390625	0.00102996826171875	3308.84979864596
0.09735107421875	0.00105316162109375	3309.73480864372
0.101776123046875	0.00107513427734375	3310.61981864149
0.106201171875	0.00109466552734375	3311.50482863925
0.110626220703125	0.00111297607421875	3312.38983863702
0.11505126953125	0.00113037109375	3313.27484863479
0.119476318359375	0.00114532470703125	3314.15985863255
0.1239013671875	0.00116119384765625	3315.04486863032
0.128326416015625	0.00117584228515625	3315.92987862808
0.13275146484375	0.0011895751953125	3316.81488862585
0.137176513671875	0.00120330810546875	3317.69989862361
0.1416015625	0.0012158203125	3318.58490862138
0.146026611328125	0.00122772216796875	3319.46991861914
0.15045166015625	0.00123931884765625	3320.35492861691
0.154876708984375	0.0012506103515625	3321.23993861468
0.1593017578125	0.001260986328125	3322.12494861244
0.163726806640625	0.00127197265625	3323.00995861021
0.16815185546875	0.0012823486328125	3323.89496860797
0.172576904296875	0.001292724609375	3324.77997860574
0.177001953125	0.00130218505859375	3325.6649886035
0.181427001953125	0.0013128662109375	3326.54999860127
0.18585205078125	0.0013226318359375	3327.43500859903
0.190277099609375	0.00133209228515625	3328.3200185968
0.1947021484375	0.0013409423828125	3329.20502859457
0.199127197265625	0.0013507080078125	3330.09003859233
0.20355224609375	0.00135986328125	3330.9750485901
0.207977294921875	0.00136962890625	3331.86005858786
0.21240234375	0.00137847900390625	3332.74506858563
0.216827392578125	0.00138763427734375	3333.63007858339
0.22125244140625	0.00139678955078125	3334.51508858116
0.225677490234375	0.00140625	3335.40009857892
0.2301025390625	0.0014154052734375	3336.28510857669
0.234527587890625	0.00142333984375	3337.17011857446
0.23895263671875	0.00143341064453125	3338.05512857222
0.243377685546875	0.00144256591796875	3338.94013856999
0.247802734375	0.00145263671875	3339.82514856775
0.252227783203125	0.0014617919921875	3340.71015856552
0.25665283203125	0.00147064208984375	3341.59516856328
0.261077880859375	0.0014801025390625	3342.48017856105
0.2655029296875	0.0014892578125	3343.36518855881
0.269927978515625	0.00149932861328125	3344.25019855658
0.27435302734375	0.0015081787109375	3345.13520855435
0.278778076171875	0.00151763916015625	3346.02021855211
0.283203125	0.0015277099609375	3346.90522854988
0.287628173828125	0.00153778076171875	3347.79023854764
0.29205322265625	0.0015478515625	3348.67524854541
0.296478271484375	0.00155792236328125	3349.56025854317
0.3009033203125	0.0015679931640625	3350.44526854094
0.305328369140625	0.00157806396484375	3351.3302785387
0.30975341796875	0.00158843994140625	3352.21528853647
0.314178466796875	0.00160125732421875	3353.10029853424
0.318603515625	0.00161163330078125	3353.985308532
0.323028564453125	0.00162200927734375	3354.87031852977
0.32745361328125	0.001632080078125	3355.75532852753
0.331878662109375	0.00164306640625	3356.6403385253
0.3363037109375	0.00165283203125	3357.52534852306
0.340728759765625	0.0016632080078125	3358.41035852083
0.34515380859375	0.00167388916015625	3359.29536851859
0.349578857421875	0.0016851806640625	3360.18037851636
0.35400390625	0.00169342041015625	3361.06538851413
0.358428955078125	0.00170501708984375	3361.95039851189
0.36285400390625	0.00171539306640625	3362.83540850966
0.367279052734375	0.00172607421875	3363.72041850742
0.3717041015625	0.00173583984375	3364.60542850519
0.376129150390625	0.0017462158203125	3365.49043850295
0.38055419921875	0.001756591796875	3366.37544850072
0.384979248046875	0.00176605224609375	3367.26045849848
0.389404296875	0.00177490234375	3368.14546849625
0.393829345703125	0.001783447265625	3369.03047849402
0.39825439453125	0.00179229736328125	3369.91548849178
0.402679443359375	0.001800537109375	3370.80049848955
0.4071044921875	0.00180908203125	3371.68550848731
0.411529541015625	0.00181640625	3372.57051848508
0.41595458984375	0.0018243408203125	3373.45552848284
0.420379638671875	0.0018316650390625	3374.34053848061
0.4248046875	0.00183868408203125	3375.22554847837
0.429229736328125	0.001845703125	3376.11055847614
0.43365478515625	0.0018524169921875	3376.99556847391
0.438079833984375	0.00185882568359375	3377.88057847167
0.4425048828125	0.00186553955078125	3378.76558846944
0.446929931640625	0.0018719482421875	3379.6505984672
0.45135498046875	0.00187774658203125	3380.53560846497
0.455780029296875	0.00188385009765625	3381.42061846273
0.460205078125	0.0018890380859375	3382.3056284605
0.464630126953125	0.00189453125	3383.19063845826
0.46905517578125	0.00189910888671875	3384.07564845603
0.473480224609375	0.0019036865234375	3384.9606584538
0.4779052734375	0.0019085693359375	3385.84566845156
0.482330322265625	0.00191314697265625	3386.73067844933
0.48675537109375	0.00191680908203125	3387.61568844709
0.491180419921875	0.00192138671875	3388.50069844486
0.49560546875	0.0019244384765625	3389.38570844262
0.500030517578125	0.00192779541015625	3390.27071844039
0.50445556640625	0.00193145751953125	3391.15572843815
0.508880615234375	0.00193450927734375	3392.04073843592
0.5133056640625	0.00193756103515625	3392.92574843369
0.517730712890625	0.00194000244140625	3393.81075843145
0.52215576171875	0.0019427490234375	3394.69576842922
0.526580810546875	0.0019451904296875	3395.58077842698
0.531005859375	0.00194671630859375	3396.46578842475
0.535430908203125	0.001949462890625	3397.35079842251
0.53985595703125	0.00195159912109375	3398.23580842028
0.544281005859375	0.0019537353515625	3399.12081841805
0.5487060546875	0.00195404052734375	3400.00582841581
0.553131103515625	0.00195648193359375	3400.89083841358
0.55755615234375	0.00195831298828125	3401.77584841134
0.561981201171875	0.00195953369140625	3402.66085840911
0.56640625	0.001961669921875	3403.54586840687
0.570831298828125	0.00196380615234375	3404.43087840464
0.57525634765625	0.00196502685546875	3405.3158884024
0.579681396484375	0.0019659423828125	3406.20089840017
0.5841064453125	0.00196746826171875	3407.08590839793
0.588531494140625	0.00196746826171875	3407.9709183957
0.59295654296875	0.001968994140625	3408.85592839347
0.597381591796875	0.00196990966796875	3409.74093839123
0.601806640625	0.00197235107421875	3410.625948389
0.606231689453125	0.0019732666015625	3411.51095838676
0.61065673828125	0.001973876953125	3412.39596838453
0.615081787109375	0.00197509765625	3413.28097838229
0.6195068359375	0.001976318359375	3414.16598838006
0.623931884765625	0.0019775390625	3415.05099837783
0.62835693359375	0.001982421875	3415.93600837559
0.632781982421875	0.001982421875	3416.82101837336
0.63720703125	0.00198272705078125	3417.70602837112
0.641632080078125	0.001983642578125	3418.59103836889
0.64605712890625	0.00198455810546875	3419.47604836665
0.650482177734375	0.0019854736328125	3420.36105836442
0.6549072265625	0.001986083984375	3421.24606836218
0.659332275390625	0.001986083984375	3422.13107835995
0.66375732421875	0.00198760986328125	3423.01608835772
0.668182373046875	0.00198822021484375	3423.90109835548
0.672607421875	0.00198883056640625	3424.78610835325
0.677032470703125	0.0019903564453125	3425.67111835101
0.68145751953125	0.00199127197265625	3426.55612834878
0.685882568359375	0.0019921875	3427.44113834654
0.6903076171875	0.0019927978515625	3428.32614834431
0.694732666015625	0.00199462890625	3429.21115834207
0.69915771484375	0.00199615478515625	3430.09616833984
0.703582763671875	0.0019964599609375	3430.98117833761
0.7080078125	0.00199859619140625	3431.86618833537
0.712432861328125	0.002000732421875	3432.75119833314
0.71685791015625	0.002003173828125	3433.6362083309
0.721282958984375	0.00200653076171875	3434.52121832867
0.7257080078125	0.0020086669921875	3435.40622832643
0.730133056640625	0.0020123291015625	3436.2912383242
0.73455810546875	0.00201568603515625	3437.17624832196
0.738983154296875	0.00201934814453125	3438.06125831973
0.743408203125	0.0020220947265625	3438.9462683175
0.747833251953125	0.002027587890625	3439.83127831526
0.75225830078125	0.0020330810546875	3440.71628831303
0.756683349609375	0.00204010009765625	3441.60129831079
0.7611083984375	0.00204803466796875	3442.48630830856
0.765533447265625	0.0020556640625	3443.37131830632
0.76995849609375	0.0020648193359375	3444.25632830409
0.774383544921875	0.0020745849609375	3445.14133830185
0.77880859375	0.00208465576171875	3446.02634829962
0.783233642578125	0.00209564208984375	3446.91135829739
0.78765869140625	0.0021087646484375	3447.79636829515
0.792083740234375	0.0021221923828125	3448.68137829292
0.7965087890625	0.002138671875	3449.56638829068
0.800933837890625	0.00215606689453125	3450.45139828845
0.80535888671875	0.002174072265625	3451.33640828621
0.809783935546875	0.0021929931640625	3452.22141828398
0.814208984375	0.0022137451171875	3453.10642828174
0.818634033203125	0.0022369384765625	3453.99143827951
0.82305908203125	0.0022613525390625	3454.87644827728
0.827484130859375	0.0022882080078125	3455.76145827504
0.8319091796875	0.0023162841796875	3456.64646827281
0.836334228515625	0.00234649658203125	3457.53147827057
0.84075927734375	0.0023779296875	3458.41648826834
0.845184326171875	0.002412109375	3459.3014982661
0.849609375	0.00244781494140625	3460.18650826387
0.854034423828125	0.002486572265625	3461.07151826163
0.85845947265625	0.00252532958984375	3461.9565282594
0.862884521484375	0.002567138671875	3462.84153825717
0.8673095703125	0.0026116943359375	3463.72654825493
0.871734619140625	0.00265777587890625	3464.6115582527
0.87615966796875	0.00270660400390625	3465.49656825046
0.880584716796875	0.00275604248046875	3466.38157824823
0.885009765625	0.00280975341796875	3467.26658824599
0.889434814453125	0.00286468505859375	3468.15159824376
0.89385986328125	0.0029217529296875	3469.03660824152
0.898284912109375	0.0029803466796875	3469.92161823929
0.9027099609375	0.0030419921875	3470.80662823706
0.907135009765625	0.003104248046875	3471.69163823482
0.91156005859375	0.00317047119140625	3472.57664823259
0.915985107421875	0.00323760986328125	3473.46165823035
0.92041015625	0.00330535888671875	3474.34666822812
0.924835205078125	0.00337677001953125	3475.23167822588
0.92926025390625	0.00344879150390625	3476.11668822365
0.933685302734375	0.00352325439453125	3477.00169822141
0.9381103515625	0.0036016845703125	3477.88670821918
0.942535400390625	0.003677978515625	3478.77171821695
0.94696044921875	0.0037554931640625	3479.65672821471
0.951385498046875	0.00383453369140625	3480.54173821248
0.955810546875	0.00391448974609375	3481.42674821024
0.960235595703125	0.003995361328125	3482.31175820801
0.96466064453125	0.00407867431640625	3483.19676820577
0.969085693359375	0.00415985107421875	3484.08177820354
0.9735107421875	0.00424224853515625	3484.9667882013
0.977935791015625	0.0043243408203125	3485.85179819907
0.98236083984375	0.0044073486328125	3486.73680819684
0.986785888671875	0.0044891357421875	3487.6218181946
0.9912109375	0.0045721435546875	3488.50682819237
0.995635986328125	0.00465301513671875	3489.39183819013
1.00006103515625	0.0047344970703125	3490.2768481879
0.995635986328125	0.0039984130859375	3491.16185818566
0.9912109375	0.00339111328125	3492.04686818343
0.986785888671875	0.00287322998046875	3492.93187818119
0.98236083984375	0.00242279052734375	3493.81688817896
0.977935791015625	0.00202545166015625	3494.70189817673
0.9735107421875	0.001673583984375	3495.58690817449
0.969085693359375	0.00135589599609375	3496.47191817226
0.96466064453125	0.0010693359375	3497.35692817002
0.960235595703125	0.00080963134765625	3498.24193816779
0.955810546875	0.00057220458984375	3499.12694816555
0.951385498046875	0.000356689453125	3500.01195816332
0.94696044921875	0.000158782958984375	3500.89696816108
0.942535400390625	-2.3211669921875E-05	3501.78197815885
0.9381103515625	-0.00019024658203125	3502.66698815662
0.933685302734375	-0.000347015380859375	3503.55199815438
0.92926025390625	-0.000488372802734375	3504.43700815215
0.924835205078125	-0.00061883544921875	3505.32201814991
0.92041015625	-0.00073944091796875	3506.20702814768
0.915985107421875	-0.0008502197265625	3507.09203814544
0.91156005859375	-0.00095306396484375	3507.97704814321
0.907135009765625	-0.0010479736328125	3508.86205814098
0.9027099609375	-0.00113494873046875	3509.74706813874
0.898284912109375	-0.0012152099609375	3510.63207813651
0.89385986328125	-0.0012890625	3511.51708813427
0.889434814453125	-0.0013568115234375	3512.40209813204
0.885009765625	-0.00141815185546875	3513.2871081298
0.880584716796875	-0.00147430419921875	3514.17211812757
0.87615966796875	-0.0015264892578125	3515.05712812533
0.871734619140625	-0.00157318115234375	3515.9421381231
0.8673095703125	-0.0016143798828125	3516.82714812086
0.862884521484375	-0.00165252685546875	3517.71215811863
0.85845947265625	-0.00168548583984375	3518.5971681164
0.854034423828125	-0.00171539306640625	3519.48217811416
0.849609375	-0.001741943359375	3520.36718811193
0.845184326171875	-0.00176513671875	3521.25219810969
0.84075927734375	-0.00178558349609375	3522.13720810746
0.836334228515625	-0.001802978515625	3523.02221810522
0.8319091796875	-0.00181793212890625	3523.90722810299
0.827484130859375	-0.001829833984375	3524.79223810076
0.82305908203125	-0.00184051513671875	3525.67724809852
0.818634033203125	-0.00184814453125	3526.56225809629
0.814208984375	-0.00185333251953125	3527.44726809405
0.809783935546875	-0.00185760498046875	3528.33227809182
0.80535888671875	-0.00185943603515625	3529.21728808958
0.800933837890625	-0.00186004638671875	3530.10229808735
0.7965087890625	-0.00185943603515625	3530.98730808511
0.792083740234375	-0.00185821533203125	3531.87231808288
0.78765869140625	-0.0018548583984375	3532.75732808065
0.783233642578125	-0.001851806640625	3533.64233807841
0.77880859375	-0.001846923828125	3534.52734807618
0.774383544921875	-0.00184173583984375	3535.41235807394
0.76995849609375	-0.00183624267578125	3536.29736807171
0.765533447265625	-0.001829833984375	3537.18237806947
0.7611083984375	-0.00182403564453125	3538.06738806724
0.756683349609375	-0.00181732177734375	3538.952398065
0.75225830078125	-0.00180999755859375	3539.83740806277
0.747833251953125	-0.001802978515625	3540.72241806054
0.743408203125	-0.00179595947265625	3541.6074280583
0.738983154296875	-0.00178680419921875	3542.49243805607
0.73455810546875	-0.00178070068359375	3543.37744805383
0.730133056640625	-0.001773681640625	3544.2624580516
0.7257080078125	-0.00176666259765625	3545.14746804936
0.721282958984375	-0.00176055908203125	3546.03247804713
0.71685791015625	-0.001754150390625	3546.91748804489
0.712432861328125	-0.001748046875	3547.80249804266
0.7080078125	-0.00174163818359375	3548.68750804043
0.703582763671875	-0.0017352294921875	3549.57251803819
0.69915771484375	-0.001728515625	3550.45752803596
0.694732666015625	-0.0017242431640625	3551.34253803372
0.6903076171875	-0.00171905517578125	3552.22754803149
0.685882568359375	-0.0017156982421875	3553.11255802925
0.68145751953125	-0.00171112060546875	3553.99756802702
0.677032470703125	-0.00170684814453125	3554.88257802478
0.672607421875	-0.0017034912109375	3555.76758802255
0.668182373046875	-0.0016998291015625	3556.65259802032
0.66375732421875	-0.00169586181640625	3557.53760801808
0.659332275390625	-0.00169403076171875	3558.42261801585
0.6549072265625	-0.00169189453125	3559.30762801361
0.650482177734375	-0.001689453125	3560.19263801138
0.64605712890625	-0.00168853759765625	3561.07764800914
0.641632080078125	-0.00168731689453125	3561.96265800691
0.63720703125	-0.0016864013671875	3562.84766800467
0.632781982421875	-0.00168609619140625	3563.73267800244
0.62835693359375	-0.001685791015625	3564.61768800021
0.623931884765625	-0.00168975830078125	3565.50269799797
0.6195068359375	-0.001689453125	3566.38770799574
0.615081787109375	-0.00168975830078125	3567.2727179935
0.61065673828125	-0.00169097900390625	3568.15772799127
0.606231689453125	-0.00169281005859375	3569.04273798903
0.601806640625	-0.0016943359375	3569.9277479868
0.597381591796875	-0.00169677734375	3570.81275798456
0.59295654296875	-0.0016998291015625	3571.69776798233
0.588531494140625	-0.00170318603515625	3572.5827779801
0.5841064453125	-0.00170440673828125	3573.46778797786
0.579681396484375	-0.00170989990234375	3574.35279797563
0.57525634765625	-0.0017138671875	3575.23780797339
0.570831298828125	-0.0017193603515625	3576.12281797116
0.56640625	-0.00172515869140625	3577.00782796892
0.561981201171875	-0.00173004150390625	3577.89283796669
0.55755615234375	-0.00173675537109375	3578.77784796445
0.553131103515625	-0.00174285888671875	3579.66285796222
0.5487060546875	-0.00174957275390625	3580.54786795999
0.544281005859375	-0.00175567626953125	3581.43287795775
0.53985595703125	-0.00176300048828125	3582.31788795552
0.535430908203125	-0.00177093505859375	3583.20289795328
0.531005859375	-0.001778564453125	3584.08790795105
0.526580810546875	-0.0017864990234375	3584.97291794881
0.52215576171875	-0.001795654296875	3585.85792794658
0.517730712890625	-0.0018035888671875	3586.74293794434
0.5133056640625	-0.001812744140625	3587.62794794211
0.508880615234375	-0.0018206787109375	3588.51295793988
0.50445556640625	-0.0018292236328125	3589.39796793764
0.500030517578125	-0.00183868408203125	3590.28297793541
0.49560546875	-0.00184722900390625	3591.16798793317
0.491180419921875	-0.00185638427734375	3592.05299793094
0.48675537109375	-0.00186492919921875	3592.9380079287
0.482330322265625	-0.0018731689453125	3593.82301792647
0.4779052734375	-0.00188201904296875	3594.70802792423
0.473480224609375	-0.0018902587890625	3595.593037922
0.46905517578125	-0.001898193359375	3596.47804791977
0.464630126953125	-0.0019049072265625	3597.36305791753
0.460205078125	-0.0019122314453125	3598.2480679153
0.455780029296875	-0.0019189453125	3599.13307791306
0.45135498046875	-0.0019256591796875	3600.01808791083
0.446929931640625	-0.0019317626953125	3600.90309790859
0.4425048828125	-0.00193695068359375	3601.78810790636
0.438079833984375	-0.00194244384765625	3602.67311790412
0.43365478515625	-0.0019464111328125	3603.55812790189
0.429229736328125	-0.00195037841796875	3604.44313789966
0.4248046875	-0.00195343017578125	3605.32814789742
0.420379638671875	-0.00195648193359375	3606.21315789519
0.41595458984375	-0.001959228515625	3607.09816789295
0.411529541015625	-0.00196044921875	3607.98317789072
0.4071044921875	-0.0019622802734375	3608.86818788848
0.402679443359375	-0.00196380615234375	3609.75319788625
0.39825439453125	-0.00196380615234375	3610.63820788401
0.393829345703125	-0.0019635009765625	3611.52321788178
0.389404296875	-0.00196258544921875	3612.40822787955
0.384979248046875	-0.00196197509765625	3613.29323787731
0.38055419921875	-0.001961669921875	3614.17824787508
0.376129150390625	-0.00196075439453125	3615.06325787284
0.3717041015625	-0.001959228515625	3615.94826787061
0.367279052734375	-0.0019573974609375	3616.83327786837
0.36285400390625	-0.00195587158203125	3617.71828786614
0.358428955078125	-0.00195404052734375	3618.60329786391
0.35400390625	-0.00195220947265625	3619.48830786167
0.349578857421875	-0.0019488525390625	3620.37331785944
0.34515380859375	-0.001947021484375	3621.2583278572
0.340728759765625	-0.00194549560546875	3622.14333785497
0.3363037109375	-0.00194305419921875	3623.02834785273
0.331878662109375	-0.00194091796875	3623.9133578505
0.32745361328125	-0.00193878173828125	3624.79836784826
0.323028564453125	-0.0019366455078125	3625.68337784603
0.318603515625	-0.00193389892578125	3626.56838784379
0.314178466796875	-0.00193267822265625	3627.45339784156
0.30975341796875	-0.0019329833984375	3628.33840783933
0.305328369140625	-0.00193023681640625	3629.22341783709
0.3009033203125	-0.0019281005859375	3630.10842783486
0.296478271484375	-0.001925048828125	3630.99343783262
0.29205322265625	-0.0019232177734375	3631.87844783039
0.287628173828125	-0.0019207763671875	3632.76345782815
0.283203125	-0.0019189453125	3633.64846782592
0.278778076171875	-0.0019171142578125	3634.53347782369
0.27435302734375	-0.001915283203125	3635.41848782145
0.269927978515625	-0.001912841796875	3636.30349781922
0.2655029296875	-0.0019110107421875	3637.18850781698
0.261077880859375	-0.0019091796875	3638.07351781475
0.25665283203125	-0.001907958984375	3638.95852781251
0.252227783203125	-0.00190643310546875	3639.84353781028
0.247802734375	-0.00190460205078125	3640.72854780804
0.243377685546875	-0.00190277099609375	3641.61355780581
0.23895263671875	-0.00190155029296875	3642.49856780358
0.234527587890625	-0.0019000244140625	3643.38357780134
0.2301025390625	-0.00189849853515625	3644.26858779911
0.225677490234375	-0.00189727783203125	3645.15359779687
0.22125244140625	-0.0018963623046875	3646.03860779464
0.216827392578125	-0.0018951416015625	3646.9236177924
0.21240234375	-0.0018939208984375	3647.80862779017
0.207977294921875	-0.00189300537109375	3648.69363778793
0.20355224609375	-0.00189239501953125	3649.5786477857
0.199127197265625	-0.00189117431640625	3650.46365778347
0.1947021484375	-0.00189056396484375	3651.34866778123
0.190277099609375	-0.0018896484375	3652.233677779
0.18585205078125	-0.00188934326171875	3653.11868777676
0.181427001953125	-0.00188934326171875	3654.00369777453
0.177001953125	-0.00188934326171875	3654.88870777229
0.172576904296875	-0.00188873291015625	3655.77371777006
0.16815185546875	-0.00188995361328125	3656.65872776782
0.163726806640625	-0.00189056396484375	3657.54373776559
0.1593017578125	-0.00189117431640625	3658.42874776336
0.154876708984375	-0.00189208984375	3659.31375776112
0.15045166015625	-0.00189361572265625	3660.19876775889
0.146026611328125	-0.00189483642578125	3661.08377775665
0.1416015625	-0.0018975830078125	3661.96878775442
0.137176513671875	-0.0019000244140625	3662.85379775218
0.13275146484375	-0.0019024658203125	3663.73880774995
0.128326416015625	-0.0019049072265625	3664.62381774771
0.1239013671875	-0.00190765380859375	3665.50882774548
0.119476318359375	-0.00191162109375	3666.39383774325
0.11505126953125	-0.0019134521484375	3667.27884774101
0.110626220703125	-0.00191802978515625	3668.16385773878
0.106201171875	-0.00192291259765625	3669.04886773654
0.101776123046875	-0.00192718505859375	3669.93387773431
0.09735107421875	-0.001932373046875	3670.81888773207
0.092926025390625	-0.001937255859375	3671.70389772984
0.0885009765625	-0.0019427490234375	3672.5889077276
0.084075927734375	-0.001949462890625	3673.47391772537
0.07965087890625	-0.00195587158203125	3674.35892772314
0.075225830078125	-0.00196136474609375	3675.2439377209
0.07080078125	-0.00196868896484375	3676.12894771867
0.066375732421875	-0.00197601318359375	3677.01395771643
0.06195068359375	-0.0019842529296875	3677.8989677142
0.057525634765625	-0.0019927978515625	3678.78397771196
0.0531005859375	-0.00200164794921875	3679.66898770973
0.048675537109375	-0.0020111083984375	3680.55399770749
0.04425048828125	-0.0020208740234375	3681.43900770526
0.039825439453125	-0.00203155517578125	3682.32401770303
0.035400390625	-0.00204254150390625	3683.20902770079
0.030975341796875	-0.00205474853515625	3684.09403769856
0.02655029296875	-0.0020672607421875	3684.97904769632
0.022125244140625	-0.00208038330078125	3685.86405769409
0.0177001953125	-0.00209503173828125	3686.74906769185
0.013275146484375	-0.00210968017578125	3687.63407768962
0.00885009765625	-0.00212432861328125	3688.51908768738
0.004425048828125	-0.00214202880859375	3689.40409768515
0	-0.0021600341796875	3690.28910768292
0.004425048828125	-0.0014886474609375	3691.17411768068
0.00885009765625	-0.0010028076171875	3692.05912767845
0.013275146484375	-0.00063507080078125	3692.94413767621
0.0177001953125	-0.000348968505859375	3693.82914767398
0.022125244140625	-0.0001199951171875	3694.71415767174
0.02655029296875	6.6131591796875E-05	3695.59916766951
0.030975341796875	0.000220306396484375	3696.48417766727
0.035400390625	0.00034954833984375	3697.36918766504
0.039825439453125	0.00045770263671875	3698.25419766281
0.04425048828125	0.0005511474609375	3699.13920766057
0.048675537109375	0.00063043212890625	3700.02421765834
0.0531005859375	0.00069976806640625	3700.9092276561
0.057525634765625	0.000760498046875	3701.79423765387
0.06195068359375	0.00081298828125	3702.67924765163
0.066375732421875	0.00086090087890625	3703.5642576494
0.07080078125	0.00090362548828125	3704.44926764716
0.075225830078125	0.00094146728515625	3705.33427764493
0.07965087890625	0.000975341796875	3706.2192876427
0.084075927734375	0.001007080078125	3707.10429764046
0.0885009765625	0.00103515625	3707.98930763823
0.092926025390625	0.00106109619140625	3708.87431763599
0.09735107421875	0.0010845947265625	3709.75932763376
0.101776123046875	0.0011065673828125	3710.64433763152
0.106201171875	0.0011260986328125	3711.52934762929
0.110626220703125	0.00114501953125	3712.41435762705
0.11505126953125	0.0011627197265625	3713.29936762482
0.119476318359375	0.00117706298828125	3714.18437762259
0.1239013671875	0.00119293212890625	3715.06938762035
0.128326416015625	0.001207275390625	3715.95439761812
0.13275146484375	0.0012213134765625	3716.83940761588
0.137176513671875	0.00123443603515625	3717.72441761365
0.1416015625	0.00124664306640625	3718.60942761141
0.146026611328125	0.001258544921875	3719.49443760918
0.15045166015625	0.00126983642578125	3720.37944760694
0.154876708984375	0.001280517578125	3721.26445760471
0.1593017578125	0.001290283203125	3722.14946760248
0.163726806640625	0.0013006591796875	3723.03447760024
0.16815185546875	0.00131072998046875	3723.91948759801
0.172576904296875	0.00132080078125	3724.80449759577
0.177001953125	0.0013299560546875	3725.68950759354
0.181427001953125	0.00133880615234375	3726.5745175913
0.18585205078125	0.00134765625	3727.45952758907
0.190277099609375	0.0013568115234375	3728.34453758684
0.1947021484375	0.0013653564453125	3729.2295475846
0.199127197265625	0.00137451171875	3730.11455758237
0.20355224609375	0.00138336181640625	3730.99956758013
0.207977294921875	0.0013916015625	3731.8845775779
0.21240234375	0.001400146484375	3732.76958757566
0.216827392578125	0.0014080810546875	3733.65459757343
0.22125244140625	0.0014166259765625	3734.53960757119
0.225677490234375	0.001424560546875	3735.42461756896
0.2301025390625	0.00143310546875	3736.30962756672
0.234527587890625	0.0014404296875	3737.19463756449
0.23895263671875	0.001448974609375	3738.07964756226
0.243377685546875	0.00145782470703125	3738.96465756002
0.247802734375	0.00146697998046875	3739.84966755779
0.252227783203125	0.0014752197265625	3740.73467755555
0.25665283203125	0.0014825439453125	3741.61968755332
0.261077880859375	0.00149139404296875	3742.50469755108
0.2655029296875	0.00149810791015625	3743.38970754885
0.269927978515625	0.001507568359375	3744.27471754662
0.27435302734375	0.00151519775390625	3745.15972754438
0.278778076171875	0.0015240478515625	3746.04473754215
0.283203125	0.0015325927734375	3746.92974753991
0.287628173828125	0.001541748046875	3747.81475753768
0.29205322265625	0.0015509033203125	3748.69976753544
0.296478271484375	0.00155975341796875	3749.58477753321
0.3009033203125	0.00156829833984375	3750.46978753097
0.305328369140625	0.0015765380859375	3751.35479752874
0.30975341796875	0.0015863037109375	3752.23980752651
0.314178466796875	0.001597900390625	3753.12481752427
0.318603515625	0.0016064453125	3754.00982752204
0.323028564453125	0.00161468505859375	3754.8948375198
0.32745361328125	0.0016241455078125	3755.77984751757
0.331878662109375	0.00163330078125	3756.66485751533
0.3363037109375	0.0016424560546875	3757.5498675131
0.340728759765625	0.00165191650390625	3758.43487751086
0.34515380859375	0.00166046142578125	3759.31988750863
0.349578857421875	0.00167022705078125	3760.2048975064
0.35400390625	0.00167755126953125	3761.08990750416
0.358428955078125	0.001688232421875	3761.97491750193
0.36285400390625	0.00169708251953125	3762.85992749969
0.367279052734375	0.00170684814453125	3763.74493749746
0.3717041015625	0.00171661376953125	3764.62994749522
0.376129150390625	0.0017254638671875	3765.51495749299
0.38055419921875	0.001734619140625	3766.39996749075
0.384979248046875	0.0017431640625	3767.28497748852
0.389404296875	0.00175201416015625	3768.16998748629
0.393829345703125	0.0017596435546875	3769.05499748405
0.39825439453125	0.001767578125	3769.94000748182
0.402679443359375	0.001776123046875	3770.82501747958
0.4071044921875	0.00178436279296875	3771.71002747735
0.411529541015625	0.0017913818359375	3772.59503747511
0.41595458984375	0.00179901123046875	3773.48004747288
0.420379638671875	0.00180572509765625	3774.36505747064
0.4248046875	0.0018133544921875	3775.25006746841
0.429229736328125	0.00182037353515625	3776.13507746618
0.43365478515625	0.0018267822265625	3777.02008746394
0.438079833984375	0.00183380126953125	3777.90509746171
0.4425048828125	0.0018408203125	3778.79010745947
0.446929931640625	0.0018475341796875	3779.67511745724
0.45135498046875	0.00185394287109375	3780.560127455
0.455780029296875	0.00186004638671875	3781.44513745277
0.460205078125	0.0018658447265625	3782.33014745053
0.464630126953125	0.00187225341796875	3783.2151574483
0.46905517578125	0.0018768310546875	3784.10016744607
0.473480224609375	0.0018829345703125	3784.98517744383
0.4779052734375	0.00188812255859375	3785.8701874416
0.482330322265625	0.0018927001953125	3786.75519743936
0.48675537109375	0.00189788818359375	3787.64020743713
0.491180419921875	0.0019024658203125	3788.52521743489
0.49560546875	0.00190673828125	3789.41022743266
0.500030517578125	0.00191070556640625	3790.29523743042
0.50445556640625	0.0019146728515625	3791.18024742819
0.508880615234375	0.0019183349609375	3792.06525742596
0.5133056640625	0.00192230224609375	3792.95026742372
0.517730712890625	0.00192535400390625	3793.83527742149
0.52215576171875	0.00192840576171875	3794.72028741925
0.526580810546875	0.00193115234375	3795.60529741702
0.531005859375	0.00193450927734375	3796.49030741478
0.535430908203125	0.001937255859375	3797.37531741255
0.53985595703125	0.001939697265625	3798.26032741031
0.544281005859375	0.001942138671875	3799.14533740808
0.5487060546875	0.0019439697265625	3800.03034740585
0.553131103515625	0.0019464111328125	3800.91535740361
0.55755615234375	0.0019488525390625	3801.80036740138
0.561981201171875	0.00195098876953125	3802.68537739914
0.56640625	0.0019525146484375	3803.57038739691
0.570831298828125	0.0019549560546875	3804.45539739467
0.57525634765625	0.0019561767578125	3805.34040739244
0.579681396484375	0.00195831298828125	3806.2254173902
0.5841064453125	0.0019598388671875	3807.11042738797
0.588531494140625	0.001959228515625	3807.99543738574
0.59295654296875	0.00196136474609375	3808.8804473835
0.597381591796875	0.001962890625	3809.76545738127
0.601806640625	0.0019647216796875	3810.65046737903
0.606231689453125	0.0019659423828125	3811.5354773768
0.61065673828125	0.0019671630859375	3812.42048737456
0.615081787109375	0.00196868896484375	3813.30549737233
0.6195068359375	0.0019696044921875	3814.19050737009
0.623931884765625	0.00197052001953125	3815.07551736786
0.62835693359375	0.00197479248046875	3815.96052736563
0.632781982421875	0.0019744873046875	3816.84553736339
0.63720703125	0.0019744873046875	3817.73054736116
0.641632080078125	0.00197509765625	3818.61555735892
0.64605712890625	0.00197479248046875	3819.50056735669
0.650482177734375	0.001976318359375	3820.38557735445
0.6549072265625	0.0019757080078125	3821.27058735222
0.659332275390625	0.00197601318359375	3822.15559734998
0.66375732421875	0.001976318359375	3823.04060734775
0.668182373046875	0.0019769287109375	3823.92561734552
0.672607421875	0.0019775390625	3824.81062734328
0.677032470703125	0.0019775390625	3825.69563734105
0.68145751953125	0.00197723388671875	3826.58064733881
0.685882568359375	0.00197784423828125	3827.46565733658
0.6903076171875	0.0019775390625	3828.35066733434
0.694732666015625	0.0019781494140625	3829.23567733211
0.69915771484375	0.00197845458984375	3830.12068732987
0.703582763671875	0.00197784423828125	3831.00569732764
0.7080078125	0.00197906494140625	3831.89070732541
0.712432861328125	0.0019805908203125	3832.77571732317
0.71685791015625	0.001981201171875	3833.66072732094
0.721282958984375	0.00198272705078125	3834.5457373187
0.7257080078125	0.0019842529296875	3835.43074731647
0.730133056640625	0.001986083984375	3836.31575731423
0.73455810546875	0.0019879150390625	3837.200767312
0.738983154296875	0.00199066162109375	3838.08577730977
0.743408203125	0.0019915771484375	3838.97078730753
0.747833251953125	0.00199554443359375	3839.8557973053
0.75225830078125	0.00199920654296875	3840.74080730306
0.756683349609375	0.00200408935546875	3841.62581730083
0.7611083984375	0.00200897216796875	3842.51082729859
0.765533447265625	0.00201446533203125	3843.39583729636
0.76995849609375	0.00202178955078125	3844.28084729412
0.774383544921875	0.0020281982421875	3845.16585729189
0.77880859375	0.00203582763671875	3846.05086728965
0.783233642578125	0.00204437255859375	3846.93587728742
0.78765869140625	0.002054443359375	3847.82088728519
0.792083740234375	0.002066650390625	3848.70589728295
0.7965087890625	0.0020782470703125	3849.59090728072
0.800933837890625	0.00209228515625	3850.47591727848
0.80535888671875	0.00210723876953125	3851.36092727625
0.809783935546875	0.00212310791015625	3852.24593727401
0.814208984375	0.00214141845703125	3853.13094727178
0.818634033203125	0.00216033935546875	3854.01595726955
0.82305908203125	0.00218170166015625	3854.90096726731
0.827484130859375	0.00220428466796875	3855.78597726508
0.8319091796875	0.00222747802734375	3856.67098726284
0.836334228515625	0.00225433349609375	3857.55599726061
0.84075927734375	0.00228179931640625	3858.44100725837
0.845184326171875	0.00231170654296875	3859.32601725614
0.849609375	0.0023431396484375	3860.2110272539
0.854034423828125	0.0023760986328125	3861.09603725167
0.85845947265625	0.00241241455078125	3861.98104724944
0.862884521484375	0.00244842529296875	3862.8660572472
0.8673095703125	0.00248779296875	3863.75106724497
0.871734619140625	0.002529296875	3864.63607724273
0.87615966796875	0.00257293701171875	3865.5210872405
0.880584716796875	0.00261932373046875	3866.40609723826
0.885009765625	0.00266632080078125	3867.29110723603
0.889434814453125	0.0027154541015625	3868.17611723379
0.89385986328125	0.00276702880859375	3869.06112723156
0.898284912109375	0.002821044921875	3869.94613722933
0.9027099609375	0.0028759765625	3870.83114722709
0.907135009765625	0.00293304443359375	3871.71615722486
0.91156005859375	0.0029925537109375	3872.60116722262
0.915985107421875	0.0030535888671875	3873.48617722039
0.92041015625	0.0031158447265625	3874.37118721815
0.924835205078125	0.00317962646484375	3875.25619721592
0.92926025390625	0.00324493408203125	3876.14120721368
0.933685302734375	0.0033111572265625	3877.02621721145
0.9381103515625	0.00338226318359375	3877.91122720922
0.942535400390625	0.00345062255859375	3878.79623720698
0.94696044921875	0.00351959228515625	3879.68124720475
0.951385498046875	0.003590087890625	3880.56625720251
0.955810546875	0.003660888671875	3881.45126720028
0.960235595703125	0.0037322998046875	3882.33627719804
0.96466064453125	0.00380462646484375	3883.22128719581
0.969085693359375	0.0038763427734375	3884.10629719357
0.9735107421875	0.00394866943359375	3884.99130719134
0.977935791015625	0.0040185546875	3885.87631718911
0.98236083984375	0.00408966064453125	3886.76132718687
0.986785888671875	0.00416107177734375	3887.64633718464
0.9912109375	0.00423095703125	3888.5313471824
