Potential applied (V)	WE(1).Current (A)	Time (s)
0.004425048828125	-0.09141845703125	3890.96910817625
0.00885009765625	-0.0767913818359375	3891.41161317513
0.013275146484375	-0.065087890625	3891.85411817401
0.0177001953125	-0.0556304931640625	3892.2966231729
0.022125244140625	-0.0480072021484375	3892.73912817178
0.02655029296875	-0.0416717529296875	3893.18163317066
0.030975341796875	-0.0363067626953125	3893.62413816954
0.035400390625	-0.0316802978515625	3894.06664316843
0.039825439453125	-0.0276580810546875	3894.50914816731
0.04425048828125	-0.0241546630859375	3894.95165316619
0.048675537109375	-0.0211090087890625	3895.39415816508
0.0531005859375	-0.01845703125	3895.83666316396
0.057525634765625	-0.0161376953125	3896.27916816284
0.06195068359375	-0.014111328125	3896.72167316172
0.066375732421875	-0.01234130859375	3897.16417816061
0.07080078125	-0.0107879638671875	3897.60668315949
0.075225830078125	-0.0094207763671875	3898.04918815837
0.07965087890625	-0.0082244873046875	3898.49169315725
0.084075927734375	-0.00716552734375	3898.93419815614
0.0885009765625	-0.0062286376953125	3899.37670315502
0.092926025390625	-0.0053924560546875	3899.8192081539
0.09735107421875	-0.00465667724609375	3900.26171315279
0.101776123046875	-0.00399932861328125	3900.70421815167
0.106201171875	-0.0034130859375	3901.14672315055
0.110626220703125	-0.00288909912109375	3901.58922814943
0.11505126953125	-0.00241851806640625	3902.03173314832
0.119476318359375	-0.00200714111328125	3902.4742381472
0.1239013671875	-0.00162506103515625	3902.91674314608
0.128326416015625	-0.0012811279296875	3903.35924814497
0.13275146484375	-0.0009698486328125	3903.80175314385
0.137176513671875	-0.00068878173828125	3904.24425814273
0.1416015625	-0.000432647705078125	3904.68676314161
0.146026611328125	-0.0001995849609375	3905.1292681405
0.15045166015625	1.1767578125E-05	3905.57177313938
0.154876708984375	0.000205078125	3906.01427813826
0.1593017578125	0.00038128662109375	3906.45678313714
0.163726806640625	0.00054388427734375	3906.89928813603
0.16815185546875	0.00069287109375	3907.34179313491
0.172576904296875	0.000830078125	3907.78429813379
0.177001953125	0.00095550537109375	3908.22680313268
0.181427001953125	0.0010723876953125	3908.66930813156
0.18585205078125	0.00117950439453125	3909.11181313044
0.190277099609375	0.0012774658203125	3909.55431812932
0.1947021484375	0.00136932373046875	3909.99682312821
0.199127197265625	0.001456298828125	3910.43932812709
0.20355224609375	0.00153778076171875	3910.88183312597
0.207977294921875	0.00161407470703125	3911.32433812486
0.21240234375	0.00168487548828125	3911.76684312374
0.216827392578125	0.0017510986328125	3912.20934812262
0.22125244140625	0.00181488037109375	3912.6518531215
0.225677490234375	0.0018743896484375	3913.09435812039
0.2301025390625	0.00193023681640625	3913.53686311927
0.234527587890625	0.00198089599609375	3913.97936811815
0.23895263671875	0.0020306396484375	3914.42187311703
0.243377685546875	0.0020782470703125	3914.86437811592
0.247802734375	0.0021234130859375	3915.3068831148
0.252227783203125	0.002166748046875	3915.74938811368
0.25665283203125	0.0022076416015625	3916.19189311257
0.261077880859375	0.00224700927734375	3916.63439811145
0.2655029296875	0.002283935546875	3917.07690311033
0.269927978515625	0.002320556640625	3917.51940810921
0.27435302734375	0.0023553466796875	3917.9619131081
0.278778076171875	0.0023895263671875	3918.40441810698
0.283203125	0.0024212646484375	3918.84692310586
0.287628173828125	0.00245330810546875	3919.28942810475
0.29205322265625	0.0024847412109375	3919.73193310363
0.296478271484375	0.0025152587890625	3920.17443810251
0.3009033203125	0.0025439453125	3920.61694310139
0.305328369140625	0.0025726318359375	3921.05944810028
0.30975341796875	0.00260040283203125	3921.50195309916
0.314178466796875	0.0026300048828125	3921.94445809804
0.318603515625	0.0026556396484375	3922.38696309692
0.323028564453125	0.0026812744140625	3922.82946809581
0.32745361328125	0.0027056884765625	3923.27197309469
0.331878662109375	0.002730712890625	3923.71447809357
0.3363037109375	0.00275421142578125	3924.15698309246
0.340728759765625	0.00277801513671875	3924.59948809134
0.34515380859375	0.002801513671875	3925.04199309022
0.349578857421875	0.00282379150390625	3925.4844980891
0.35400390625	0.00284423828125	3925.92700308799
0.358428955078125	0.0028668212890625	3926.36950808687
0.36285400390625	0.0028887939453125	3926.81201308575
0.367279052734375	0.00291168212890625	3927.25451808464
0.3717041015625	0.00293243408203125	3927.69702308352
0.376129150390625	0.00295318603515625	3928.1395280824
0.38055419921875	0.00297332763671875	3928.58203308128
0.384979248046875	0.00299407958984375	3929.02453808017
0.389404296875	0.00301361083984375	3929.46704307905
0.393829345703125	0.00303253173828125	3929.90954807793
0.39825439453125	0.0030517578125	3930.35205307682
0.402679443359375	0.003070068359375	3930.7945580757
0.4071044921875	0.00308868408203125	3931.23706307458
0.411529541015625	0.00310699462890625	3931.67956807346
0.41595458984375	0.003125	3932.12207307235
0.420379638671875	0.00314208984375	3932.56457807123
0.4248046875	0.0031591796875	3933.00708307011
0.429229736328125	0.00317596435546875	3933.44958806899
0.43365478515625	0.003192138671875	3933.89209306788
0.438079833984375	0.00320831298828125	3934.33459806676
0.4425048828125	0.0032232666015625	3934.77710306564
0.446929931640625	0.0032391357421875	3935.21960806453
0.45135498046875	0.00325439453125	3935.66211306341
0.455780029296875	0.0032696533203125	3936.10461806229
0.460205078125	0.00328369140625	3936.54712306117
0.464630126953125	0.003297119140625	3936.98962806006
0.46905517578125	0.003310546875	3937.43213305894
0.473480224609375	0.003323974609375	3937.87463805782
0.4779052734375	0.00333709716796875	3938.3171430567
0.482330322265625	0.0033502197265625	3938.75964805559
0.48675537109375	0.003363037109375	3939.20215305447
0.491180419921875	0.00337493896484375	3939.64465805335
0.49560546875	0.00338653564453125	3940.08716305224
0.500030517578125	0.00339813232421875	3940.52966805112
0.50445556640625	0.00340972900390625	3940.97217305
0.508880615234375	0.00342071533203125	3941.41467804888
0.5133056640625	0.003431396484375	3941.85718304777
0.517730712890625	0.00344085693359375	3942.29968804665
0.52215576171875	0.0034503173828125	3942.74219304553
0.526580810546875	0.0034600830078125	3943.18469804442
0.531005859375	0.00346893310546875	3943.6272030433
0.535430908203125	0.0034783935546875	3944.06970804218
0.53985595703125	0.003486328125	3944.51221304106
0.544281005859375	0.00349334716796875	3944.95471803995
0.5487060546875	0.003499755859375	3945.39722303883
0.553131103515625	0.00350799560546875	3945.83972803771
0.55755615234375	0.00351531982421875	3946.2822330366
0.561981201171875	0.00352203369140625	3946.72473803548
0.56640625	0.00352813720703125	3947.16724303436
0.570831298828125	0.00353485107421875	3947.60974803324
0.57525634765625	0.00354034423828125	3948.05225303213
0.579681396484375	0.003546142578125	3948.49475803101
0.5841064453125	0.0035516357421875	3948.93726302989
0.588531494140625	0.0035546875	3949.37976802877
0.59295654296875	0.00355987548828125	3949.82227302766
0.597381591796875	0.00356475830078125	3950.26477802654
0.601806640625	0.00356964111328125	3950.70728302542
0.606231689453125	0.00357513427734375	3951.14978802431
0.61065673828125	0.00357879638671875	3951.59229302319
0.615081787109375	0.0035833740234375	3952.03479802207
0.6195068359375	0.00358734130859375	3952.47730302095
0.623931884765625	0.00359100341796875	3952.91980801984
0.62835693359375	0.0035986328125	3953.36231301872
0.632781982421875	0.0036016845703125	3953.8048180176
0.63720703125	0.003603515625	3954.24732301649
0.641632080078125	0.00360687255859375	3954.68982801537
0.64605712890625	0.00361053466796875	3955.13233301425
0.650482177734375	0.00361328125	3955.57483801313
0.6549072265625	0.00361602783203125	3956.01734301202
0.659332275390625	0.00361846923828125	3956.4598480109
0.66375732421875	0.00362152099609375	3956.90235300978
0.668182373046875	0.00362457275390625	3957.34485800866
0.672607421875	0.0036273193359375	3957.78736300755
0.677032470703125	0.0036297607421875	3958.22986800643
0.68145751953125	0.00363250732421875	3958.67237300531
0.685882568359375	0.00363525390625	3959.1148780042
0.6903076171875	0.003638916015625	3959.55738300308
0.694732666015625	0.00364166259765625	3959.99988800196
0.69915771484375	0.00364501953125	3960.44239300084
0.703582763671875	0.00364654541015625	3960.88489799973
0.7080078125	0.0036505126953125	3961.32740299861
0.712432861328125	0.00365478515625	3961.76990799749
0.71685791015625	0.003658447265625	3962.21241299638
0.721282958984375	0.00366241455078125	3962.65491799526
0.7257080078125	0.00366546630859375	3963.09742299414
0.730133056640625	0.0036700439453125	3963.53992799302
0.73455810546875	0.00367431640625	3963.98243299191
0.738983154296875	0.00367889404296875	3964.42493799079
0.743408203125	0.003681640625	3964.86744298967
0.747833251953125	0.0036871337890625	3965.30994798855
0.75225830078125	0.00369293212890625	3965.75245298744
0.756683349609375	0.00369903564453125	3966.19495798632
0.7611083984375	0.0037066650390625	3966.6374629852
0.765533447265625	0.00371307373046875	3967.07996798409
0.76995849609375	0.00372039794921875	3967.52247298297
0.774383544921875	0.00372802734375	3967.96497798185
0.77880859375	0.003736572265625	3968.40748298073
0.783233642578125	0.0037457275390625	3968.84998797962
0.78765869140625	0.0037554931640625	3969.2924929785
0.792083740234375	0.00376617431640625	3969.73499797738
0.7965087890625	0.00377777099609375	3970.17750297627
0.800933837890625	0.0037908935546875	3970.62000797515
0.80535888671875	0.00380523681640625	3971.06251297403
0.809783935546875	0.0038201904296875	3971.50501797291
0.814208984375	0.00383575439453125	3971.9475229718
0.818634033203125	0.003853759765625	3972.39002797068
0.82305908203125	0.0038720703125	3972.83253296956
0.827484130859375	0.00389312744140625	3973.27503796844
0.8319091796875	0.003914794921875	3973.71754296733
0.836334228515625	0.00393890380859375	3974.16004796621
0.84075927734375	0.0039642333984375	3974.60255296509
0.845184326171875	0.00399139404296875	3975.04505796398
0.849609375	0.00402099609375	3975.48756296286
0.854034423828125	0.004052734375	3975.93006796174
0.85845947265625	0.00408599853515625	3976.37257296062
0.862884521484375	0.004119873046875	3976.81507795951
0.8673095703125	0.00415771484375	3977.25758295839
0.871734619140625	0.00419830322265625	3977.70008795727
0.87615966796875	0.00424041748046875	3978.14259295616
0.880584716796875	0.00428497314453125	3978.58509795504
0.885009765625	0.0043316650390625	3979.02760295392
0.889434814453125	0.0043817138671875	3979.4701079528
0.89385986328125	0.0044342041015625	3979.91261295169
0.898284912109375	0.0044891357421875	3980.35511795057
0.9027099609375	0.00454620361328125	3980.79762294945
0.907135009765625	0.0046063232421875	3981.24012794833
0.91156005859375	0.004669189453125	3981.68263294722
0.915985107421875	0.0047332763671875	3982.1251379461
0.92041015625	0.004801025390625	3982.56764294498
0.924835205078125	0.00487152099609375	3983.01014794387
0.92926025390625	0.0049432373046875	3983.45265294275
0.933685302734375	0.00501800537109375	3983.89515794163
0.9381103515625	0.00509796142578125	3984.33766294051
0.942535400390625	0.005177001953125	3984.7801679394
0.94696044921875	0.00525909423828125	3985.22267293828
0.951385498046875	0.00534210205078125	3985.66517793716
0.955810546875	0.0054278564453125	3986.10768293605
0.960235595703125	0.00551513671875	3986.55018793493
0.96466064453125	0.005604248046875	3986.99269293381
0.969085693359375	0.0056951904296875	3987.43519793269
0.9735107421875	0.00578857421875	3987.87770293158
0.977935791015625	0.0058795166015625	3988.32020793046
0.98236083984375	0.0059735107421875	3988.76271292934
0.986785888671875	0.00607025146484375	3989.20521792823
0.9912109375	0.0061553955078125	3989.64772292711
0.995635986328125	0.0062469482421875	3990.09022792599
1.00006103515625	0.006341552734375	3990.53273292487
0.995635986328125	0.0055389404296875	3990.97523792376
0.9912109375	0.00483642578125	3991.41774292264
0.986785888671875	0.00420745849609375	3991.86024792152
0.98236083984375	0.00363861083984375	3992.3027529204
0.977935791015625	0.00311981201171875	3992.74525791929
0.9735107421875	0.0026458740234375	3993.18776291817
0.969085693359375	0.002208251953125	3993.63026791705
0.96466064453125	0.00180206298828125	3994.07277291594
0.960235595703125	0.00142486572265625	3994.51527791482
0.955810546875	0.00107391357421875	3994.9577829137
0.951385498046875	0.00074615478515625	3995.40028791258
0.94696044921875	0.000439697265625	3995.84279291147
0.942535400390625	0.000153656005859375	3996.28529791035
0.9381103515625	-0.000114166259765625	3996.72780290923
0.933685302734375	-0.000367950439453125	3997.17030790812
0.92926025390625	-0.0006024169921875	3997.612812907
0.924835205078125	-0.00082275390625	3998.05531790588
0.92041015625	-0.0010296630859375	3998.49782290476
0.915985107421875	-0.00122314453125	3998.94032790365
0.91156005859375	-0.001405029296875	3999.38283290253
0.907135009765625	-0.00157623291015625	3999.82533790141
0.9027099609375	-0.00173583984375	4000.26784290029
0.898284912109375	-0.001885986328125	4000.71034789918
0.89385986328125	-0.00202728271484375	4001.15285289806
0.889434814453125	-0.0021588134765625	4001.59535789694
0.885009765625	-0.00228179931640625	4002.03786289583
0.880584716796875	-0.002396240234375	4002.48036789471
0.87615966796875	-0.00250274658203125	4002.92287289359
0.871734619140625	-0.0026031494140625	4003.36537789247
0.8673095703125	-0.00269622802734375	4003.80788289136
0.862884521484375	-0.0027825927734375	4004.25038789024
0.85845947265625	-0.0028607177734375	4004.69289288912
0.854034423828125	-0.0029345703125	4005.13539788801
0.849609375	-0.0030029296875	4005.57790288689
0.845184326171875	-0.0030657958984375	4006.02040788577
0.84075927734375	-0.0031231689453125	4006.46291288465
0.836334228515625	-0.00317626953125	4006.90541788354
0.8319091796875	-0.00322357177734375	4007.34792288242
0.827484130859375	-0.0032666015625	4007.7904278813
0.82305908203125	-0.0033062744140625	4008.23293288018
0.818634033203125	-0.00334197998046875	4008.67543787907
0.814208984375	-0.00337432861328125	4009.11794287795
0.809783935546875	-0.00340057373046875	4009.56044787683
0.80535888671875	-0.0034246826171875	4010.00295287572
0.800933837890625	-0.0034454345703125	4010.4454578746
0.7965087890625	-0.00346435546875	4010.88796287348
0.792083740234375	-0.003480224609375	4011.33046787236
0.78765869140625	-0.00349273681640625	4011.77297287125
0.783233642578125	-0.00350311279296875	4012.21547787013
0.77880859375	-0.0035113525390625	4012.65798286901
0.774383544921875	-0.00351837158203125	4013.1004878679
0.76995849609375	-0.003524169921875	4013.54299286678
0.765533447265625	-0.0035272216796875	4013.98549786566
0.7611083984375	-0.00352935791015625	4014.42800286454
0.756683349609375	-0.00352996826171875	4014.87050786343
0.75225830078125	-0.0035308837890625	4015.31301286231
0.747833251953125	-0.00352935791015625	4015.75551786119
0.743408203125	-0.00352691650390625	4016.19802286007
0.738983154296875	-0.003521728515625	4016.64052785896
0.73455810546875	-0.0035186767578125	4017.08303285784
0.730133056640625	-0.00351531982421875	4017.52553785672
0.7257080078125	-0.0035113525390625	4017.96804285561
0.721282958984375	-0.00350738525390625	4018.41054785449
0.71685791015625	-0.00350311279296875	4018.85305285337
0.712432861328125	-0.00349761962890625	4019.29555785225
0.7080078125	-0.003492431640625	4019.73806285114
0.703582763671875	-0.00348663330078125	4020.18056785002
0.69915771484375	-0.00348114013671875	4020.6230728489
0.694732666015625	-0.00347625732421875	4021.06557784779
0.6903076171875	-0.0034716796875	4021.50808284667
0.685882568359375	-0.00346649169921875	4021.95058784555
0.68145751953125	-0.00346221923828125	4022.39309284443
0.677032470703125	-0.00345855712890625	4022.83559784332
0.672607421875	-0.00345458984375	4023.2781028422
0.668182373046875	-0.003450927734375	4023.72060784108
0.66375732421875	-0.00344696044921875	4024.16311283996
0.659332275390625	-0.0034442138671875	4024.60561783885
0.6549072265625	-0.003441162109375	4025.04812283773
0.650482177734375	-0.00343902587890625	4025.49062783661
0.64605712890625	-0.00343719482421875	4025.9331328355
0.641632080078125	-0.00343505859375	4026.37563783438
0.63720703125	-0.00343414306640625	4026.81814283326
0.632781982421875	-0.00343292236328125	4027.26064783214
0.62835693359375	-0.00343231201171875	4027.70315283103
0.623931884765625	-0.00343658447265625	4028.14565782991
0.6195068359375	-0.003436279296875	4028.58816282879
0.615081787109375	-0.00343597412109375	4029.03066782768
0.61065673828125	-0.00343658447265625	4029.47317282656
0.606231689453125	-0.00343841552734375	4029.91567782544
0.601806640625	-0.00343994140625	4030.35818282432
0.597381591796875	-0.0034423828125	4030.80068782321
0.59295654296875	-0.00344482421875	4031.24319282209
0.588531494140625	-0.0034478759765625	4031.68569782097
0.5841064453125	-0.00344970703125	4032.12820281985
0.579681396484375	-0.00345458984375	4032.57070781874
0.57525634765625	-0.00345916748046875	4033.01321281762
0.570831298828125	-0.0034649658203125	4033.4557178165
0.56640625	-0.00347076416015625	4033.89822281539
0.561981201171875	-0.0034771728515625	4034.34072781427
0.55755615234375	-0.00348480224609375	4034.78323281315
0.553131103515625	-0.00349151611328125	4035.22573781203
0.5487060546875	-0.00349853515625	4035.66824281092
0.544281005859375	-0.00350616455078125	4036.1107478098
0.53985595703125	-0.003515625	4036.55325280868
0.535430908203125	-0.0035247802734375	4036.99575780757
0.531005859375	-0.00353485107421875	4037.43826280645
0.526580810546875	-0.00354522705078125	4037.88076780533
0.52215576171875	-0.00355621337890625	4038.32327280421
0.517730712890625	-0.00356719970703125	4038.7657778031
0.5133056640625	-0.0035791015625	4039.20828280198
0.508880615234375	-0.00359100341796875	4039.65078780086
0.50445556640625	-0.00360198974609375	4040.09329279975
0.500030517578125	-0.0036151123046875	4040.53579779863
0.49560546875	-0.0036279296875	4040.97830279751
0.491180419921875	-0.003641357421875	4041.42080779639
0.48675537109375	-0.00365509033203125	4041.86331279528
0.482330322265625	-0.003668212890625	4042.30581779416
0.4779052734375	-0.00368194580078125	4042.74832279304
0.473480224609375	-0.00369537353515625	4043.19082779192
0.46905517578125	-0.0037091064453125	4043.63333279081
0.464630126953125	-0.0037225341796875	4044.07583778969
0.460205078125	-0.00373687744140625	4044.51834278857
0.455780029296875	-0.0037506103515625	4044.96084778746
0.45135498046875	-0.0037640380859375	4045.40335278634
0.446929931640625	-0.00377716064453125	4045.84585778522
0.4425048828125	-0.003790283203125	4046.2883627841
0.438079833984375	-0.0038031005859375	4046.73086778299
0.43365478515625	-0.00381500244140625	4047.17337278187
0.429229736328125	-0.00382659912109375	4047.61587778075
0.4248046875	-0.00383819580078125	4048.05838277963
0.420379638671875	-0.003848876953125	4048.50088777852
0.41595458984375	-0.00385894775390625	4048.9433927774
0.411529541015625	-0.003868408203125	4049.38589777628
0.4071044921875	-0.0038775634765625	4049.82840277517
0.402679443359375	-0.00388580322265625	4050.27090777405
0.39825439453125	-0.00389312744140625	4050.71341277293
0.393829345703125	-0.0039007568359375	4051.15591777181
0.389404296875	-0.00390533447265625	4051.5984227707
0.384979248046875	-0.0039111328125	4052.04092776958
0.38055419921875	-0.00391571044921875	4052.48343276846
0.376129150390625	-0.00391937255859375	4052.92593776735
0.3717041015625	-0.0039239501953125	4053.36844276623
0.367279052734375	-0.003927001953125	4053.81094776511
0.36285400390625	-0.00392822265625	4054.25345276399
0.358428955078125	-0.003929443359375	4054.69595776288
0.35400390625	-0.0039306640625	4055.13846276176
0.349578857421875	-0.003929443359375	4055.58096776064
0.34515380859375	-0.0039300537109375	4056.02347275953
0.340728759765625	-0.00392974853515625	4056.46597775841
0.3363037109375	-0.00392852783203125	4056.90848275729
0.331878662109375	-0.003927001953125	4057.35098775617
0.32745361328125	-0.00392608642578125	4057.79349275506
0.323028564453125	-0.0039251708984375	4058.23599775394
0.318603515625	-0.00392242431640625	4058.67850275282
0.314178466796875	-0.003919677734375	4059.1210077517
0.30975341796875	-0.00391998291015625	4059.56351275059
0.305328369140625	-0.00391632080078125	4060.00601774947
0.3009033203125	-0.0039141845703125	4060.44852274835
0.296478271484375	-0.00391021728515625	4060.89102774724
0.29205322265625	-0.0039068603515625	4061.33353274612
0.287628173828125	-0.00390289306640625	4061.776037745
0.283203125	-0.00389862060546875	4062.21854274388
0.278778076171875	-0.003895263671875	4062.66104774277
0.27435302734375	-0.00389190673828125	4063.10355274165
0.269927978515625	-0.00388763427734375	4063.54605774053
0.2655029296875	-0.00388397216796875	4063.98856273942
0.261077880859375	-0.003880615234375	4064.4310677383
0.25665283203125	-0.003876953125	4064.87357273718
0.252227783203125	-0.00387359619140625	4065.31607773606
0.247802734375	-0.00387054443359375	4065.75858273495
0.243377685546875	-0.00386688232421875	4066.20108773383
0.23895263671875	-0.0038629150390625	4066.64359273271
0.234527587890625	-0.00386016845703125	4067.08609773159
0.2301025390625	-0.003856201171875	4067.52860273048
0.225677490234375	-0.00385345458984375	4067.97110772936
0.22125244140625	-0.00385040283203125	4068.41361272824
0.216827392578125	-0.00384674072265625	4068.85611772713
0.21240234375	-0.00384429931640625	4069.29862272601
0.207977294921875	-0.003841552734375	4069.74112772489
0.20355224609375	-0.0038397216796875	4070.18363272377
0.199127197265625	-0.00383697509765625	4070.62613772266
0.1947021484375	-0.00383392333984375	4071.06864272154
0.190277099609375	-0.00383209228515625	4071.51114772042
0.18585205078125	-0.00383026123046875	4071.95365271931
0.181427001953125	-0.0038287353515625	4072.39615771819
0.177001953125	-0.0038275146484375	4072.83866271707
0.172576904296875	-0.00382598876953125	4073.28116771595
0.16815185546875	-0.0038250732421875	4073.72367271484
0.163726806640625	-0.003824462890625	4074.16617771372
0.1593017578125	-0.003824462890625	4074.6086827126
0.154876708984375	-0.0038238525390625	4075.05118771148
0.15045166015625	-0.003824462890625	4075.49369271037
0.146026611328125	-0.00382476806640625	4075.93619770925
0.1416015625	-0.00382659912109375	4076.37870270813
0.137176513671875	-0.003828125	4076.82120770702
0.13275146484375	-0.00382965087890625	4077.2637127059
0.128326416015625	-0.003831787109375	4077.70621770478
0.1239013671875	-0.0038348388671875	4078.14872270366
0.119476318359375	-0.003837890625	4078.59122770255
0.11505126953125	-0.00384002685546875	4079.03373270143
0.110626220703125	-0.00384490966796875	4079.47623770031
0.106201171875	-0.00384979248046875	4079.9187426992
0.101776123046875	-0.00385589599609375	4080.36124769808
0.09735107421875	-0.0038616943359375	4080.80375269696
0.092926025390625	-0.003868408203125	4081.24625769584
0.0885009765625	-0.00387603759765625	4081.68876269473
0.084075927734375	-0.0038836669921875	4082.13126769361
0.07965087890625	-0.00389190673828125	4082.57377269249
0.075225830078125	-0.00389923095703125	4083.01627769137
0.07080078125	-0.00390960693359375	4083.45878269026
0.066375732421875	-0.00391937255859375	4083.90128768914
0.06195068359375	-0.00392974853515625	4084.34379268802
0.057525634765625	-0.0039410400390625	4084.78629768691
0.0531005859375	-0.00395294189453125	4085.22880268579
0.048675537109375	-0.00396575927734375	4085.67130768467
0.04425048828125	-0.003978271484375	4086.11381268355
0.039825439453125	-0.0039923095703125	4086.55631768244
0.035400390625	-0.00400604248046875	4086.99882268132
0.030975341796875	-0.00402069091796875	4087.4413276802
0.02655029296875	-0.00403564453125	4087.88383267909
0.022125244140625	-0.0040521240234375	4088.32633767797
0.0177001953125	-0.00406951904296875	4088.76884267685
0.013275146484375	-0.0040869140625	4089.21134767573
0.00885009765625	-0.0041046142578125	4089.65385267462
0.004425048828125	-0.00412445068359375	4090.0963576735
0	-0.00414459228515625	4090.53886267238
0.004425048828125	-0.003333740234375	4090.98136767126
0.00885009765625	-0.00265716552734375	4091.42387267015
0.013275146484375	-0.0020806884765625	4091.86637766903
0.0177001953125	-0.00158447265625	4092.30888266791
0.022125244140625	-0.00115325927734375	4092.7513876668
0.02655029296875	-0.0007757568359375	4093.19389266568
0.030975341796875	-0.00044268798828125	4093.63639766456
0.035400390625	-0.00014764404296875	4094.07890266344
0.039825439453125	0.00011407470703125	4094.52140766233
0.04425048828125	0.000348876953125	4094.96391266121
0.048675537109375	0.00055877685546875	4095.40641766009
0.0531005859375	0.00074859619140625	4095.84892265898
0.057525634765625	0.00091827392578125	4096.29142765786
0.06195068359375	0.00107086181640625	4096.73393265674
0.066375732421875	0.0012091064453125	4097.17643765562
0.07080078125	0.001334228515625	4097.61894265451
0.075225830078125	0.00144775390625	4098.06144765339
0.07965087890625	0.00155029296875	4098.50395265227
0.084075927734375	0.0016455078125	4098.94645765115
0.0885009765625	0.00173248291015625	4099.38896265004
0.092926025390625	0.0018133544921875	4099.83146764892
0.09735107421875	0.0018878173828125	4100.2739726478
0.101776123046875	0.00195648193359375	4100.71647764669
0.106201171875	0.00201934814453125	4101.15898264557
0.110626220703125	0.00207733154296875	4101.60148764445
0.11505126953125	0.00213165283203125	4102.04399264333
0.119476318359375	0.00217987060546875	4102.48649764222
0.1239013671875	0.0022271728515625	4102.9290026411
0.128326416015625	0.0022711181640625	4103.37150763998
0.13275146484375	0.00231201171875	4103.81401263887
0.137176513671875	0.00235076904296875	4104.25651763775
0.1416015625	0.00238677978515625	4104.69902263663
0.146026611328125	0.00242095947265625	4105.14152763551
0.15045166015625	0.00245330810546875	4105.5840326344
0.154876708984375	0.0024835205078125	4106.02653763328
0.1593017578125	0.00251190185546875	4106.46904263216
0.163726806640625	0.00253936767578125	4106.91154763105
0.16815185546875	0.00256622314453125	4107.35405262993
0.172576904296875	0.002591552734375	4107.79655762881
0.177001953125	0.0026153564453125	4108.23906262769
0.181427001953125	0.0026385498046875	4108.68156762658
0.18585205078125	0.0026605224609375	4109.12407262546
0.190277099609375	0.00268218994140625	4109.56657762434
0.1947021484375	0.0027032470703125	4110.00908262322
0.199127197265625	0.00272308349609375	4110.45158762211
0.20355224609375	0.00274261474609375	4110.89409262099
0.207977294921875	0.002762451171875	4111.33659761987
0.21240234375	0.00278167724609375	4111.77910261876
0.216827392578125	0.00280029296875	4112.22160761764
0.22125244140625	0.00281768798828125	4112.66411261652
0.225677490234375	0.00283477783203125	4113.1066176154
0.2301025390625	0.00285247802734375	4113.54912261429
0.234527587890625	0.00286865234375	4113.99162761317
0.23895263671875	0.00288482666015625	4114.43413261205
0.243377685546875	0.0029010009765625	4114.87663761094
0.247802734375	0.00291656494140625	4115.31914260982
0.252227783203125	0.00293243408203125	4115.7616476087
0.25665283203125	0.0029486083984375	4116.20415260758
0.261077880859375	0.00296356201171875	4116.64665760647
0.2655029296875	0.002978515625	4117.08916260535
0.269927978515625	0.00299407958984375	4117.53166760423
0.27435302734375	0.003009033203125	4117.97417260311
0.278778076171875	0.0030242919921875	4118.416677602
0.283203125	0.00303924560546875	4118.85918260088
0.287628173828125	0.00305450439453125	4119.30168759976
0.29205322265625	0.0030694580078125	4119.74419259865
0.296478271484375	0.003084716796875	4120.18669759753
0.3009033203125	0.00309967041015625	4120.62920259641
0.305328369140625	0.0031146240234375	4121.07170759529
0.30975341796875	0.0031304931640625	4121.51421259418
0.314178466796875	0.00314849853515625	4121.95671759306
0.318603515625	0.00316314697265625	4122.39922259194
0.323028564453125	0.00317779541015625	4122.84172759083
0.32745361328125	0.003193359375	4123.28423258971
0.331878662109375	0.00320831298828125	4123.72673758859
0.3363037109375	0.00322357177734375	4124.16924258747
0.340728759765625	0.00323883056640625	4124.61174758636
0.34515380859375	0.00325408935546875	4125.05425258524
0.349578857421875	0.00326934814453125	4125.49675758412
0.35400390625	0.00328277587890625	4125.93926258301
0.358428955078125	0.00329864501953125	4126.38176758189
0.36285400390625	0.00331390380859375	4126.82427258077
0.367279052734375	0.00332977294921875	4127.26677757965
0.3717041015625	0.0033453369140625	4127.70928257854
0.376129150390625	0.00336090087890625	4128.15178757742
0.38055419921875	0.00337615966796875	4128.5942925763
0.384979248046875	0.0033917236328125	4129.03679757518
0.389404296875	0.003406982421875	4129.47930257407
0.393829345703125	0.0034210205078125	4129.92180757295
0.39825439453125	0.00343597412109375	4130.36431257183
0.402679443359375	0.0034503173828125	4130.80681757072
0.4071044921875	0.00346527099609375	4131.2493225696
0.411529541015625	0.00347991943359375	4131.69182756848
0.41595458984375	0.0034930419921875	4132.13433256736
0.420379638671875	0.00350677490234375	4132.57683756625
0.4248046875	0.0035205078125	4133.01934256513
0.429229736328125	0.003533935546875	4133.46184756401
0.43365478515625	0.00354736328125	4133.90435256289
0.438079833984375	0.0035601806640625	4134.34685756178
0.4425048828125	0.00357269287109375	4134.78936256066
0.446929931640625	0.003585205078125	4135.23186755954
0.45135498046875	0.00359771728515625	4135.67437255843
0.455780029296875	0.003609619140625	4136.11687755731
0.460205078125	0.0036212158203125	4136.55938255619
0.464630126953125	0.0036328125	4137.00188755507
0.46905517578125	0.003643798828125	4137.44439255396
0.473480224609375	0.00365570068359375	4137.88689755284
0.4779052734375	0.0036669921875	4138.32940255172
0.482330322265625	0.00367828369140625	4138.77190755061
0.48675537109375	0.0036883544921875	4139.21441254949
0.491180419921875	0.0036993408203125	4139.65691754837
0.49560546875	0.0037091064453125	4140.09942254725
0.500030517578125	0.0037188720703125	4140.54192754614
0.50445556640625	0.0037286376953125	4140.98443254502
0.508880615234375	0.00373748779296875	4141.4269375439
0.5133056640625	0.00374542236328125	4141.86944254278
0.517730712890625	0.003753662109375	4142.31194754167
0.52215576171875	0.0037615966796875	4142.75445254055
0.526580810546875	0.00376953125	4143.19695753943
0.531005859375	0.00377593994140625	4143.63946253832
0.535430908203125	0.0037823486328125	4144.0819675372
0.53985595703125	0.0037884521484375	4144.52447253608
0.544281005859375	0.0037957763671875	4144.96697753496
0.5487060546875	0.00380035400390625	4145.40948253385
0.553131103515625	0.00380584716796875	4145.85198753273
0.55755615234375	0.00381072998046875	4146.29449253161
0.561981201171875	0.00381591796875	4146.7369975305
0.56640625	0.0038201904296875	4147.17950252938
0.570831298828125	0.00382476806640625	4147.62200752826
0.57525634765625	0.00382843017578125	4148.06451252714
0.579681396484375	0.0038330078125	4148.50701752603
0.5841064453125	0.00383575439453125	4148.94952252491
0.588531494140625	0.0038372802734375	4149.39202752379
0.59295654296875	0.0038409423828125	4149.83453252267
0.597381591796875	0.0038433837890625	4150.27703752156
0.601806640625	0.003846435546875	4150.71954252044
0.606231689453125	0.003848876953125	4151.16204751932
0.61065673828125	0.0038519287109375	4151.60455251821
0.615081787109375	0.00385406494140625	4152.04705751709
0.6195068359375	0.00385589599609375	4152.48956251597
0.623931884765625	0.003858642578125	4152.93206751485
0.62835693359375	0.00386444091796875	4153.37457251374
0.632781982421875	0.0038653564453125	4153.81707751262
0.63720703125	0.0038671875	4154.2595825115
0.641632080078125	0.00386871337890625	4154.70208751039
0.64605712890625	0.00386993408203125	4155.14459250927
0.650482177734375	0.00387115478515625	4155.58709750815
0.6549072265625	0.0038720703125	4156.02960250703
0.659332275390625	0.0038739013671875	4156.47210750592
0.66375732421875	0.00387542724609375	4156.9146125048
0.668182373046875	0.00387664794921875	4157.35711750368
0.672607421875	0.00387786865234375	4157.79962250257
0.677032470703125	0.00387908935546875	4158.24212750145
0.68145751953125	0.0038800048828125	4158.68463250033
0.685882568359375	0.0038818359375	4159.12713749921
0.6903076171875	0.0038836669921875	4159.5696424981
0.694732666015625	0.00388458251953125	4160.01214749698
0.69915771484375	0.0038861083984375	4160.45465249586
0.703582763671875	0.00388671875	4160.89715749474
0.7080078125	0.00388824462890625	4161.33966249363
0.712432861328125	0.003890380859375	4161.78216749251
0.71685791015625	0.00389251708984375	4162.22467249139
0.721282958984375	0.00389404296875	4162.66717749028
0.7257080078125	0.00389556884765625	4163.10968248916
0.730133056640625	0.0038970947265625	4163.55218748804
0.73455810546875	0.00389923095703125	4163.99469248692
0.738983154296875	0.0039019775390625	4164.43719748581
0.743408203125	0.0039019775390625	4164.87970248469
0.747833251953125	0.00390533447265625	4165.32220748357
0.75225830078125	0.00390777587890625	4165.76471248246
0.756683349609375	0.0039117431640625	4166.20721748134
0.7611083984375	0.00391632080078125	4166.64972248022
0.765533447265625	0.00392059326171875	4167.0922274791
0.76995849609375	0.0039251708984375	4167.53473247799
0.774383544921875	0.0039300537109375	4167.97723747687
0.77880859375	0.00393585205078125	4168.41974247575
0.783233642578125	0.0039410400390625	4168.86224747463
0.78765869140625	0.0039483642578125	4169.30475247352
0.792083740234375	0.00395660400390625	4169.7472574724
0.7965087890625	0.0039654541015625	4170.18976247128
0.800933837890625	0.003974609375	4170.63226747017
0.80535888671875	0.00398590087890625	4171.07477246905
0.809783935546875	0.00399749755859375	4171.51727746793
0.814208984375	0.00400970458984375	4171.95978246681
0.818634033203125	0.00402435302734375	4172.4022874657
0.82305908203125	0.00403900146484375	4172.84479246458
0.827484130859375	0.00405609130859375	4173.28729746346
0.8319091796875	0.00407440185546875	4173.72980246235
0.836334228515625	0.00409423828125	4174.17230746123
0.84075927734375	0.0041162109375	4174.61481246011
0.845184326171875	0.00413970947265625	4175.05731745899
0.849609375	0.00416412353515625	4175.49982245788
0.854034423828125	0.00419158935546875	4175.94232745676
0.85845947265625	0.00422119140625	4176.38483245564
0.862884521484375	0.004251708984375	4176.82733745452
0.8673095703125	0.0042852783203125	4177.26984245341
0.871734619140625	0.00432098388671875	4177.71234745229
0.87615966796875	0.00435821533203125	4178.15485245117
0.880584716796875	0.00439849853515625	4178.59735745006
0.885009765625	0.004442138671875	4179.03986244894
0.889434814453125	0.00448760986328125	4179.48236744782
0.89385986328125	0.0045355224609375	4179.9248724467
0.898284912109375	0.00458526611328125	4180.36737744559
0.9027099609375	0.00463775634765625	4180.80988244447
0.907135009765625	0.0046929931640625	4181.25238744335
0.91156005859375	0.0047509765625	4181.69489244223
0.915985107421875	0.0048114013671875	4182.13739744112
0.92041015625	0.00487335205078125	4182.57990244
0.924835205078125	0.00493865966796875	4183.02240743888
0.92926025390625	0.00500640869140625	4183.46491243777
0.933685302734375	0.0050775146484375	4183.90741743665
0.9381103515625	0.0051519775390625	4184.34992243553
0.942535400390625	0.0052252197265625	4184.79242743442
0.94696044921875	0.00530181884765625	4185.2349324333
0.951385498046875	0.00538055419921875	4185.67743743218
0.955810546875	0.00546142578125	4186.11994243106
0.960235595703125	0.005543212890625	4186.56244742995
0.96466064453125	0.0056268310546875	4187.00495242883
0.969085693359375	0.00571258544921875	4187.44745742771
0.9735107421875	0.00579925537109375	4187.88996242659
0.977935791015625	0.00588531494140625	4188.33246742548
0.98236083984375	0.005975341796875	4188.77497242436
0.986785888671875	0.006065673828125	4189.21747742324
0.9912109375	0.006146240234375	4189.65998242213
0.995635986328125	0.006231689453125	4190.10248742101
1.00006103515625	0.0063201904296875	4190.54499241989
0.995635986328125	0.005517578125	4190.98749741877
0.9912109375	0.0048150634765625	4191.43000241766
0.986785888671875	0.004188232421875	4191.87250741654
0.98236083984375	0.003621826171875	4192.31501241542
0.977935791015625	0.0031060791015625	4192.7575174143
0.9735107421875	0.0026348876953125	4193.20002241319
0.969085693359375	0.00220123291015625	4193.64252741207
0.96466064453125	0.0017987060546875	4194.08503241095
0.960235595703125	0.001424560546875	4194.52753740984
0.955810546875	0.0010772705078125	4194.97004240872
0.951385498046875	0.00075347900390625	4195.4125474076
0.94696044921875	0.00045050048828125	4195.85505240648
0.942535400390625	0.00016741943359375	4196.29755740537
0.9381103515625	-9.66796875E-05	4196.74006240425
0.933685302734375	-0.000347137451171875	4197.18256740313
0.92926025390625	-0.0005780029296875	4197.62507240202
0.924835205078125	-0.000794677734375	4198.0675774009
0.92041015625	-0.00099884033203125	4198.51008239978
0.915985107421875	-0.0011895751953125	4198.95258739866
0.91156005859375	-0.001368408203125	4199.39509239755
0.907135009765625	-0.00153594970703125	4199.83759739643
0.9027099609375	-0.00169342041015625	4200.28010239531
0.898284912109375	-0.0018402099609375	4200.72260739419
0.89385986328125	-0.001978759765625	4201.16511239308
0.889434814453125	-0.00210723876953125	4201.60761739196
0.885009765625	-0.0022283935546875	4202.05012239084
0.880584716796875	-0.0023406982421875	4202.49262738973
0.87615966796875	-0.0024456787109375	4202.93513238861
0.871734619140625	-0.00254364013671875	4203.37763738749
0.8673095703125	-0.00263519287109375	4203.82014238637
0.862884521484375	-0.0027197265625	4204.26264738526
0.85845947265625	-0.00279693603515625	4204.70515238414
0.854034423828125	-0.00286865234375	4205.14765738302
0.849609375	-0.002935791015625	4205.59016238191
0.845184326171875	-0.002996826171875	4206.03266738079
0.84075927734375	-0.00305267333984375	4206.47517237967
0.836334228515625	-0.003104248046875	4206.91767737855
0.8319091796875	-0.0031512451171875	4207.36018237744
0.827484130859375	-0.00319427490234375	4207.80268737632
0.82305908203125	-0.00323272705078125	4208.2451923752
0.818634033203125	-0.003267822265625	4208.68769737409
0.814208984375	-0.00329925537109375	4209.13020237297
0.809783935546875	-0.00332855224609375	4209.57270737185
0.80535888671875	-0.0033526611328125	4210.01521237073
0.800933837890625	-0.0033740234375	4210.45771736962
0.7965087890625	-0.00339202880859375	4210.9002223685
0.792083740234375	-0.00340789794921875	4211.34272736738
0.78765869140625	-0.00342193603515625	4211.78523236626
0.783233642578125	-0.0034332275390625	4212.22773736515
0.77880859375	-0.003441162109375	4212.67024236403
0.774383544921875	-0.00344818115234375	4213.11274736291
0.76995849609375	-0.00345428466796875	4213.5552523618
0.765533447265625	-0.003458251953125	4213.99775736068
0.7611083984375	-0.0034613037109375	4214.44026235956
0.756683349609375	-0.00346343994140625	4214.88276735844
0.75225830078125	-0.00346405029296875	4215.32527235733
0.747833251953125	-0.00346343994140625	4215.76777735621
0.743408203125	-0.0034619140625	4216.21028235509
0.738983154296875	-0.00345794677734375	4216.65278735398
0.73455810546875	-0.0034564208984375	4217.09529235286
0.730133056640625	-0.003453369140625	4217.53779735174
0.7257080078125	-0.00345001220703125	4217.98030235062
0.721282958984375	-0.0034466552734375	4218.42280734951
0.71685791015625	-0.00344390869140625	4218.86531234839
0.712432861328125	-0.00343994140625	4219.30781734727
0.7080078125	-0.0034356689453125	4219.75032234615
0.703582763671875	-0.003431396484375	4220.19282734504
0.69915771484375	-0.00342620849609375	4220.63533234392
0.694732666015625	-0.0034222412109375	4221.0778373428
0.6903076171875	-0.0034185791015625	4221.52034234169
0.685882568359375	-0.00341522216796875	4221.96284734057
0.68145751953125	-0.00341217041015625	4222.40535233945
0.677032470703125	-0.003408203125	4222.84785733833
0.672607421875	-0.00340545654296875	4223.29036233722
0.668182373046875	-0.0034027099609375	4223.7328673361
0.66375732421875	-0.003399658203125	4224.17537233498
0.659332275390625	-0.0033978271484375	4224.61787733387
0.6549072265625	-0.0033966064453125	4225.06038233275
0.650482177734375	-0.00339385986328125	4225.50288733163
0.64605712890625	-0.0033935546875	4225.94539233051
0.641632080078125	-0.003392333984375	4226.3878973294
0.63720703125	-0.003392333984375	4226.83040232828
0.632781982421875	-0.0033917236328125	4227.27290732716
0.62835693359375	-0.0033917236328125	4227.71541232604
0.623931884765625	-0.0033966064453125	4228.15791732493
0.6195068359375	-0.003397216796875	4228.60042232381
0.615081787109375	-0.00339813232421875	4229.04292732269
0.61065673828125	-0.00339935302734375	4229.48543232158
0.606231689453125	-0.00340087890625	4229.92793732046
0.601806640625	-0.00340362548828125	4230.37044231934
0.597381591796875	-0.0034063720703125	4230.81294731822
0.59295654296875	-0.003409423828125	4231.25545231711
0.588531494140625	-0.00341400146484375	4231.69795731599
0.5841064453125	-0.00341583251953125	4232.14046231487
0.579681396484375	-0.0034210205078125	4232.58296731376
0.57525634765625	-0.00342620849609375	4233.02547231264
0.570831298828125	-0.00343231201171875	4233.46797731152
0.56640625	-0.00343902587890625	4233.9104823104
0.561981201171875	-0.0034454345703125	4234.35298730929
0.55755615234375	-0.003453369140625	4234.79549230817
0.553131103515625	-0.003460693359375	4235.23799730705
0.5487060546875	-0.00346923828125	4235.68050230594
0.544281005859375	-0.0034771728515625	4236.12300730482
0.53985595703125	-0.0034869384765625	4236.5655123037
0.535430908203125	-0.00349700927734375	4237.00801730258
0.531005859375	-0.00350738525390625	4237.45052230147
0.526580810546875	-0.0035186767578125	4237.89302730035
0.52215576171875	-0.00352996826171875	4238.33553229923
0.517730712890625	-0.00354156494140625	4238.77803729811
0.5133056640625	-0.00355377197265625	4239.220542297
0.508880615234375	-0.00356658935546875	4239.66304729588
0.50445556640625	-0.0035797119140625	4240.10555229476
0.500030517578125	-0.00359283447265625	4240.54805729364
0.49560546875	-0.00360626220703125	4240.99056229253
0.491180419921875	-0.0036199951171875	4241.43306729141
0.48675537109375	-0.0036346435546875	4241.87557229029
0.482330322265625	-0.003648681640625	4242.31807728918
0.4779052734375	-0.00366302490234375	4242.76058228806
0.473480224609375	-0.00367706298828125	4243.20308728694
0.46905517578125	-0.00369232177734375	4243.64559228582
0.464630126953125	-0.0037060546875	4244.08809728471
0.460205078125	-0.003720703125	4244.53060228359
0.455780029296875	-0.0037353515625	4244.97310728247
0.45135498046875	-0.0037493896484375	4245.41561228136
0.446929931640625	-0.00376373291015625	4245.85811728024
0.4425048828125	-0.0037774658203125	4246.30062227912
0.438079833984375	-0.0037908935546875	4246.743127278
0.43365478515625	-0.00380401611328125	4247.18563227689
0.429229736328125	-0.00381622314453125	4247.62813727577
0.4248046875	-0.00382843017578125	4248.07064227465
0.420379638671875	-0.0038397216796875	4248.51314727354
0.41595458984375	-0.0038507080078125	4248.95565227242
0.411529541015625	-0.003861083984375	4249.3981572713
0.4071044921875	-0.00386993408203125	4249.84066227018
0.402679443359375	-0.00387939453125	4250.28316726907
0.39825439453125	-0.00388763427734375	4250.72567226795
0.393829345703125	-0.003895263671875	4251.16817726683
0.389404296875	-0.003900146484375	4251.61068226571
0.384979248046875	-0.00390594482421875	4252.0531872646
0.38055419921875	-0.0039111328125	4252.49569226348
0.376129150390625	-0.00391632080078125	4252.93819726236
0.3717041015625	-0.00391937255859375	4253.38070226125
0.367279052734375	-0.0039227294921875	4253.82320726013
0.36285400390625	-0.00392486572265625	4254.26571225901
0.358428955078125	-0.003927001953125	4254.70821725789
0.35400390625	-0.00392822265625	4255.15072225678
0.349578857421875	-0.00392669677734375	4255.59322725566
0.34515380859375	-0.0039276123046875	4256.03573225454
0.340728759765625	-0.00392730712890625	4256.47823725343
0.3363037109375	-0.00392669677734375	4256.92074225231
0.331878662109375	-0.0039251708984375	4257.36324725119
0.32745361328125	-0.00392364501953125	4257.80575225007
0.323028564453125	-0.00392242431640625	4258.24825724896
0.318603515625	-0.0039202880859375	4258.69076224784
0.314178466796875	-0.00391754150390625	4259.13326724672
0.30975341796875	-0.003917236328125	4259.5757722456
0.305328369140625	-0.00391326904296875	4260.01827724449
0.3009033203125	-0.003909912109375	4260.46078224337
0.296478271484375	-0.00390625	4260.90328724225
0.29205322265625	-0.00390289306640625	4261.34579224114
0.287628173828125	-0.0038983154296875	4261.78829724002
0.283203125	-0.0038946533203125	4262.2308022389
0.278778076171875	-0.003890380859375	4262.67330723778
0.27435302734375	-0.00388671875	4263.11581223667
0.269927978515625	-0.0038818359375	4263.55831723555
0.2655029296875	-0.003878173828125	4264.00082223443
0.261077880859375	-0.00387359619140625	4264.44332723332
0.25665283203125	-0.00386993408203125	4264.8858322322
0.252227783203125	-0.00386627197265625	4265.32833723108
0.247802734375	-0.0038623046875	4265.77084222996
0.243377685546875	-0.00385833740234375	4266.21334722885
0.23895263671875	-0.00385467529296875	4266.65585222773
0.234527587890625	-0.003851318359375	4267.09835722661
0.2301025390625	-0.0038470458984375	4267.5408622255
0.225677490234375	-0.003843994140625	4267.98336722438
0.22125244140625	-0.00384033203125	4268.42587222326
0.216827392578125	-0.00383697509765625	4268.86837722214
0.21240234375	-0.00383331298828125	4269.31088222103
0.207977294921875	-0.0038299560546875	4269.75338721991
0.20355224609375	-0.0038275146484375	4270.19589221879
0.199127197265625	-0.00382537841796875	4270.63839721767
0.1947021484375	-0.00382293701171875	4271.08090221656
0.190277099609375	-0.003819580078125	4271.52340721544
0.18585205078125	-0.00381744384765625	4271.96591221432
0.181427001953125	-0.00381500244140625	4272.40841721321
0.177001953125	-0.0038134765625	4272.85092221209
0.172576904296875	-0.0038116455078125	4273.29342721097
0.16815185546875	-0.00380950927734375	4273.73593220985
0.163726806640625	-0.00380859375	4274.17843720874
0.1593017578125	-0.0038079833984375	4274.62094220762
0.154876708984375	-0.00380645751953125	4275.0634472065
0.15045166015625	-0.00380645751953125	4275.50595220539
0.146026611328125	-0.0038067626953125	4275.94845720427
0.1416015625	-0.003807373046875	4276.39096220315
0.137176513671875	-0.0038079833984375	4276.83346720203
0.13275146484375	-0.00380950927734375	4277.27597220092
0.128326416015625	-0.00381103515625	4277.7184771998
0.1239013671875	-0.0038134765625	4278.16098219868
0.119476318359375	-0.00381591796875	4278.60348719756
0.11505126953125	-0.0038165283203125	4279.04599219645
0.110626220703125	-0.00382049560546875	4279.48849719533
0.106201171875	-0.00382537841796875	4279.93100219421
0.101776123046875	-0.00383026123046875	4280.3735071931
0.09735107421875	-0.00383514404296875	4280.81601219198
0.092926025390625	-0.00384124755859375	4281.25851719086
0.0885009765625	-0.00384674072265625	4281.70102218974
0.084075927734375	-0.0038531494140625	4282.14352718863
0.07965087890625	-0.00386077880859375	4282.58603218751
0.075225830078125	-0.00386749267578125	4283.02853718639
0.07080078125	-0.0038763427734375	4283.47104218528
0.066375732421875	-0.0038848876953125	4283.91354718416
0.06195068359375	-0.003895263671875	4284.35605218304
0.057525634765625	-0.003905029296875	4284.79855718192
0.0531005859375	-0.0039154052734375	4285.24106218081
0.048675537109375	-0.0039276123046875	4285.68356717969
0.04425048828125	-0.003939208984375	4286.12607217857
0.039825439453125	-0.003951416015625	4286.56857717746
0.035400390625	-0.00396514892578125	4287.01108217634
0.030975341796875	-0.00397979736328125	4287.45358717522
0.02655029296875	-0.0039947509765625	4287.8960921741
0.022125244140625	-0.0040106201171875	4288.33859717299
0.0177001953125	-0.0040277099609375	4288.78110217187
0.013275146484375	-0.00404541015625	4289.22360717075
0.00885009765625	-0.00406463623046875	4289.66611216963
0.004425048828125	-0.00408447265625	4290.10861716852
0	-0.00410552978515625	4290.5511221674
0.004425048828125	-0.0032952880859375	4290.99362716628
0.00885009765625	-0.00261993408203125	4291.43613216516
0.013275146484375	-0.002044677734375	4291.87863716405
0.0177001953125	-0.0015496826171875	4292.32114216293
0.022125244140625	-0.0011187744140625	4292.76364716181
0.02655029296875	-0.0007421875	4293.2061521607
0.030975341796875	-0.0004100341796875	4293.64865715958
0.035400390625	-0.000115509033203125	4294.09116215846
0.039825439453125	0.00014593505859375	4294.53366715735
0.04425048828125	0.0003798828125	4294.97617215623
0.048675537109375	0.00058990478515625	4295.41867715511
0.0531005859375	0.00077880859375	4295.86118215399
0.057525634765625	0.00094818115234375	4296.30368715288
0.06195068359375	0.0011004638671875	4296.74619215176
0.066375732421875	0.00123931884765625	4297.18869715064
0.07080078125	0.0013641357421875	4297.63120214952
0.075225830078125	0.00147735595703125	4298.07370714841
0.07965087890625	0.00157928466796875	4298.51621214729
0.084075927734375	0.0016748046875	4298.95871714617
0.0885009765625	0.00176239013671875	4299.40122214506
0.092926025390625	0.00184295654296875	4299.84372714394
0.09735107421875	0.00191741943359375	4300.28623214282
0.101776123046875	0.001986083984375	4300.7287371417
0.106201171875	0.00204925537109375	4301.17124214059
0.110626220703125	0.0021075439453125	4301.61374713947
0.11505126953125	0.00216217041015625	4302.05625213835
0.119476318359375	0.00221038818359375	4302.49875713723
0.1239013671875	0.00225677490234375	4302.94126213612
0.128326416015625	0.0023004150390625	4303.383767135
0.13275146484375	0.0023419189453125	4303.82627213388
0.137176513671875	0.00238006591796875	4304.26877713277
0.1416015625	0.00241668701171875	4304.71128213165
0.146026611328125	0.0024505615234375	4305.15378713053
0.15045166015625	0.00248291015625	4305.59629212941
0.154876708984375	0.0025128173828125	4306.0387971283
0.1593017578125	0.00254119873046875	4306.48130212718
0.163726806640625	0.00256927490234375	4306.92380712606
0.16815185546875	0.00259490966796875	4307.36631212495
0.172576904296875	0.00261993408203125	4307.80881712383
0.177001953125	0.00264404296875	4308.25132212271
0.181427001953125	0.00266693115234375	4308.69382712159
0.18585205078125	0.00268890380859375	4309.13633212048
0.190277099609375	0.0027105712890625	4309.57883711936
0.1947021484375	0.00273101806640625	4310.02134211824
0.199127197265625	0.0027508544921875	4310.46384711712
0.20355224609375	0.0027703857421875	4310.90635211601
0.207977294921875	0.00278900146484375	4311.34885711489
0.21240234375	0.00280731201171875	4311.79136211377
0.216827392578125	0.00282470703125	4312.23386711266
0.22125244140625	0.0028424072265625	4312.67637211154
0.225677490234375	0.00285980224609375	4313.11887711042
0.2301025390625	0.00287628173828125	4313.5613821093
0.234527587890625	0.00289093017578125	4314.00388710819
0.23895263671875	0.0029071044921875	4314.44639210707
0.243377685546875	0.00292327880859375	4314.88889710595
0.247802734375	0.00293792724609375	4315.33140210484
0.252227783203125	0.0029534912109375	4315.77390710372
0.25665283203125	0.0029681396484375	4316.2164121026
0.261077880859375	0.0029833984375	4316.65891710148
0.2655029296875	0.00299835205078125	4317.10142210037
0.269927978515625	0.00301300048828125	4317.54392709925
0.27435302734375	0.00302703857421875	4317.98643209813
0.278778076171875	0.0030413818359375	4318.42893709701
0.283203125	0.00305572509765625	4318.8714420959
0.287628173828125	0.0030706787109375	4319.31394709478
0.29205322265625	0.00308502197265625	4319.75645209366
0.296478271484375	0.0030999755859375	4320.19895709255
0.3009033203125	0.00311370849609375	4320.64146209143
0.305328369140625	0.0031298828125	4321.08396709031
0.30975341796875	0.00314453125	4321.52647208919
0.314178466796875	0.00316192626953125	4321.96897708808
0.318603515625	0.00317474365234375	4322.41148208696
0.323028564453125	0.0031884765625	4322.85398708584
0.32745361328125	0.00320281982421875	4323.29649208473
0.331878662109375	0.0032177734375	4323.73899708361
0.3363037109375	0.003232421875	4324.18150208249
0.340728759765625	0.00324676513671875	4324.62400708137
0.34515380859375	0.00326019287109375	4325.06651208026
0.349578857421875	0.00327484130859375	4325.50901707914
0.35400390625	0.0032867431640625	4325.95152207802
0.358428955078125	0.00330169677734375	4326.39402707691
0.36285400390625	0.00331634521484375	4326.83653207579
0.367279052734375	0.003331298828125	4327.27903707467
0.3717041015625	0.00334564208984375	4327.72154207355
0.376129150390625	0.00336029052734375	4328.16404707244
0.38055419921875	0.003375244140625	4328.60655207132
0.384979248046875	0.003389892578125	4329.0490570702
0.389404296875	0.0034039306640625	4329.49156206908
0.393829345703125	0.0034173583984375	4329.93406706797
0.39825439453125	0.0034320068359375	4330.37657206685
0.402679443359375	0.00344573974609375	4330.81907706573
0.4071044921875	0.00345977783203125	4331.26158206462
0.411529541015625	0.00347381591796875	4331.7040870635
0.41595458984375	0.00348663330078125	4332.14659206238
0.420379638671875	0.00350006103515625	4332.58909706126
0.4248046875	0.00351348876953125	4333.03160206015
0.429229736328125	0.0035260009765625	4333.47410705903
0.43365478515625	0.00353851318359375	4333.91661205791
0.438079833984375	0.00355072021484375	4334.3591170568
0.4425048828125	0.003563232421875	4334.80162205568
0.446929931640625	0.0035760498046875	4335.24412705456
0.45135498046875	0.00358795166015625	4335.68663205344
0.455780029296875	0.00359954833984375	4336.12913705233
0.460205078125	0.00361114501953125	4336.57164205121
0.464630126953125	0.003623046875	4337.01414705009
0.46905517578125	0.0036334228515625	4337.45665204897
0.473480224609375	0.00364501953125	4337.89915704786
0.4779052734375	0.00365692138671875	4338.34166204674
0.482330322265625	0.00366790771484375	4338.78416704562
0.48675537109375	0.003677978515625	4339.22667204451
0.491180419921875	0.00368804931640625	4339.66917704339
0.49560546875	0.00369781494140625	4340.11168204227
0.500030517578125	0.003707275390625	4340.55418704115
0.50445556640625	0.00371734619140625	4340.99669204004
0.508880615234375	0.0037255859375	4341.43919703892
0.5133056640625	0.0037347412109375	4341.8817020378
0.517730712890625	0.00374237060546875	4342.32420703669
0.52215576171875	0.00375030517578125	4342.76671203557
0.526580810546875	0.0037579345703125	4343.20921703445
0.531005859375	0.00376495361328125	4343.65172203333
0.535430908203125	0.00377166748046875	4344.09422703222
0.53985595703125	0.00377777099609375	4344.5367320311
0.544281005859375	0.00378448486328125	4344.97923702998
0.5487060546875	0.0037884521484375	4345.42174202887
0.553131103515625	0.00379425048828125	4345.86424702775
0.55755615234375	0.00379913330078125	4346.30675202663
0.561981201171875	0.0038043212890625	4346.74925702551
0.56640625	0.0038092041015625	4347.1917620244
0.570831298828125	0.00381378173828125	4347.63426702328
0.57525634765625	0.00381744384765625	4348.07677202216
0.579681396484375	0.0038214111328125	4348.51927702104
0.5841064453125	0.00382415771484375	4348.96178201993
0.588531494140625	0.00382476806640625	4349.40428701881
0.59295654296875	0.00382904052734375	4349.84679201769
0.597381591796875	0.00383270263671875	4350.28929701658
0.601806640625	0.0038348388671875	4350.73180201546
0.606231689453125	0.00383697509765625	4351.17430701434
0.61065673828125	0.0038397216796875	4351.61681201322
0.615081787109375	0.0038421630859375	4352.05931701211
0.6195068359375	0.00384429931640625	4352.50182201099
0.623931884765625	0.003846435546875	4352.94432700987
0.62835693359375	0.0038519287109375	4353.38683200875
0.632781982421875	0.00385284423828125	4353.82933700764
0.63720703125	0.00385406494140625	4354.27184200652
0.641632080078125	0.00385528564453125	4354.7143470054
0.64605712890625	0.0038568115234375	4355.15685200429
0.650482177734375	0.00385772705078125	4355.59935700317
0.6549072265625	0.0038580322265625	4356.04186200205
0.659332275390625	0.00385894775390625	4356.48436700093
0.66375732421875	0.00386016845703125	4356.92687199982
0.668182373046875	0.00386138916015625	4357.3693769987
0.672607421875	0.00386260986328125	4357.81188199758
0.677032470703125	0.003863525390625	4358.25438699647
0.68145751953125	0.0038641357421875	4358.69689199535
0.685882568359375	0.00386444091796875	4359.13939699423
0.6903076171875	0.00386566162109375	4359.58190199311
0.694732666015625	0.00386688232421875	4360.024406992
0.69915771484375	0.0038677978515625	4360.46691199088
0.703582763671875	0.0038677978515625	4360.90941698976
0.7080078125	0.0038690185546875	4361.35192198864
0.712432861328125	0.00387054443359375	4361.79442698753
0.71685791015625	0.00387176513671875	4362.23693198641
0.721282958984375	0.0038739013671875	4362.67943698529
0.7257080078125	0.00387451171875	4363.12194198418
0.730133056640625	0.003875732421875	4363.56444698306
0.73455810546875	0.0038775634765625	4364.00695198194
0.738983154296875	0.00387969970703125	4364.44945698082
0.743408203125	0.00387969970703125	4364.89196197971
0.747833251953125	0.0038824462890625	4365.33446697859
0.75225830078125	0.00388458251953125	4365.77697197747
0.756683349609375	0.00388763427734375	4366.21947697636
0.7611083984375	0.0038909912109375	4366.66198197524
0.765533447265625	0.00389495849609375	4367.10448697412
0.76995849609375	0.00389923095703125	4367.546991973
0.774383544921875	0.0039031982421875	4367.98949697189
0.77880859375	0.00390777587890625	4368.43200197077
0.783233642578125	0.00391265869140625	4368.87450696965
0.78765869140625	0.00391876220703125	4369.31701196853
0.792083740234375	0.00392608642578125	4369.75951696742
0.7965087890625	0.00393402099609375	4370.2020219663
0.800933837890625	0.00394287109375	4370.64452696518
0.80535888671875	0.00395233154296875	4371.08703196407
0.809783935546875	0.0039630126953125	4371.52953696295
0.814208984375	0.00397491455078125	4371.97204196183
0.818634033203125	0.003988037109375	4372.41454696071
0.82305908203125	0.00400146484375	4372.8570519596
0.827484130859375	0.004017333984375	4373.29955695848
0.8319091796875	0.004034423828125	4373.74206195736
0.836334228515625	0.00405364990234375	4374.18456695625
0.84075927734375	0.00407379150390625	4374.62707195513
0.845184326171875	0.0040960693359375	4375.06957695401
0.849609375	0.0041192626953125	4375.51208195289
0.854034423828125	0.004144287109375	4375.95458695178
0.85845947265625	0.00417205810546875	4376.39709195066
0.862884521484375	0.00420074462890625	4376.83959694954
0.8673095703125	0.004232177734375	4377.28210194843
0.871734619140625	0.00426605224609375	4377.72460694731
0.87615966796875	0.0043023681640625	4378.16711194619
0.880584716796875	0.0043414306640625	4378.60961694507
0.885009765625	0.00438232421875	4379.05212194396
0.889434814453125	0.0044256591796875	4379.49462694284
0.89385986328125	0.00447113037109375	4379.93713194172
0.898284912109375	0.00451934814453125	4380.3796369406
0.9027099609375	0.00456939697265625	4380.82214193949
0.907135009765625	0.00462249755859375	4381.26464693837
0.91156005859375	0.00467864990234375	4381.70715193725
0.915985107421875	0.00473541259765625	4382.14965693614
0.92041015625	0.00479583740234375	4382.59216193502
0.924835205078125	0.0048583984375	4383.0346669339
0.92926025390625	0.0049237060546875	4383.47717193278
0.933685302734375	0.0049908447265625	4383.91967693167
0.9381103515625	0.00506317138671875	4384.36218193055
0.942535400390625	0.00513458251953125	4384.80468692943
0.94696044921875	0.00520751953125	4385.24719192832
0.951385498046875	0.00528228759765625	4385.6896969272
0.955810546875	0.005360107421875	4386.13220192608
0.960235595703125	0.0054388427734375	4386.57470692496
0.96466064453125	0.00551971435546875	4387.01721192385
0.969085693359375	0.00560211181640625	4387.45971692273
0.9735107421875	0.00568572998046875	4387.90222192161
0.977935791015625	0.00576812744140625	4388.34472692049
0.98236083984375	0.0058538818359375	4388.78723191938
0.986785888671875	0.0059405517578125	4389.22973691826
0.9912109375	0.00602752685546875	4389.67224191714
0.995635986328125	0.006103515625	4390.11474691603
1.00006103515625	0.00618896484375	4390.55725191491
0.995635986328125	0.00538330078125	4390.99975691379
0.9912109375	0.004681396484375	4391.44226191267
0.986785888671875	0.00405731201171875	4391.88476691156
0.98236083984375	0.003494873046875	4392.32727191044
0.977935791015625	0.0029833984375	4392.76977690932
0.9735107421875	0.00251800537109375	4393.21228190821
0.969085693359375	0.00208984375	4393.65478690709
0.96466064453125	0.0016937255859375	4394.09729190597
0.960235595703125	0.0013262939453125	4394.53979690485
0.955810546875	0.00098480224609375	4394.98230190374
0.951385498046875	0.00066741943359375	4395.42480690262
0.94696044921875	0.000372406005859375	4395.8673119015
0.942535400390625	9.6343994140625E-05	4396.30981690038
0.9381103515625	-0.000160369873046875	4396.75232189927
0.933685302734375	-0.000404052734375	4397.19482689815
0.92926025390625	-0.000628662109375	4397.63733189703
0.924835205078125	-0.00083831787109375	4398.07983689592
0.92041015625	-0.00103546142578125	4398.5223418948
0.915985107421875	-0.00121917724609375	4398.96484689368
0.91156005859375	-0.0013922119140625	4399.40735189256
0.907135009765625	-0.00155303955078125	4399.84985689145
0.9027099609375	-0.001705322265625	4400.29236189033
0.898284912109375	-0.0018463134765625	4400.73486688921
0.89385986328125	-0.001978759765625	4401.17737188809
0.889434814453125	-0.00210235595703125	4401.61987688698
0.885009765625	-0.00221832275390625	4402.06238188586
0.880584716796875	-0.002325439453125	4402.50488688474
0.87615966796875	-0.00242584228515625	4402.94739188363
0.871734619140625	-0.0025189208984375	4403.38989688251
0.8673095703125	-0.00260589599609375	4403.83240188139
0.862884521484375	-0.0026861572265625	4404.27490688028
0.85845947265625	-0.0027593994140625	4404.71741187916
0.854034423828125	-0.002828369140625	4405.15991687804
0.849609375	-0.002891845703125	4405.60242187692
0.845184326171875	-0.002950439453125	4406.04492687581
0.84075927734375	-0.0030035400390625	4406.48743187469
0.836334228515625	-0.0030517578125	4406.92993687357
0.8319091796875	-0.00309661865234375	4407.37244187245
0.827484130859375	-0.00313690185546875	4407.81494687134
0.82305908203125	-0.00317413330078125	4408.25745187022
0.818634033203125	-0.0032061767578125	4408.6999568691
0.814208984375	-0.00323638916015625	4409.14246186799
0.809783935546875	-0.00326324462890625	4409.58496686687
0.80535888671875	-0.003287353515625	4410.02747186575
0.800933837890625	-0.0033074951171875	4410.46997686463
0.7965087890625	-0.00332550048828125	4410.91248186352
0.792083740234375	-0.003341064453125	4411.3549868624
0.78765869140625	-0.0033538818359375	4411.79749186128
0.783233642578125	-0.00336395263671875	4412.23999686016
0.77880859375	-0.003372802734375	4412.68250185905
0.774383544921875	-0.00338043212890625	4413.12500685793
0.76995849609375	-0.00338592529296875	4413.56751185681
0.765533447265625	-0.00339111328125	4414.0100168557
0.7611083984375	-0.00339385986328125	4414.45252185458
0.756683349609375	-0.0033966064453125	4414.89502685346
0.75225830078125	-0.00339752197265625	4415.33753185234
0.747833251953125	-0.0033978271484375	4415.78003685123
0.743408203125	-0.00339752197265625	4416.22254185011
0.738983154296875	-0.00339447021484375	4416.66504684899
0.73455810546875	-0.00339385986328125	4417.10755184788
0.730133056640625	-0.003392333984375	4417.55005684676
0.7257080078125	-0.00339111328125	4417.99256184564
0.721282958984375	-0.00338897705078125	4418.43506684452
0.71685791015625	-0.00338531494140625	4418.87757184341
0.712432861328125	-0.00338226318359375	4419.32007684229
0.7080078125	-0.00337921142578125	4419.76258184117
0.703582763671875	-0.00337646484375	4420.20508684005
0.69915771484375	-0.00337310791015625	4420.64759183894
0.694732666015625	-0.00337005615234375	4421.09009683782
0.6903076171875	-0.00336761474609375	4421.5326018367
0.685882568359375	-0.00336517333984375	4421.97510683559
0.68145751953125	-0.00336273193359375	4422.41761183447
0.677032470703125	-0.00336151123046875	4422.86011683335
0.672607421875	-0.0033599853515625	4423.30262183223
0.668182373046875	-0.003358154296875	4423.74512683112
0.66375732421875	-0.00335693359375	4424.18763183
0.659332275390625	-0.0033551025390625	4424.63013682888
0.6549072265625	-0.00335479736328125	4425.07264182777
0.650482177734375	-0.0033544921875	4425.51514682665
0.64605712890625	-0.0033538818359375	4425.95765182553
0.641632080078125	-0.00335357666015625	4426.40015682441
0.63720703125	-0.0033544921875	4426.8426618233
0.632781982421875	-0.00335479736328125	4427.28516682218
0.62835693359375	-0.0033563232421875	4427.72767182106
0.623931884765625	-0.00336212158203125	4428.17017681995
0.6195068359375	-0.0033636474609375	4428.61268181883
0.615081787109375	-0.0033648681640625	4429.05518681771
0.61065673828125	-0.00336669921875	4429.49769181659
0.606231689453125	-0.00337005615234375	4429.94019681548
0.601806640625	-0.00337249755859375	4430.38270181436
0.597381591796875	-0.00337615966796875	4430.82520681324
0.59295654296875	-0.00337982177734375	4431.26771181212
0.588531494140625	-0.00338470458984375	4431.71021681101
0.5841064453125	-0.0033868408203125	4432.15272180989
0.579681396484375	-0.00339324951171875	4432.59522680877
0.57525634765625	-0.00339935302734375	4433.03773180766
0.570831298828125	-0.0034063720703125	4433.48023680654
0.56640625	-0.00341339111328125	4433.92274180542
0.561981201171875	-0.00342041015625	4434.3652468043
0.55755615234375	-0.00342803955078125	4434.80775180319
0.553131103515625	-0.0034368896484375	4435.25025680207
0.5487060546875	-0.00344573974609375	4435.69276180095
0.544281005859375	-0.003453369140625	4436.13526679984
0.53985595703125	-0.0034637451171875	4436.57777179872
0.535430908203125	-0.00347442626953125	4437.0202767976
0.531005859375	-0.00348541259765625	4437.46278179648
0.526580810546875	-0.00349609375	4437.90528679537
0.52215576171875	-0.00350830078125	4438.34779179425
0.517730712890625	-0.00352081298828125	4438.79029679313
0.5133056640625	-0.00353271484375	4439.23280179201
0.508880615234375	-0.003546142578125	4439.6753067909
0.50445556640625	-0.00355987548828125	4440.11781178978
0.500030517578125	-0.00357330322265625	4440.56031678866
0.49560546875	-0.00358734130859375	4441.00282178755
0.491180419921875	-0.00360076904296875	4441.44532678643
0.48675537109375	-0.00361541748046875	4441.88783178531
0.482330322265625	-0.00363067626953125	4442.33033678419
0.4779052734375	-0.00364532470703125	4442.77284178308
0.473480224609375	-0.00366058349609375	4443.21534678196
0.46905517578125	-0.00367523193359375	4443.65785178084
0.464630126953125	-0.00368896484375	4444.10035677973
0.460205078125	-0.00370452880859375	4444.54286177861
0.455780029296875	-0.003719482421875	4444.98536677749
0.45135498046875	-0.0037347412109375	4445.42787177637
0.446929931640625	-0.003748779296875	4445.87037677526
0.4425048828125	-0.00376251220703125	4446.31288177414
0.438079833984375	-0.0037762451171875	4446.75538677302
0.43365478515625	-0.00378997802734375	4447.1978917719
0.429229736328125	-0.0038031005859375	4447.64039677079
0.4248046875	-0.00381622314453125	4448.08290176967
0.420379638671875	-0.00382781982421875	4448.52540676855
0.41595458984375	-0.00383880615234375	4448.96791176744
0.411529541015625	-0.00384979248046875	4449.41041676632
0.4071044921875	-0.00385955810546875	4449.8529217652
0.402679443359375	-0.0038690185546875	4450.29542676408
0.39825439453125	-0.0038775634765625	4450.73793176297
0.393829345703125	-0.00388519287109375	4451.18043676185
0.389404296875	-0.00389129638671875	4451.62294176073
0.384979248046875	-0.003897705078125	4452.06544675962
0.38055419921875	-0.00390350341796875	4452.5079517585
0.376129150390625	-0.0039080810546875	4452.95045675738
0.3717041015625	-0.003912353515625	4453.39296175626
0.367279052734375	-0.0039154052734375	4453.83546675515
0.36285400390625	-0.00391815185546875	4454.27797175403
0.358428955078125	-0.0039202880859375	4454.72047675291
0.35400390625	-0.00392181396484375	4455.1629817518
0.349578857421875	-0.00391998291015625	4455.60548675068
0.34515380859375	-0.0039208984375	4456.04799174956
0.340728759765625	-0.00392059326171875	4456.49049674844
0.3363037109375	-0.00392059326171875	4456.93300174733
0.331878662109375	-0.003919677734375	4457.37550674621
0.32745361328125	-0.00391815185546875	4457.81801174509
0.323028564453125	-0.00391693115234375	4458.26051674397
0.318603515625	-0.00391448974609375	4458.70302174286
0.314178466796875	-0.003912353515625	4459.14552674174
0.30975341796875	-0.003912353515625	4459.58803174062
0.305328369140625	-0.0039093017578125	4460.0305367395
0.3009033203125	-0.00390472412109375	4460.47304173839
0.296478271484375	-0.00390106201171875	4460.91554673727
0.29205322265625	-0.003897705078125	4461.35805173615
0.287628173828125	-0.00389373779296875	4461.80055673504
0.283203125	-0.00389007568359375	4462.24306173392
0.278778076171875	-0.003885498046875	4462.6855667328
0.27435302734375	-0.00388153076171875	4463.12807173168
0.269927978515625	-0.003876953125	4463.57057673057
0.2655029296875	-0.00387359619140625	4464.01308172945
0.261077880859375	-0.00386962890625	4464.45558672833
0.25665283203125	-0.00386505126953125	4464.89809172722
0.252227783203125	-0.003861083984375	4465.3405967261
0.247802734375	-0.00385711669921875	4465.78310172498
0.243377685546875	-0.00385345458984375	4466.22560672386
0.23895263671875	-0.00385040283203125	4466.66811172275
0.234527587890625	-0.00384674072265625	4467.11061672163
0.2301025390625	-0.00384185791015625	4467.55312172051
0.225677490234375	-0.00383819580078125	4467.9956267194
0.22125244140625	-0.00383514404296875	4468.43813171828
0.216827392578125	-0.003831787109375	4468.88063671716
0.21240234375	-0.00382904052734375	4469.32314171604
0.207977294921875	-0.00382568359375	4469.76564671493
0.20355224609375	-0.00382232666015625	4470.20815171381
0.199127197265625	-0.00381927490234375	4470.65065671269
0.1947021484375	-0.003817138671875	4471.09316171157
0.190277099609375	-0.00381500244140625	4471.53566671046
0.18585205078125	-0.003812255859375	4471.97817170934
0.181427001953125	-0.003809814453125	4472.42067670822
0.177001953125	-0.00380767822265625	4472.86318170711
0.172576904296875	-0.00380645751953125	4473.30568670599
0.16815185546875	-0.003804931640625	4473.74819170487
0.163726806640625	-0.00380401611328125	4474.19069670375
0.1593017578125	-0.00380279541015625	4474.63320170264
0.154876708984375	-0.00380096435546875	4475.07570670152
0.15045166015625	-0.00380096435546875	4475.5182117004
0.146026611328125	-0.0038018798828125	4475.96071669929
0.1416015625	-0.003802490234375	4476.40322169817
0.137176513671875	-0.00380340576171875	4476.84572669705
0.13275146484375	-0.00380462646484375	4477.28823169593
0.128326416015625	-0.00380645751953125	4477.73073669482
0.1239013671875	-0.00380828857421875	4478.1732416937
0.119476318359375	-0.00381134033203125	4478.61574669258
0.11505126953125	-0.003812255859375	4479.05825169146
0.110626220703125	-0.00381683349609375	4479.50075669035
0.106201171875	-0.00382049560546875	4479.94326168923
0.101776123046875	-0.00382537841796875	4480.38576668811
0.09735107421875	-0.00383087158203125	4480.828271687
0.092926025390625	-0.00383697509765625	4481.27077668588
0.0885009765625	-0.00384307861328125	4481.71328168476
0.084075927734375	-0.00384918212890625	4482.15578668364
0.07965087890625	-0.0038568115234375	4482.59829168253
0.075225830078125	-0.00386383056640625	4483.04079668141
0.07080078125	-0.0038726806640625	4483.48330168029
0.066375732421875	-0.0038818359375	4483.92580667918
0.06195068359375	-0.00389129638671875	4484.36831167806
0.057525634765625	-0.00390167236328125	4484.81081667694
0.0531005859375	-0.00391265869140625	4485.25332167582
0.048675537109375	-0.00392486572265625	4485.69582667471
0.04425048828125	-0.0039373779296875	4486.13833167359
0.039825439453125	-0.00394989013671875	4486.58083667247
0.035400390625	-0.003963623046875	4487.02334167136
0.030975341796875	-0.00397918701171875	4487.46584667024
0.02655029296875	-0.00399383544921875	4487.90835166912
0.022125244140625	-0.0040106201171875	4488.350856668
0.0177001953125	-0.0040277099609375	4488.79336166689
0.013275146484375	-0.0040460205078125	4489.23586666577
0.00885009765625	-0.00406524658203125	4489.67837166465
0.004425048828125	-0.004085693359375	4490.12087666353
0	-0.004107666015625	4490.56338166242
0.004425048828125	-0.00329803466796875	4491.0058866613
0.00885009765625	-0.00262176513671875	4491.44839166018
0.013275146484375	-0.0020458984375	4491.89089665907
0.0177001953125	-0.00155029296875	4492.33340165795
0.022125244140625	-0.0011181640625	4492.77590665683
0.02655029296875	-0.00074005126953125	4493.21841165571
0.030975341796875	-0.00040643310546875	4493.6609166546
0.035400390625	-0.000111358642578125	4494.10342165348
0.039825439453125	0.000151336669921875	4494.54592665236
0.04425048828125	0.0003865966796875	4494.98843165125
0.048675537109375	0.00059814453125	4495.43093665013
0.0531005859375	0.00078765869140625	4495.87344164901
0.057525634765625	0.00095855712890625	4496.31594664789
0.06195068359375	0.00111236572265625	4496.75845164678
0.066375732421875	0.0012518310546875	4497.20095664566
0.07080078125	0.001378173828125	4497.64346164454
0.075225830078125	0.001492919921875	4498.08596664342
0.07965087890625	0.00159515380859375	4498.52847164231
0.084075927734375	0.00169189453125	4498.97097664119
0.0885009765625	0.00178009033203125	4499.41348164007
0.092926025390625	0.00186187744140625	4499.85598663896
0.09735107421875	0.00193634033203125	4500.29849163784
0.101776123046875	0.00200592041015625	4500.74099663672
0.106201171875	0.00206939697265625	4501.1835016356
0.110626220703125	0.00212860107421875	4501.62600663449
0.11505126953125	0.0021832275390625	4502.06851163337
0.119476318359375	0.0022320556640625	4502.51101663225
0.1239013671875	0.0022796630859375	4502.95352163114
0.128326416015625	0.00232391357421875	4503.39602663002
0.13275146484375	0.002364501953125	4503.8385316289
0.137176513671875	0.00240325927734375	4504.28103662778
0.1416015625	0.00243988037109375	4504.72354162667
0.146026611328125	0.002474365234375	4505.16604662555
0.15045166015625	0.00250640869140625	4505.60855162443
0.154876708984375	0.00253662109375	4506.05105662332
0.1593017578125	0.002564697265625	4506.4935616222
0.163726806640625	0.0025921630859375	4506.93606662108
0.16815185546875	0.00261871337890625	4507.37857161996
0.172576904296875	0.00264404296875	4507.82107661885
0.177001953125	0.00266693115234375	4508.26358161773
0.181427001953125	0.00269012451171875	4508.70608661661
0.18585205078125	0.00271209716796875	4509.14859161549
0.190277099609375	0.0027337646484375	4509.59109661438
0.1947021484375	0.00275421142578125	4510.03360161326
0.199127197265625	0.00277374267578125	4510.47610661214
0.20355224609375	0.00279296875	4510.91861161102
0.207977294921875	0.00281097412109375	4511.36111660991
0.21240234375	0.002828369140625	4511.80362160879
0.216827392578125	0.0028466796875	4512.24612660767
0.22125244140625	0.0028631591796875	4512.68863160656
0.225677490234375	0.002880859375	4513.13113660544
0.2301025390625	0.00289642333984375	4513.57364160432
0.234527587890625	0.00291107177734375	4514.01614660321
0.23895263671875	0.00292633056640625	4514.45865160209
0.243377685546875	0.00294189453125	4514.90115660097
0.247802734375	0.00295623779296875	4515.34366159985
0.252227783203125	0.0029705810546875	4515.78616659874
0.25665283203125	0.00298553466796875	4516.22867159762
0.261077880859375	0.00299957275390625	4516.6711765965
0.2655029296875	0.00301361083984375	4517.11368159538
0.269927978515625	0.0030279541015625	4517.55618659427
0.27435302734375	0.00304168701171875	4517.99869159315
0.278778076171875	0.00305511474609375	4518.44119659203
0.283203125	0.00306854248046875	4518.88370159092
0.287628173828125	0.00308349609375	4519.3262065898
0.29205322265625	0.00309783935546875	4519.76871158868
0.296478271484375	0.00311126708984375	4520.21121658756
0.3009033203125	0.00312469482421875	4520.65372158645
0.305328369140625	0.00313751220703125	4521.09622658533
0.30975341796875	0.00315093994140625	4521.53873158421
0.314178466796875	0.00316802978515625	4521.98123658309
0.318603515625	0.00318115234375	4522.42374158198
0.323028564453125	0.00319488525390625	4522.86624658086
0.32745361328125	0.00320831298828125	4523.30875157974
0.331878662109375	0.0032220458984375	4523.75125657863
0.3363037109375	0.0032354736328125	4524.19376157751
0.340728759765625	0.00324981689453125	4524.63626657639
0.34515380859375	0.00326324462890625	4525.07877157527
0.349578857421875	0.0032769775390625	4525.52127657416
0.35400390625	0.0032879638671875	4525.96378157304
0.358428955078125	0.00330230712890625	4526.40628657192
0.36285400390625	0.00331573486328125	4526.84879157081
0.367279052734375	0.003330078125	4527.29129656969
0.3717041015625	0.0033441162109375	4527.73380156857
0.376129150390625	0.003358154296875	4528.17630656745
0.38055419921875	0.00337188720703125	4528.61881156634
0.384979248046875	0.00338623046875	4529.06131656522
0.389404296875	0.003399658203125	4529.5038215641
0.393829345703125	0.0034124755859375	4529.94632656298
0.39825439453125	0.0034259033203125	4530.38883156187
0.402679443359375	0.003438720703125	4530.83133656075
0.4071044921875	0.0034527587890625	4531.27384155963
0.411529541015625	0.003465576171875	4531.71634655852
0.41595458984375	0.00347808837890625	4532.1588515574
0.420379638671875	0.00349090576171875	4532.60135655628
0.4248046875	0.00350341796875	4533.04386155516
0.429229736328125	0.003515625	4533.48636655405
0.43365478515625	0.00352752685546875	4533.92887155293
0.438079833984375	0.00353973388671875	4534.37137655181
0.4425048828125	0.0035516357421875	4534.8138815507
0.446929931640625	0.0035638427734375	4535.25638654958
0.45135498046875	0.00357513427734375	4535.69889154846
0.455780029296875	0.0035870361328125	4536.14139654734
0.460205078125	0.0035986328125	4536.58390154623
0.464630126953125	0.00360992431640625	4537.02640654511
0.46905517578125	0.00362030029296875	4537.46891154399
0.473480224609375	0.00363189697265625	4537.91141654287
0.4779052734375	0.003642578125	4538.35392154176
0.482330322265625	0.003653564453125	4538.79642654064
0.48675537109375	0.00366424560546875	4539.23893153952
0.491180419921875	0.00367401123046875	4539.68143653841
0.49560546875	0.00368408203125	4540.12394153729
0.500030517578125	0.0036932373046875	4540.56644653617
0.50445556640625	0.00370208740234375	4541.00895153505
0.508880615234375	0.0037115478515625	4541.45145653394
0.5133056640625	0.0037200927734375	4541.89396153282
0.517730712890625	0.00372802734375	4542.3364665317
0.52215576171875	0.00373565673828125	4542.77897153059
0.526580810546875	0.00374298095703125	4543.22147652947
0.531005859375	0.00375030517578125	4543.66398152835
0.535430908203125	0.00375732421875	4544.10648652723
0.53985595703125	0.00376312255859375	4544.54899152612
0.544281005859375	0.00376983642578125	4544.991496525
0.5487060546875	0.00377410888671875	4545.43400152388
0.553131103515625	0.00377899169921875	4545.87650652277
0.55755615234375	0.00378448486328125	4546.31901152165
0.561981201171875	0.0037896728515625	4546.76151652053
0.56640625	0.00379364013671875	4547.20402151941
0.570831298828125	0.00379791259765625	4547.6465265183
0.57525634765625	0.00380157470703125	4548.08903151718
0.579681396484375	0.00380523681640625	4548.53153651606
0.5841064453125	0.00380889892578125	4548.97404151494
0.588531494140625	0.0038104248046875	4549.41654651383
0.59295654296875	0.0038134765625	4549.85905151271
0.597381591796875	0.00381591796875	4550.30155651159
0.601806640625	0.003818359375	4550.74406151048
0.606231689453125	0.00382171630859375	4551.18656650936
0.61065673828125	0.00382415771484375	4551.62907150824
0.615081787109375	0.00382598876953125	4552.07157650712
0.6195068359375	0.00382720947265625	4552.51408150601
0.623931884765625	0.00382904052734375	4552.95658650489
0.62835693359375	0.0038348388671875	4553.39909150377
0.632781982421875	0.00383575439453125	4553.84159650266
0.63720703125	0.00383636474609375	4554.28410150154
0.641632080078125	0.0038372802734375	4554.72660650042
0.64605712890625	0.00383758544921875	4555.1691114993
0.650482177734375	0.00383880615234375	4555.61161649819
0.6549072265625	0.00383941650390625	4556.05412149707
0.659332275390625	0.00384033203125	4556.49662649595
0.66375732421875	0.00384063720703125	4556.93913149483
0.668182373046875	0.0038409423828125	4557.38163649372
0.672607421875	0.003841552734375	4557.8241414926
0.677032470703125	0.003841552734375	4558.26664649148
0.68145751953125	0.0038421630859375	4558.70915149037
0.685882568359375	0.0038433837890625	4559.15165648925
0.6903076171875	0.00384368896484375	4559.59416148813
0.694732666015625	0.00384429931640625	4560.03666648701
0.69915771484375	0.00384490966796875	4560.4791714859
0.703582763671875	0.00384429931640625	4560.92167648478
0.7080078125	0.00384521484375	4561.36418148366
0.712432861328125	0.00384613037109375	4561.80668648255
0.71685791015625	0.003846435546875	4562.24919148143
0.721282958984375	0.00384735107421875	4562.69169648031
0.7257080078125	0.00384796142578125	4563.13420147919
0.730133056640625	0.00384918212890625	4563.57670647808
0.73455810546875	0.0038507080078125	4564.01921147696
0.738983154296875	0.0038519287109375	4564.46171647584
0.743408203125	0.003851318359375	4564.90422147473
0.747833251953125	0.0038531494140625	4565.34672647361
0.75225830078125	0.0038555908203125	4565.78923147249
0.756683349609375	0.00385772705078125	4566.23173647137
0.7611083984375	0.0038604736328125	4566.67424147026
0.765533447265625	0.003863525390625	4567.11674646914
0.76995849609375	0.00386688232421875	4567.55925146802
0.774383544921875	0.003870849609375	4568.0017564669
0.77880859375	0.003875732421875	4568.44426146579
0.783233642578125	0.00387969970703125	4568.88676646467
0.78765869140625	0.00388519287109375	4569.32927146355
0.792083740234375	0.0038909912109375	4569.77177646244
0.7965087890625	0.0038983154296875	4570.21428146132
0.800933837890625	0.00390655517578125	4570.6567864602
0.80535888671875	0.00391571044921875	4571.09929145908
0.809783935546875	0.0039251708984375	4571.54179645797
0.814208984375	0.00393585205078125	4571.98430145685
0.818634033203125	0.00394805908203125	4572.42680645573
0.82305908203125	0.003961181640625	4572.86931145461
0.827484130859375	0.00397613525390625	4573.3118164535
0.8319091796875	0.00399139404296875	4573.75432145238
0.836334228515625	0.00400909423828125	4574.19682645126
0.84075927734375	0.00402801513671875	4574.63933145015
0.845184326171875	0.00404937744140625	4575.08183644903
0.849609375	0.004071044921875	4575.52434144791
0.854034423828125	0.004095458984375	4575.96684644679
0.85845947265625	0.00412139892578125	4576.40935144568
0.862884521484375	0.00414794921875	4576.85185644456
0.8673095703125	0.004178466796875	4577.29436144344
0.871734619140625	0.00421142578125	4577.73686644233
0.87615966796875	0.00424560546875	4578.17937144121
0.880584716796875	0.0042828369140625	4578.62187644009
0.885009765625	0.0043212890625	4579.06438143897
0.889434814453125	0.00436279296875	4579.50688643786
0.89385986328125	0.00440643310546875	4579.94939143674
0.898284912109375	0.004451904296875	4580.39189643562
0.9027099609375	0.00449981689453125	4580.8344014345
0.907135009765625	0.0045501708984375	4581.27690643339
0.91156005859375	0.004603271484375	4581.71941143227
0.915985107421875	0.0046588134765625	4582.16191643115
0.92041015625	0.00471649169921875	4582.60442143004
0.924835205078125	0.004776611328125	4583.04692642892
0.92926025390625	0.00483856201171875	4583.4894314278
0.933685302734375	0.0049029541015625	4583.93193642668
0.9381103515625	0.00497222900390625	4584.37444142557
0.942535400390625	0.0050408935546875	4584.81694642445
0.94696044921875	0.005111083984375	4585.25945142333
0.951385498046875	0.00518310546875	4585.70195642222
0.955810546875	0.0052569580078125	4586.1444614211
0.960235595703125	0.00533294677734375	4586.58696641998
0.96466064453125	0.00540985107421875	4587.02947141886
0.969085693359375	0.00548797607421875	4587.47197641775
0.9735107421875	0.00556793212890625	4587.91448141663
0.977935791015625	0.0056463623046875	4588.35698641551
0.98236083984375	0.00572845458984375	4588.79949141439
0.986785888671875	0.005811767578125	4589.24199641328
0.9912109375	0.00589630126953125	4589.68450141216
