Time (s)	WE(1).Potential (V)
1901.27582719974	0.72998046875
1902.27582719722	0.6341552734375
1903.27582719469	0.53924560546875
1904.27582719217	0.444061279296875
1905.27582718964	0.350006103515625
1906.27582718712	0.258026123046875
1907.27582718459	0.169158935546875
1908.27582718207	0.084808349609375
1909.27582717954	0.00573120117187501
1910.27582717702	-0.067657470703125
1911.27582717449	-0.135406494140625
1912.27582717197	-0.19805908203125
1913.27582716944	-0.25543212890625
