Potential applied (V)	WE(1).Current (A)	Time (s)
0.004425048828125	-0.04481201171875	3451.60915528552
0.00885009765625	-0.031219482421875	3452.05166028441
0.013275146484375	-0.022686767578125	3452.49416528329
0.0177001953125	-0.0168975830078125	3452.93667028217
0.022125244140625	-0.0127899169921875	3453.37917528106
0.02655029296875	-0.0097930908203125	3453.82168027994
0.030975341796875	-0.007550048828125	3454.26418527882
0.035400390625	-0.005841064453125	3454.7066902777
0.039825439453125	-0.00452362060546875	3455.14919527659
0.04425048828125	-0.00349609375	3455.59170027547
0.048675537109375	-0.0026898193359375	3456.03420527435
0.0531005859375	-0.00205108642578125	3456.47671027324
0.057525634765625	-0.00154052734375	3456.91921527212
0.06195068359375	-0.0011383056640625	3457.361720271
0.066375732421875	-0.00080780029296875	3457.80422526988
0.07080078125	-0.00053985595703125	3458.24673026877
0.075225830078125	-0.000321014404296875	3458.68923526765
0.07965087890625	-0.000142608642578125	3459.13174026653
0.084075927734375	4.901123046875E-06	3459.57424526541
0.0885009765625	0.000126953125	3460.0167502643
0.092926025390625	0.000229339599609375	3460.45925526318
0.09735107421875	0.0003150634765625	3460.90176026206
0.101776123046875	0.00038494873046875	3461.34426526095
0.106201171875	0.000443359375	3461.78677025983
0.110626220703125	0.000492706298828125	3462.22927525871
0.11505126953125	0.00053424072265625	3462.67178025759
0.119476318359375	0.000567779541015625	3463.11428525648
0.1239013671875	0.000595489501953125	3463.55679025536
0.128326416015625	0.000623260498046875	3463.99929525424
0.13275146484375	0.00064849853515625	3464.44180025313
0.137176513671875	0.0006695556640625	3464.88430525201
0.1416015625	0.00068756103515625	3465.32681025089
0.146026611328125	0.0007049560546875	3465.76931524977
0.15045166015625	0.0007196044921875	3466.21182024866
0.154876708984375	0.00073211669921875	3466.65432524754
0.1593017578125	0.00074066162109375	3467.09683024642
0.163726806640625	0.0007501220703125	3467.5393352453
0.16815185546875	0.00075714111328125	3467.98184024419
0.172576904296875	0.00076416015625	3468.42434524307
0.177001953125	0.00076995849609375	3468.86685024195
0.181427001953125	0.000775146484375	3469.30935524084
0.18585205078125	0.0007794189453125	3469.75186023972
0.190277099609375	0.00078369140625	3470.1943652386
0.1947021484375	0.00078704833984375	3470.63687023748
0.199127197265625	0.00079010009765625	3471.07937523637
0.20355224609375	0.00079254150390625	3471.52188023525
0.207977294921875	0.00079498291015625	3471.96438523413
0.21240234375	0.0007977294921875	3472.40689023302
0.216827392578125	0.00079986572265625	3472.8493952319
0.22125244140625	0.00080047607421875	3473.29190023078
0.225677490234375	0.00080169677734375	3473.73440522966
0.2301025390625	0.0008026123046875	3474.17691022855
0.234527587890625	0.0008026123046875	3474.61941522743
0.23895263671875	0.00080352783203125	3475.06192022631
0.243377685546875	0.0008038330078125	3475.50442522519
0.247802734375	0.0008038330078125	3475.94693022408
0.252227783203125	0.000804443359375	3476.38943522296
0.25665283203125	0.0008050537109375	3476.83194022184
0.261077880859375	0.0008050537109375	3477.27444522073
0.2655029296875	0.000804443359375	3477.71695021961
0.269927978515625	0.00080413818359375	3478.15945521849
0.27435302734375	0.00080322265625	3478.60196021737
0.278778076171875	0.00080352783203125	3479.04446521626
0.283203125	0.0008026123046875	3479.48697021514
0.287628173828125	0.00080230712890625	3479.92947521402
0.29205322265625	0.00080169677734375	3480.37198021291
0.296478271484375	0.00080108642578125	3480.81448521179
0.3009033203125	0.00080078125	3481.25699021067
0.305328369140625	0.00079986572265625	3481.69949520955
0.30975341796875	0.00079925537109375	3482.14200020844
0.314178466796875	0.00080047607421875	3482.58450520732
0.318603515625	0.00079925537109375	3483.0270102062
0.323028564453125	0.00079833984375	3483.46951520508
0.32745361328125	0.000797119140625	3483.91202020397
0.331878662109375	0.0007965087890625	3484.35452520285
0.3363037109375	0.00079559326171875	3484.79703020173
0.340728759765625	0.00079498291015625	3485.23953520062
0.34515380859375	0.0007940673828125	3485.6820401995
0.349578857421875	0.00079376220703125	3486.12454519838
0.35400390625	0.00079193115234375	3486.56705019726
0.358428955078125	0.000792236328125	3487.00955519615
0.36285400390625	0.000792236328125	3487.45206019503
0.367279052734375	0.000792236328125	3487.89456519391
0.3717041015625	0.000792236328125	3488.3370701928
0.376129150390625	0.00079193115234375	3488.77957519168
0.38055419921875	0.000792236328125	3489.22208019056
0.384979248046875	0.00079254150390625	3489.66458518944
0.389404296875	0.0007928466796875	3490.10709018833
0.393829345703125	0.00079193115234375	3490.54959518721
0.39825439453125	0.00079254150390625	3490.99210018609
0.402679443359375	0.0007928466796875	3491.43460518498
0.4071044921875	0.00079376220703125	3491.87711018386
0.411529541015625	0.0007940673828125	3492.31961518274
0.41595458984375	0.00079437255859375	3492.76212018162
0.420379638671875	0.000794677734375	3493.20462518051
0.4248046875	0.00079559326171875	3493.64713017939
0.429229736328125	0.0007965087890625	3494.08963517827
0.43365478515625	0.00079681396484375	3494.53214017715
0.438079833984375	0.0007977294921875	3494.97464517604
0.4425048828125	0.00079833984375	3495.41715017492
0.446929931640625	0.0007989501953125	3495.8596551738
0.45135498046875	0.00079986572265625	3496.30216017269
0.455780029296875	0.0008013916015625	3496.74466517157
0.460205078125	0.000802001953125	3497.18717017045
0.464630126953125	0.00080352783203125	3497.62967516933
0.46905517578125	0.000804443359375	3498.07218016822
0.473480224609375	0.00080596923828125	3498.5146851671
0.4779052734375	0.00080718994140625	3498.95719016598
0.482330322265625	0.00080902099609375	3499.39969516487
0.48675537109375	0.000810546875	3499.84220016375
0.491180419921875	0.00081207275390625	3500.28470516263
0.49560546875	0.00081390380859375	3500.72721016151
0.500030517578125	0.00081573486328125	3501.1697151604
0.50445556640625	0.00081756591796875	3501.61222015928
0.508880615234375	0.000819091796875	3502.05472515816
0.5133056640625	0.00082122802734375	3502.49723015704
0.517730712890625	0.00082305908203125	3502.93973515593
0.52215576171875	0.00082489013671875	3503.38224015481
0.526580810546875	0.00082733154296875	3503.82474515369
0.531005859375	0.00082916259765625	3504.26725015258
0.535430908203125	0.00083099365234375	3504.70975515146
0.53985595703125	0.00083282470703125	3505.15226015034
0.544281005859375	0.00083526611328125	3505.59476514922
0.5487060546875	0.00083740234375	3506.03727014811
0.553131103515625	0.00083953857421875	3506.47977514699
0.55755615234375	0.00084228515625	3506.92228014587
0.561981201171875	0.00084503173828125	3507.36478514475
0.56640625	0.0008477783203125	3507.80729014364
0.570831298828125	0.0008502197265625	3508.24979514252
0.57525634765625	0.00085296630859375	3508.6923001414
0.579681396484375	0.00085540771484375	3509.13480514029
0.5841064453125	0.000858154296875	3509.57731013917
0.588531494140625	0.00085968017578125	3510.01981513805
0.59295654296875	0.00086334228515625	3510.46232013693
0.597381591796875	0.00086669921875	3510.90482513582
0.601806640625	0.0008697509765625	3511.3473301347
0.606231689453125	0.00087249755859375	3511.78983513358
0.61065673828125	0.00087615966796875	3512.23234013247
0.615081787109375	0.00087921142578125	3512.67484513135
0.6195068359375	0.000882568359375	3513.11735013023
0.623931884765625	0.00088592529296875	3513.55985512911
0.62835693359375	0.0008917236328125	3514.002360128
0.632781982421875	0.00089447021484375	3514.44486512688
0.63720703125	0.00089752197265625	3514.88737012576
0.641632080078125	0.00090118408203125	3515.32987512465
0.64605712890625	0.00090484619140625	3515.77238012353
0.650482177734375	0.00090850830078125	3516.21488512241
0.6549072265625	0.000911865234375	3516.65739012129
0.659332275390625	0.0009161376953125	3517.09989512018
0.66375732421875	0.00092010498046875	3517.54240011906
0.668182373046875	0.000924072265625	3517.98490511794
0.672607421875	0.0009283447265625	3518.42741011682
0.677032470703125	0.00093292236328125	3518.86991511571
0.68145751953125	0.0009368896484375	3519.31242011459
0.685882568359375	0.00094146728515625	3519.75492511347
0.6903076171875	0.000946044921875	3520.19743011236
0.694732666015625	0.00095062255859375	3520.63993511124
0.69915771484375	0.00095550537109375	3521.08244011012
0.703582763671875	0.00095977783203125	3521.524945109
0.7080078125	0.00096527099609375	3521.96745010789
0.712432861328125	0.00097076416015625	3522.40995510677
0.71685791015625	0.00097625732421875	3522.85246010565
0.721282958984375	0.0009820556640625	3523.29496510454
0.7257080078125	0.00098785400390625	3523.73747010342
0.730133056640625	0.00099395751953125	3524.1799751023
0.73455810546875	0.000999755859375	3524.62248010118
0.738983154296875	0.0010064697265625	3525.06498510007
0.743408203125	0.001011962890625	3525.50749009895
0.747833251953125	0.00101898193359375	3525.94999509783
0.75225830078125	0.001026611328125	3526.39250009671
0.756683349609375	0.00103363037109375	3526.8350050956
0.7611083984375	0.001041259765625	3527.27751009448
0.765533447265625	0.0010491943359375	3527.72001509336
0.76995849609375	0.00105682373046875	3528.16252009225
0.774383544921875	0.00106536865234375	3528.60502509113
0.77880859375	0.0010736083984375	3529.04753009001
0.783233642578125	0.001082763671875	3529.49003508889
0.78765869140625	0.0010919189453125	3529.93254008778
0.792083740234375	0.00110137939453125	3530.37504508666
0.7965087890625	0.0011114501953125	3530.81755008554
0.800933837890625	0.00112213134765625	3531.26005508443
0.80535888671875	0.00113250732421875	3531.70256008331
0.809783935546875	0.00114471435546875	3532.14506508219
0.814208984375	0.00115631103515625	3532.58757008107
0.818634033203125	0.00116912841796875	3533.03007507996
0.82305908203125	0.00118194580078125	3533.47258007884
0.827484130859375	0.001195068359375	3533.91508507772
0.8319091796875	0.00120941162109375	3534.3575900766
0.836334228515625	0.001224365234375	3534.80009507549
0.84075927734375	0.001240234375	3535.24260007437
0.845184326171875	0.001256103515625	3535.68510507325
0.849609375	0.00127288818359375	3536.12761007214
0.854034423828125	0.00129119873046875	3536.57011507102
0.85845947265625	0.00131011962890625	3537.0126200699
0.862884521484375	0.001329345703125	3537.45512506878
0.8673095703125	0.0013494873046875	3537.89763006767
0.871734619140625	0.001370849609375	3538.34013506655
0.87615966796875	0.00139373779296875	3538.78264006543
0.880584716796875	0.00141693115234375	3539.22514506432
0.885009765625	0.00144195556640625	3539.6676500632
0.889434814453125	0.00146820068359375	3540.11015506208
0.89385986328125	0.00149566650390625	3540.55266006096
0.898284912109375	0.00152435302734375	3540.99516505985
0.9027099609375	0.00155487060546875	3541.43767005873
0.907135009765625	0.0015869140625	3541.88017505761
0.91156005859375	0.00162109375	3542.32268005649
0.915985107421875	0.0016571044921875	3542.76518505538
0.92041015625	0.00169464111328125	3543.20769005426
0.924835205078125	0.0017340087890625	3543.65019505314
0.92926025390625	0.001776123046875	3544.09270005203
0.933685302734375	0.0018206787109375	3544.53520505091
0.9381103515625	0.0018695068359375	3544.97771004979
0.942535400390625	0.00191864013671875	3545.42021504867
0.94696044921875	0.00197113037109375	3545.86272004756
0.951385498046875	0.00202606201171875	3546.30522504644
0.955810546875	0.0020849609375	3546.74773004532
0.960235595703125	0.0021478271484375	3547.19023504421
0.96466064453125	0.00221343994140625	3547.63274004309
0.969085693359375	0.00228424072265625	3548.07524504197
0.9735107421875	0.0023565673828125	3548.51775004085
0.977935791015625	0.002432861328125	3548.96025503974
0.98236083984375	0.0025146484375	3549.40276003862
0.986785888671875	0.0026007080078125	3549.8452650375
0.9912109375	0.00268951416015625	3550.28777003639
0.995635986328125	0.0027838134765625	3550.73027503527
1.00006103515625	0.00288177490234375	3551.17278003415
0.995635986328125	0.002454833984375	3551.61528503303
0.9912109375	0.00212371826171875	3552.05779003192
0.986785888671875	0.00184783935546875	3552.5002950308
0.98236083984375	0.0016094970703125	3552.94280002968
0.977935791015625	0.00139862060546875	3553.38530502856
0.9735107421875	0.0012109375	3553.82781002745
0.969085693359375	0.00104034423828125	3554.27031502633
0.96466064453125	0.00088531494140625	3554.71282002521
0.960235595703125	0.00074462890625	3555.1553250241
0.955810546875	0.00061553955078125	3555.59783002298
0.951385498046875	0.00049774169921875	3556.04033502186
0.94696044921875	0.00039044189453125	3556.48284002074
0.942535400390625	0.00029248046875	3556.92534501963
0.9381103515625	0.00020330810546875	3557.36785001851
0.933685302734375	0.000120269775390625	3557.81035501739
0.92926025390625	4.6539306640625E-05	3558.25286001628
0.924835205078125	-2.0367431640625E-05	3558.69536501516
0.92041015625	-8.1695556640625E-05	3559.13787001404
0.915985107421875	-0.00013714599609375	3559.58037501292
0.91156005859375	-0.000187744140625	3560.02288001181
0.907135009765625	-0.000233489990234375	3560.46538501069
0.9027099609375	-0.0002752685546875	3560.90789000957
0.898284912109375	-0.000312713623046875	3561.35039500845
0.89385986328125	-0.000347137451171875	3561.79290000734
0.889434814453125	-0.0003785400390625	3562.23540500622
0.885009765625	-0.00040655517578125	3562.6779100051
0.880584716796875	-0.000432586669921875	3563.12041500399
0.87615966796875	-0.000456146240234375	3563.56292000287
0.871734619140625	-0.000477996826171875	3564.00542500175
0.8673095703125	-0.00049774169921875	3564.44793000063
0.862884521484375	-0.000516082763671875	3564.89043499952
0.85845947265625	-0.0005321044921875	3565.3329399984
0.854034423828125	-0.00054736328125	3565.77544499728
0.849609375	-0.00056195068359375	3566.21794999617
0.845184326171875	-0.000574798583984375	3566.66045499505
0.84075927734375	-0.000586944580078125	3567.10295999393
0.836334228515625	-0.000598785400390625	3567.54546499281
0.8319091796875	-0.000609649658203125	3567.9879699917
0.827484130859375	-0.000618896484375	3568.43047499058
0.82305908203125	-0.000628662109375	3568.87297998946
0.818634033203125	-0.00063720703125	3569.31548498834
0.814208984375	-0.000645751953125	3569.75798998723
0.809783935546875	-0.0006536865234375	3570.20049498611
0.80535888671875	-0.00066070556640625	3570.64299998499
0.800933837890625	-0.00066802978515625	3571.08550498388
0.7965087890625	-0.00067535400390625	3571.52800998276
0.792083740234375	-0.0006817626953125	3571.97051498164
0.78765869140625	-0.0006878662109375	3572.41301998052
0.783233642578125	-0.00069427490234375	3572.85552497941
0.77880859375	-0.00069976806640625	3573.29802997829
0.774383544921875	-0.00070587158203125	3573.74053497717
0.76995849609375	-0.0007110595703125	3574.18303997606
0.765533447265625	-0.000716552734375	3574.62554497494
0.7611083984375	-0.00072174072265625	3575.06804997382
0.756683349609375	-0.00072662353515625	3575.5105549727
0.75225830078125	-0.00073211669921875	3575.95305997159
0.747833251953125	-0.0007366943359375	3576.39556497047
0.743408203125	-0.00074127197265625	3576.83806996935
0.738983154296875	-0.00074493408203125	3577.28057496823
0.73455810546875	-0.00075042724609375	3577.72307996712
0.730133056640625	-0.00075531005859375	3578.165584966
0.7257080078125	-0.0007598876953125	3578.60808996488
0.721282958984375	-0.00076446533203125	3579.05059496377
0.71685791015625	-0.00076873779296875	3579.49309996265
0.712432861328125	-0.0007733154296875	3579.93560496153
0.7080078125	-0.00077789306640625	3580.37810996041
0.703582763671875	-0.0007818603515625	3580.8206149593
0.69915771484375	-0.00078521728515625	3581.26311995818
0.694732666015625	-0.00078948974609375	3581.70562495706
0.6903076171875	-0.00079345703125	3582.14812995595
0.685882568359375	-0.00079742431640625	3582.59063495483
0.68145751953125	-0.000802001953125	3583.03313995371
0.677032470703125	-0.00080596923828125	3583.47564495259
0.672607421875	-0.0008099365234375	3583.91814995148
0.668182373046875	-0.00081390380859375	3584.36065495036
0.66375732421875	-0.0008184814453125	3584.80315994924
0.659332275390625	-0.0008221435546875	3585.24566494812
0.6549072265625	-0.00082611083984375	3585.68816994701
0.650482177734375	-0.0008294677734375	3586.13067494589
0.64605712890625	-0.0008331298828125	3586.57317994477
0.641632080078125	-0.00083709716796875	3587.01568494366
0.63720703125	-0.00084075927734375	3587.45818994254
0.632781982421875	-0.0008441162109375	3587.90069494142
0.62835693359375	-0.0008477783203125	3588.3431999403
0.623931884765625	-0.00085357666015625	3588.78570493919
0.6195068359375	-0.00085662841796875	3589.22820993807
0.615081787109375	-0.000859375	3589.67071493695
0.61065673828125	-0.00086273193359375	3590.11321993584
0.606231689453125	-0.0008660888671875	3590.55572493472
0.601806640625	-0.000869140625	3590.9982299336
0.597381591796875	-0.0008721923828125	3591.44073493248
0.59295654296875	-0.000875244140625	3591.88323993137
0.588531494140625	-0.00087860107421875	3592.32574493025
0.5841064453125	-0.00088043212890625	3592.76824992913
0.579681396484375	-0.00088409423828125	3593.21075492801
0.57525634765625	-0.000887451171875	3593.6532599269
0.570831298828125	-0.0008905029296875	3594.09576492578
0.56640625	-0.0008941650390625	3594.53826992466
0.561981201171875	-0.000897216796875	3594.98077492355
0.55755615234375	-0.00089996337890625	3595.42327992243
0.553131103515625	-0.00090301513671875	3595.86578492131
0.5487060546875	-0.00090576171875	3596.30828992019
0.544281005859375	-0.00090789794921875	3596.75079491908
0.53985595703125	-0.0009112548828125	3597.19329991796
0.535430908203125	-0.00091400146484375	3597.63580491684
0.531005859375	-0.00091705322265625	3598.07830991573
0.526580810546875	-0.00091949462890625	3598.52081491461
0.52215576171875	-0.0009222412109375	3598.96331991349
0.517730712890625	-0.00092498779296875	3599.40582491237
0.5133056640625	-0.000927734375	3599.84832991126
0.508880615234375	-0.00092987060546875	3600.29083491014
0.50445556640625	-0.0009326171875	3600.73333990902
0.500030517578125	-0.00093505859375	3601.17584490791
0.49560546875	-0.00093780517578125	3601.61834990679
0.491180419921875	-0.00093994140625	3602.06085490567
0.48675537109375	-0.00094268798828125	3602.50335990455
0.482330322265625	-0.0009454345703125	3602.94586490344
0.4779052734375	-0.0009478759765625	3603.38836990232
0.473480224609375	-0.00094970703125	3603.8308749012
0.46905517578125	-0.00095245361328125	3604.27337990008
0.464630126953125	-0.00095428466796875	3604.71588489897
0.460205078125	-0.00095703125	3605.15838989785
0.455780029296875	-0.00095916748046875	3605.60089489673
0.45135498046875	-0.00096160888671875	3606.04339989562
0.446929931640625	-0.00096405029296875	3606.4859048945
0.4425048828125	-0.00096649169921875	3606.92840989338
0.438079833984375	-0.00096893310546875	3607.37091489226
0.43365478515625	-0.0009710693359375	3607.81341989115
0.429229736328125	-0.00097320556640625	3608.25592489003
0.4248046875	-0.0009759521484375	3608.69842988891
0.420379638671875	-0.0009783935546875	3609.1409348878
0.41595458984375	-0.0009808349609375	3609.58343988668
0.411529541015625	-0.00098297119140625	3610.02594488556
0.4071044921875	-0.00098541259765625	3610.46844988444
0.402679443359375	-0.00098724365234375	3610.91095488333
0.39825439453125	-0.000989990234375	3611.35345988221
0.393829345703125	-0.000992431640625	3611.79596488109
0.389404296875	-0.0009942626953125	3612.23846987997
0.384979248046875	-0.00099639892578125	3612.68097487886
0.38055419921875	-0.0009991455078125	3613.12347987774
0.376129150390625	-0.0010015869140625	3613.56598487662
0.3717041015625	-0.0010040283203125	3614.00848987551
0.367279052734375	-0.001007080078125	3614.45099487439
0.36285400390625	-0.00100982666015625	3614.89349987327
0.358428955078125	-0.00101226806640625	3615.33600487215
0.35400390625	-0.0010150146484375	3615.77850987104
0.349578857421875	-0.00101531982421875	3616.22101486992
0.34515380859375	-0.00101837158203125	3616.6635198688
0.340728759765625	-0.0010205078125	3617.10602486768
0.3363037109375	-0.00102264404296875	3617.54852986657
0.331878662109375	-0.001025390625	3617.99103486545
0.32745361328125	-0.00102813720703125	3618.43353986433
0.323028564453125	-0.00103057861328125	3618.87604486322
0.318603515625	-0.00103302001953125	3619.3185498621
0.314178466796875	-0.00103607177734375	3619.76105486098
0.30975341796875	-0.0010406494140625	3620.20355985986
0.305328369140625	-0.0010430908203125	3620.64606485875
0.3009033203125	-0.00104522705078125	3621.08856985763
0.296478271484375	-0.00104766845703125	3621.53107485651
0.29205322265625	-0.001051025390625	3621.9735798554
0.287628173828125	-0.00105377197265625	3622.41608485428
0.283203125	-0.00105712890625	3622.85858985316
0.278778076171875	-0.00105987548828125	3623.30109485204
0.27435302734375	-0.0010626220703125	3623.74359985093
0.269927978515625	-0.0010662841796875	3624.18610484981
0.2655029296875	-0.0010693359375	3624.62860984869
0.261077880859375	-0.00107269287109375	3625.07111484758
0.25665283203125	-0.0010760498046875	3625.51361984646
0.252227783203125	-0.00107940673828125	3625.95612484534
0.247802734375	-0.00108306884765625	3626.39862984422
0.243377685546875	-0.00108642578125	3626.84113484311
0.23895263671875	-0.00108978271484375	3627.28363984199
0.234527587890625	-0.00109375	3627.72614484087
0.2301025390625	-0.00109619140625	3628.16864983975
0.225677490234375	-0.00110015869140625	3628.61115483864
0.22125244140625	-0.0011041259765625	3629.05365983752
0.216827392578125	-0.00110809326171875	3629.4961648364
0.21240234375	-0.001112060546875	3629.93866983529
0.207977294921875	-0.0011163330078125	3630.38117483417
0.20355224609375	-0.00112030029296875	3630.82367983305
0.199127197265625	-0.0011248779296875	3631.26618483193
0.1947021484375	-0.00112884521484375	3631.70868983082
0.190277099609375	-0.00113311767578125	3632.1511948297
0.18585205078125	-0.00113739013671875	3632.59369982858
0.181427001953125	-0.001141357421875	3633.03620482747
0.177001953125	-0.00114654541015625	3633.47870982635
0.172576904296875	-0.001151123046875	3633.92121482523
0.16815185546875	-0.00115631103515625	3634.36371982411
0.163726806640625	-0.0011614990234375	3634.806224823
0.1593017578125	-0.0011663818359375	3635.24872982188
0.154876708984375	-0.001170654296875	3635.69123482076
0.15045166015625	-0.00117584228515625	3636.13373981964
0.146026611328125	-0.00118133544921875	3636.57624481853
0.1416015625	-0.00118682861328125	3637.01874981741
0.137176513671875	-0.0011920166015625	3637.46125481629
0.13275146484375	-0.001197509765625	3637.90375981518
0.128326416015625	-0.0012030029296875	3638.34626481406
0.1239013671875	-0.0012091064453125	3638.78876981294
0.119476318359375	-0.00121551513671875	3639.23127481182
0.11505126953125	-0.0012200927734375	3639.67377981071
0.110626220703125	-0.001226806640625	3640.11628480959
0.106201171875	-0.00123291015625	3640.55878980847
0.101776123046875	-0.00123992919921875	3641.00129480736
0.09735107421875	-0.00124664306640625	3641.44379980624
0.092926025390625	-0.00125335693359375	3641.88630480512
0.0885009765625	-0.001259765625	3642.328809804
0.084075927734375	-0.00126678466796875	3642.77131480289
0.07965087890625	-0.0012744140625	3643.21381980177
0.075225830078125	-0.00128143310546875	3643.65632480065
0.07080078125	-0.00128875732421875	3644.09882979953
0.066375732421875	-0.00129638671875	3644.54133479842
0.06195068359375	-0.0013037109375	3644.9838397973
0.057525634765625	-0.00131256103515625	3645.42634479618
0.0531005859375	-0.00132080078125	3645.86884979507
0.048675537109375	-0.001329345703125	3646.31135479395
0.04425048828125	-0.00133758544921875	3646.75385979283
0.039825439453125	-0.00134613037109375	3647.19636479171
0.035400390625	-0.00135406494140625	3647.6388697906
0.030975341796875	-0.00136383056640625	3648.08137478948
0.02655029296875	-0.0013726806640625	3648.52387978836
0.022125244140625	-0.001383056640625	3648.96638478725
0.0177001953125	-0.00139190673828125	3649.40888978613
0.013275146484375	-0.00140167236328125	3649.85139478501
0.00885009765625	-0.00141082763671875	3650.29389978389
0.004425048828125	-0.00142059326171875	3650.73640478278
0	-0.0014312744140625	3651.17890978166
0.004425048828125	-0.0009100341796875	3651.62141478054
0.00885009765625	-0.00051788330078125	3652.06391977942
0.013275146484375	-0.00021533203125	3652.50642477831
0.0177001953125	2.047119140625E-05	3652.94892977719
0.022125244140625	0.00020672607421875	3653.39143477607
0.02655029296875	0.000355499267578125	3653.83393977496
0.030975341796875	0.000475616455078125	3654.27644477384
0.035400390625	0.0005699462890625	3654.71894977272
0.039825439453125	0.000643402099609375	3655.1614547716
0.04425048828125	0.00070343017578125	3655.60395977049
0.048675537109375	0.00075286865234375	3656.04646476937
0.0531005859375	0.0007916259765625	3656.48896976825
0.057525634765625	0.00082305908203125	3656.93147476714
0.06195068359375	0.000848388671875	3657.37397976602
0.066375732421875	0.0008709716796875	3657.8164847649
0.07080078125	0.00088958740234375	3658.25898976378
0.075225830078125	0.00090545654296875	3658.70149476267
0.07965087890625	0.000916748046875	3659.14399976155
0.084075927734375	0.000926513671875	3659.58650476043
0.0885009765625	0.000933837890625	3660.02900975932
0.092926025390625	0.00093963623046875	3660.4715147582
0.09735107421875	0.00094390869140625	3660.91401975708
0.101776123046875	0.00094818115234375	3661.35652475596
0.106201171875	0.0009503173828125	3661.79902975485
0.110626220703125	0.00095123291015625	3662.24153475373
0.11505126953125	0.00095245361328125	3662.68403975261
0.119476318359375	0.00095184326171875	3663.12654475149
0.1239013671875	0.0009521484375	3663.56904975038
0.128326416015625	0.00095245361328125	3664.01155474926
0.13275146484375	0.0009515380859375	3664.45405974814
0.137176513671875	0.000950927734375	3664.89656474703
0.1416015625	0.0009490966796875	3665.33906974591
0.146026611328125	0.0009466552734375	3665.78157474479
0.15045166015625	0.0009442138671875	3666.22407974367
0.154876708984375	0.00094146728515625	3666.66658474256
0.1593017578125	0.00093841552734375	3667.10908974144
0.163726806640625	0.000936279296875	3667.55159474032
0.16815185546875	0.00093353271484375	3667.99409973921
0.172576904296875	0.0009307861328125	3668.43660473809
0.177001953125	0.00092803955078125	3668.87910973697
0.181427001953125	0.00092437744140625	3669.32161473585
0.18585205078125	0.00092254638671875	3669.76411973474
0.190277099609375	0.00092010498046875	3670.20662473362
0.1947021484375	0.000916748046875	3670.6491297325
0.199127197265625	0.0009130859375	3671.09163473138
0.20355224609375	0.00091033935546875	3671.53413973027
0.207977294921875	0.000906982421875	3671.97664472915
0.21240234375	0.0009039306640625	3672.41914972803
0.216827392578125	0.00090057373046875	3672.86165472692
0.22125244140625	0.00089752197265625	3673.3041597258
0.225677490234375	0.000894775390625	3673.74666472468
0.2301025390625	0.00089141845703125	3674.18916972356
0.234527587890625	0.0008880615234375	3674.63167472245
0.23895263671875	0.0008856201171875	3675.07417972133
0.243377685546875	0.00088287353515625	3675.51668472021
0.247802734375	0.00088043212890625	3675.9591897191
0.252227783203125	0.00087799072265625	3676.40169471798
0.25665283203125	0.000875244140625	3676.84419971686
0.261077880859375	0.00087249755859375	3677.28670471574
0.2655029296875	0.00087005615234375	3677.72920971463
0.269927978515625	0.0008673095703125	3678.17171471351
0.27435302734375	0.00086456298828125	3678.61421971239
0.278778076171875	0.00086212158203125	3679.05672471127
0.283203125	0.00085968017578125	3679.49922971016
0.287628173828125	0.0008575439453125	3679.94173470904
0.29205322265625	0.0008551025390625	3680.38423970792
0.296478271484375	0.00085235595703125	3680.82674470681
0.3009033203125	0.00085052490234375	3681.26924970569
0.305328369140625	0.000848388671875	3681.71175470457
0.30975341796875	0.000845947265625	3682.15425970345
0.314178466796875	0.00084564208984375	3682.59676470234
0.318603515625	0.00084320068359375	3683.03926970122
0.323028564453125	0.00084075927734375	3683.4817747001
0.32745361328125	0.00083892822265625	3683.92427969899
0.331878662109375	0.00083648681640625	3684.36678469787
0.3363037109375	0.0008349609375	3684.80928969675
0.340728759765625	0.0008331298828125	3685.25179469563
0.34515380859375	0.00083160400390625	3685.69429969452
0.349578857421875	0.000830078125	3686.1368046934
0.35400390625	0.00082733154296875	3686.57930969228
0.358428955078125	0.000826416015625	3687.02181469116
0.36285400390625	0.0008251953125	3687.46431969005
0.367279052734375	0.000823974609375	3687.90682468893
0.3717041015625	0.00082305908203125	3688.34932968781
0.376129150390625	0.00082244873046875	3688.7918346867
0.38055419921875	0.00082122802734375	3689.23433968558
0.384979248046875	0.00082061767578125	3689.67684468446
0.389404296875	0.0008197021484375	3690.11934968334
0.393829345703125	0.00081878662109375	3690.56185468223
0.39825439453125	0.00081787109375	3691.00435968111
0.402679443359375	0.00081756591796875	3691.44686467999
0.4071044921875	0.0008172607421875	3691.88936967888
0.411529541015625	0.00081695556640625	3692.33187467776
0.41595458984375	0.000816650390625	3692.77437967664
0.420379638671875	0.000816650390625	3693.21688467552
0.4248046875	0.00081634521484375	3693.65938967441
0.429229736328125	0.0008160400390625	3694.10189467329
0.43365478515625	0.0008160400390625	3694.54439967217
0.438079833984375	0.00081634521484375	3694.98690467105
0.4425048828125	0.00081573486328125	3695.42940966994
0.446929931640625	0.00081695556640625	3695.87191466882
0.45135498046875	0.000816650390625	3696.3144196677
0.455780029296875	0.00081695556640625	3696.75692466659
0.460205078125	0.0008172607421875	3697.19942966547
0.464630126953125	0.00081787109375	3697.64193466435
0.46905517578125	0.00081817626953125	3698.08443966323
0.473480224609375	0.000819091796875	3698.52694466212
0.4779052734375	0.00081939697265625	3698.969449661
0.482330322265625	0.0008203125	3699.41195465988
0.48675537109375	0.000821533203125	3699.85445965877
0.491180419921875	0.00082244873046875	3700.29696465765
0.49560546875	0.0008233642578125	3700.73946965653
0.500030517578125	0.00082427978515625	3701.18197465541
0.50445556640625	0.00082550048828125	3701.6244796543
0.508880615234375	0.00082672119140625	3702.06698465318
0.5133056640625	0.00082763671875	3702.50948965206
0.517730712890625	0.00082916259765625	3702.95199465094
0.52215576171875	0.0008306884765625	3703.39449964983
0.526580810546875	0.00083251953125	3703.83700464871
0.531005859375	0.0008343505859375	3704.27950964759
0.535430908203125	0.0008355712890625	3704.72201464648
0.53985595703125	0.00083740234375	3705.16451964536
0.544281005859375	0.00083953857421875	3705.60702464424
0.5487060546875	0.0008404541015625	3706.04952964312
0.553131103515625	0.0008428955078125	3706.49203464201
0.55755615234375	0.00084503173828125	3706.93453964089
0.561981201171875	0.00084747314453125	3707.37704463977
0.56640625	0.00084991455078125	3707.81954963866
0.570831298828125	0.00085205078125	3708.26205463754
0.57525634765625	0.00085418701171875	3708.70455963642
0.579681396484375	0.00085693359375	3709.1470646353
0.5841064453125	0.00085968017578125	3709.58956963419
0.588531494140625	0.00086090087890625	3710.03207463307
0.59295654296875	0.0008642578125	3710.47457963195
0.597381591796875	0.0008673095703125	3710.91708463084
0.601806640625	0.00087005615234375	3711.35958962972
0.606231689453125	0.0008734130859375	3711.8020946286
0.61065673828125	0.00087646484375	3712.24459962748
0.615081787109375	0.00087982177734375	3712.68710462637
0.6195068359375	0.0008831787109375	3713.12960962525
0.623931884765625	0.00088653564453125	3713.57211462413
0.62835693359375	0.00089202880859375	3714.01461962301
0.632781982421875	0.00089508056640625	3714.4571246219
0.63720703125	0.0008984375	3714.89962962078
0.641632080078125	0.00090179443359375	3715.34213461966
0.64605712890625	0.0009051513671875	3715.78463961855
0.650482177734375	0.00090911865234375	3716.22714461743
0.6549072265625	0.0009130859375	3716.66964961631
0.659332275390625	0.00091766357421875	3717.11215461519
0.66375732421875	0.00092132568359375	3717.55465961408
0.668182373046875	0.00092559814453125	3717.99716461296
0.672607421875	0.00092987060546875	3718.43966961184
0.677032470703125	0.0009344482421875	3718.88217461073
0.68145751953125	0.0009393310546875	3719.32467960961
0.685882568359375	0.000943603515625	3719.76718460849
0.6903076171875	0.00094818115234375	3720.20968960737
0.694732666015625	0.00095367431640625	3720.65219460626
0.69915771484375	0.00095855712890625	3721.09469960514
0.703582763671875	0.00096343994140625	3721.53720460402
0.7080078125	0.00096923828125	3721.9797096029
0.712432861328125	0.000975341796875	3722.42221460179
0.71685791015625	0.00098114013671875	3722.86471960067
0.721282958984375	0.0009869384765625	3723.30722459955
0.7257080078125	0.00099273681640625	3723.74972959844
0.730133056640625	0.0009991455078125	3724.19223459732
0.73455810546875	0.00100555419921875	3724.6347395962
0.738983154296875	0.00101226806640625	3725.07724459508
0.743408203125	0.00101776123046875	3725.51974959397
0.747833251953125	0.001025390625	3725.96225459285
0.75225830078125	0.00103302001953125	3726.40475959173
0.756683349609375	0.0010406494140625	3726.84726459061
0.7611083984375	0.001048583984375	3727.2897695895
0.765533447265625	0.00105621337890625	3727.73227458838
0.76995849609375	0.0010650634765625	3728.17477958726
0.774383544921875	0.00107391357421875	3728.61728458615
0.77880859375	0.001082763671875	3729.05978958503
0.783233642578125	0.00109161376953125	3729.50229458391
0.78765869140625	0.00110107421875	3729.94479958279
0.792083740234375	0.00111083984375	3730.38730458168
0.7965087890625	0.001121826171875	3730.82980958056
0.800933837890625	0.00113250732421875	3731.27231457944
0.80535888671875	0.00114410400390625	3731.71481957833
0.809783935546875	0.00115631103515625	3732.15732457721
0.814208984375	0.001168212890625	3732.59982957609
0.818634033203125	0.0011810302734375	3733.04233457497
0.82305908203125	0.0011944580078125	3733.48483957386
0.827484130859375	0.00120849609375	3733.92734457274
0.8319091796875	0.00122283935546875	3734.36984957162
0.836334228515625	0.00123748779296875	3734.81235457051
0.84075927734375	0.00125335693359375	3735.25485956939
0.845184326171875	0.00126922607421875	3735.69736456827
0.849609375	0.00128662109375	3736.13986956715
0.854034423828125	0.0013043212890625	3736.58237456604
0.85845947265625	0.0013232421875	3737.02487956492
0.862884521484375	0.0013421630859375	3737.4673845638
0.8673095703125	0.0013629150390625	3737.90988956268
0.871734619140625	0.00138427734375	3738.35239456157
0.87615966796875	0.00140655517578125	3738.79489956045
0.880584716796875	0.0014300537109375	3739.23740455933
0.885009765625	0.00145538330078125	3739.67990955822
0.889434814453125	0.00148101806640625	3740.1224145571
0.89385986328125	0.00150787353515625	3740.56491955598
0.898284912109375	0.001536865234375	3741.00742455486
0.9027099609375	0.0015667724609375	3741.44992955375
0.907135009765625	0.00159820556640625	3741.89243455263
0.91156005859375	0.0016314697265625	3742.33493955151
0.915985107421875	0.001666259765625	3742.7774445504
0.92041015625	0.00170318603515625	3743.21994954928
0.924835205078125	0.0017413330078125	3743.66245454816
0.92926025390625	0.0017822265625	3744.10495954704
0.933685302734375	0.001824951171875	3744.54746454593
0.9381103515625	0.00187164306640625	3744.98996954481
0.942535400390625	0.0019195556640625	3745.43247454369
0.94696044921875	0.00196990966796875	3745.87497954257
0.951385498046875	0.0020233154296875	3746.31748454146
0.955810546875	0.00207916259765625	3746.75998954034
0.960235595703125	0.00213836669921875	3747.20249453922
0.96466064453125	0.00220184326171875	3747.64499953811
0.969085693359375	0.00226776123046875	3748.08750453699
0.9735107421875	0.002337646484375	3748.53000953587
0.977935791015625	0.00240997314453125	3748.97251453475
0.98236083984375	0.00248687744140625	3749.41501953364
0.986785888671875	0.002568359375	3749.85752453252
0.9912109375	0.00265380859375	3750.3000295314
0.995635986328125	0.00274322509765625	3750.74253453029
1.00006103515625	0.00283721923828125	3751.18503952917
0.995635986328125	0.00241119384765625	3751.62754452805
0.9912109375	0.00207916259765625	3752.07004952693
0.986785888671875	0.00180511474609375	3752.51255452582
0.98236083984375	0.0015679931640625	3752.9550595247
0.977935791015625	0.00135894775390625	3753.39756452358
0.9735107421875	0.00117279052734375	3753.84006952247
0.969085693359375	0.001004638671875	3754.28257452135
0.96466064453125	0.0008514404296875	3754.72507952023
0.960235595703125	0.00071258544921875	3755.16758451911
0.955810546875	0.0005859375	3755.610089518
0.951385498046875	0.00047088623046875	3756.05259451688
0.94696044921875	0.000365814208984375	3756.49509951576
0.942535400390625	0.000269805908203125	3756.93760451464
0.9381103515625	0.00018304443359375	3757.38010951353
0.933685302734375	0.000101715087890625	3757.82261451241
0.92926025390625	3.00933837890625E-05	3758.26511951129
0.924835205078125	-3.504638671875E-05	3758.70762451018
0.92041015625	-9.46044921875E-05	3759.15012950906
0.915985107421875	-0.000148101806640625	3759.59263450794
0.91156005859375	-0.000196868896484375	3760.03513950682
0.907135009765625	-0.000241180419921875	3760.47764450571
0.9027099609375	-0.0002813720703125	3760.92014950459
0.898284912109375	-0.000317657470703125	3761.36265450347
0.89385986328125	-0.000351165771484375	3761.80515950235
0.889434814453125	-0.000380859375	3762.24766450124
0.885009765625	-0.000408294677734375	3762.69016950012
0.880584716796875	-0.000433074951171875	3763.132674499
0.87615966796875	-0.00045562744140625	3763.57517949789
0.871734619140625	-0.00047637939453125	3764.01768449677
0.8673095703125	-0.000495452880859375	3764.46018949565
0.862884521484375	-0.000512908935546875	3764.90269449453
0.85845947265625	-0.000528045654296875	3765.34519949342
0.854034423828125	-0.00054302978515625	3765.7877044923
0.849609375	-0.00055670166015625	3766.23020949118
0.845184326171875	-0.000569244384765625	3766.67271449007
0.84075927734375	-0.000581146240234375	3767.11521948895
0.836334228515625	-0.000592041015625	3767.55772448783
0.8319091796875	-0.00060235595703125	3768.00022948671
0.827484130859375	-0.00061187744140625	3768.4427344856
0.82305908203125	-0.0006207275390625	3768.88523948448
0.818634033203125	-0.00062896728515625	3769.32774448336
0.814208984375	-0.00063720703125	3769.77024948225
0.809783935546875	-0.00064453125	3770.21275448113
0.80535888671875	-0.00065216064453125	3770.65525948001
0.800933837890625	-0.0006591796875	3771.09776447889
0.7965087890625	-0.0006658935546875	3771.54026947778
0.792083740234375	-0.0006719970703125	3771.98277447666
0.78765869140625	-0.0006781005859375	3772.42527947554
0.783233642578125	-0.00068389892578125	3772.86778447442
0.77880859375	-0.000689697265625	3773.31028947331
0.774383544921875	-0.0006951904296875	3773.75279447219
0.76995849609375	-0.0007000732421875	3774.19529947107
0.765533447265625	-0.00070526123046875	3774.63780446996
0.7611083984375	-0.00071075439453125	3775.08030946884
0.756683349609375	-0.00071563720703125	3775.52281446772
0.75225830078125	-0.00072021484375	3775.9653194666
0.747833251953125	-0.00072540283203125	3776.40782446549
0.743408203125	-0.00072998046875	3776.85032946437
0.738983154296875	-0.000733642578125	3777.29283446325
0.73455810546875	-0.000738525390625	3777.73533946214
0.730133056640625	-0.0007427978515625	3778.17784446102
0.7257080078125	-0.00074737548828125	3778.6203494599
0.721282958984375	-0.00075164794921875	3779.06285445878
0.71685791015625	-0.00075592041015625	3779.50535945767
0.712432861328125	-0.000760498046875	3779.94786445655
0.7080078125	-0.0007647705078125	3780.39036945543
0.703582763671875	-0.00076934814453125	3780.83287445431
0.69915771484375	-0.00077239990234375	3781.2753794532
0.694732666015625	-0.0007769775390625	3781.71788445208
0.6903076171875	-0.0007806396484375	3782.16038945096
0.685882568359375	-0.000784912109375	3782.60289444985
0.68145751953125	-0.00078857421875	3783.04539944873
0.677032470703125	-0.000792236328125	3783.48790444761
0.672607421875	-0.00079620361328125	3783.93040944649
0.668182373046875	-0.0008001708984375	3784.37291444538
0.66375732421875	-0.0008038330078125	3784.81541944426
0.659332275390625	-0.00080780029296875	3785.25792444314
0.6549072265625	-0.00081207275390625	3785.70042944203
0.650482177734375	-0.00081512451171875	3786.14293444091
0.64605712890625	-0.00081878662109375	3786.58543943979
0.641632080078125	-0.0008221435546875	3787.02794443867
0.63720703125	-0.000826416015625	3787.47044943756
0.632781982421875	-0.0008294677734375	3787.91295443644
0.62835693359375	-0.0008331298828125	3788.35545943532
0.623931884765625	-0.000838623046875	3788.7979644342
0.6195068359375	-0.00084136962890625	3789.24046943309
0.615081787109375	-0.00084442138671875	3789.68297443197
0.61065673828125	-0.00084747314453125	3790.12547943085
0.606231689453125	-0.0008502197265625	3790.56798442974
0.601806640625	-0.00085357666015625	3791.01048942862
0.597381591796875	-0.00085693359375	3791.4529944275
0.59295654296875	-0.00085968017578125	3791.89549942638
0.588531494140625	-0.000863037109375	3792.33800442527
0.5841064453125	-0.00086456298828125	3792.78050942415
0.579681396484375	-0.00086822509765625	3793.22301442303
0.57525634765625	-0.00087127685546875	3793.66551942192
0.570831298828125	-0.0008746337890625	3794.1080244208
0.56640625	-0.000877685546875	3794.55052941968
0.561981201171875	-0.0008807373046875	3794.99303441856
0.55755615234375	-0.0008837890625	3795.43553941745
0.553131103515625	-0.00088653564453125	3795.87804441633
0.5487060546875	-0.0008892822265625	3796.32054941521
0.544281005859375	-0.00089141845703125	3796.76305441409
0.53985595703125	-0.00089508056640625	3797.20555941298
0.535430908203125	-0.0008978271484375	3797.64806441186
0.531005859375	-0.00090057373046875	3798.09056941074
0.526580810546875	-0.0009033203125	3798.53307440963
0.52215576171875	-0.00090606689453125	3798.97557940851
0.517730712890625	-0.0009088134765625	3799.41808440739
0.5133056640625	-0.0009112548828125	3799.86058940627
0.508880615234375	-0.00091400146484375	3800.30309440516
0.50445556640625	-0.0009161376953125	3800.74559940404
0.500030517578125	-0.0009185791015625	3801.18810440292
0.49560546875	-0.00092132568359375	3801.63060940181
0.491180419921875	-0.00092376708984375	3802.07311440069
0.48675537109375	-0.00092681884765625	3802.51561939957
0.482330322265625	-0.00092926025390625	3802.95812439845
0.4779052734375	-0.0009320068359375	3803.40062939734
0.473480224609375	-0.00093414306640625	3803.84313439622
0.46905517578125	-0.00093658447265625	3804.2856393951
0.464630126953125	-0.00093841552734375	3804.72814439398
0.460205078125	-0.000941162109375	3805.17064939287
0.455780029296875	-0.00094329833984375	3805.61315439175
0.45135498046875	-0.00094573974609375	3806.05565939063
0.446929931640625	-0.00094818115234375	3806.49816438952
0.4425048828125	-0.000950927734375	3806.9406693884
0.438079833984375	-0.00095367431640625	3807.38317438728
0.43365478515625	-0.000955810546875	3807.82567938616
0.429229736328125	-0.00095794677734375	3808.26818438505
0.4248046875	-0.000960693359375	3808.71068938393
0.420379638671875	-0.000963134765625	3809.15319438281
0.41595458984375	-0.000965576171875	3809.5956993817
0.411529541015625	-0.00096832275390625	3810.03820438058
0.4071044921875	-0.000970458984375	3810.48070937946
0.402679443359375	-0.00097259521484375	3810.92321437834
0.39825439453125	-0.00097442626953125	3811.36571937723
0.393829345703125	-0.0009771728515625	3811.80822437611
0.389404296875	-0.00097900390625	3812.25072937499
0.384979248046875	-0.0009814453125	3812.69323437387
0.38055419921875	-0.00098419189453125	3813.13573937276
0.376129150390625	-0.0009869384765625	3813.57824437164
0.3717041015625	-0.0009893798828125	3814.02074937052
0.367279052734375	-0.000992431640625	3814.46325436941
0.36285400390625	-0.0009954833984375	3814.90575936829
0.358428955078125	-0.0009979248046875	3815.34826436717
0.35400390625	-0.00100006103515625	3815.79076936605
0.349578857421875	-0.00100128173828125	3816.23327436494
0.34515380859375	-0.0010040283203125	3816.67577936382
0.340728759765625	-0.00100616455078125	3817.1182843627
0.3363037109375	-0.001009521484375	3817.56078936159
0.331878662109375	-0.001011962890625	3818.00329436047
0.32745361328125	-0.001014404296875	3818.44579935935
0.323028564453125	-0.00101715087890625	3818.88830435823
0.318603515625	-0.0010198974609375	3819.33080935712
0.314178466796875	-0.00102325439453125	3819.773314356
0.30975341796875	-0.00102752685546875	3820.21581935488
0.305328369140625	-0.0010296630859375	3820.65832435377
0.3009033203125	-0.00103271484375	3821.10082935265
0.296478271484375	-0.00103546142578125	3821.54333435153
0.29205322265625	-0.00103851318359375	3821.98583935041
0.287628173828125	-0.001041259765625	3822.4283443493
0.283203125	-0.0010443115234375	3822.87084934818
0.278778076171875	-0.0010467529296875	3823.31335434706
0.27435302734375	-0.00105010986328125	3823.75585934594
0.269927978515625	-0.001053466796875	3824.19836434483
0.2655029296875	-0.00105682373046875	3824.64086934371
0.261077880859375	-0.0010601806640625	3825.08337434259
0.25665283203125	-0.0010638427734375	3825.52587934148
0.252227783203125	-0.00106719970703125	3825.96838434036
0.247802734375	-0.00107086181640625	3826.41088933924
0.243377685546875	-0.0010748291015625	3826.85339433812
0.23895263671875	-0.0010784912109375	3827.29589933701
0.234527587890625	-0.00108245849609375	3827.73840433589
0.2301025390625	-0.00108489990234375	3828.18090933477
0.225677490234375	-0.0010888671875	3828.62341433366
0.22125244140625	-0.0010931396484375	3829.06591933254
0.216827392578125	-0.0010968017578125	3829.50842433142
0.21240234375	-0.00110107421875	3829.9509293303
0.207977294921875	-0.0011053466796875	3830.39343432919
0.20355224609375	-0.0011090087890625	3830.83593932807
0.199127197265625	-0.00111358642578125	3831.27844432695
0.1947021484375	-0.00111785888671875	3831.72094932583
0.190277099609375	-0.0011224365234375	3832.16345432472
0.18585205078125	-0.001126708984375	3832.6059593236
0.181427001953125	-0.00113128662109375	3833.04846432248
0.177001953125	-0.00113616943359375	3833.49096932137
0.172576904296875	-0.00114105224609375	3833.93347432025
0.16815185546875	-0.00114593505859375	3834.37597931913
0.163726806640625	-0.00115081787109375	3834.81848431801
0.1593017578125	-0.00115570068359375	3835.2609893169
0.154876708984375	-0.00116058349609375	3835.70349431578
0.15045166015625	-0.00116607666015625	3836.14599931466
0.146026611328125	-0.00117156982421875	3836.58850431354
0.1416015625	-0.00117706298828125	3837.03100931243
0.137176513671875	-0.0011822509765625	3837.47351431131
0.13275146484375	-0.00118804931640625	3837.91601931019
0.128326416015625	-0.00119384765625	3838.35852430908
0.1239013671875	-0.001199951171875	3838.80102930796
0.119476318359375	-0.00120574951171875	3839.24353430684
0.11505126953125	-0.00121063232421875	3839.68603930572
0.110626220703125	-0.00121734619140625	3840.12854430461
0.106201171875	-0.00122406005859375	3840.57104930349
0.101776123046875	-0.00123016357421875	3841.01355430237
0.09735107421875	-0.0012371826171875	3841.45605930126
0.092926025390625	-0.001243896484375	3841.89856430014
0.0885009765625	-0.00125030517578125	3842.34106929902
0.084075927734375	-0.0012567138671875	3842.7835742979
0.07965087890625	-0.0012646484375	3843.22607929679
0.075225830078125	-0.00127105712890625	3843.66858429567
0.07080078125	-0.00127899169921875	3844.11108929455
0.066375732421875	-0.00128662109375	3844.55359429344
0.06195068359375	-0.0012939453125	3844.99609929232
0.057525634765625	-0.0013018798828125	3845.4386042912
0.0531005859375	-0.00131011962890625	3845.88110929008
0.048675537109375	-0.001318359375	3846.32361428897
0.04425048828125	-0.001326904296875	3846.76611928785
0.039825439453125	-0.00133514404296875	3847.20862428673
0.035400390625	-0.00134368896484375	3847.65112928561
0.030975341796875	-0.00135223388671875	3848.0936342845
0.02655029296875	-0.00136199951171875	3848.53613928338
0.022125244140625	-0.00137115478515625	3848.97864428226
0.0177001953125	-0.001380615234375	3849.42114928115
0.013275146484375	-0.001390380859375	3849.86365428003
0.00885009765625	-0.00140045166015625	3850.30615927891
0.004425048828125	-0.00141021728515625	3850.74866427779
0	-0.00142059326171875	3851.19116927668
0.004425048828125	-0.0009014892578125	3851.63367427556
0.00885009765625	-0.00050994873046875	3852.07617927444
0.013275146484375	-0.000208648681640625	3852.51868427333
0.0177001953125	2.71270751953125E-05	3852.96118927221
0.022125244140625	0.00021295166015625	3853.40369427109
0.02655029296875	0.0003616943359375	3853.84619926997
0.030975341796875	0.000481719970703125	3854.28870426886
0.035400390625	0.00057568359375	3854.73120926774
0.039825439453125	0.000648651123046875	3855.17371426662
0.04425048828125	0.00070892333984375	3855.6162192655
0.048675537109375	0.00075775146484375	3856.05872426439
0.0531005859375	0.000797119140625	3856.50122926327
0.057525634765625	0.00082794189453125	3856.94373426215
0.06195068359375	0.00085357666015625	3857.38623926104
0.066375732421875	0.0008758544921875	3857.82874425992
0.07080078125	0.00089447021484375	3858.2712492588
0.075225830078125	0.000909423828125	3858.71375425768
0.07965087890625	0.00092071533203125	3859.15625925657
0.084075927734375	0.00093017578125	3859.59876425545
0.0885009765625	0.0009368896484375	3860.04126925433
0.092926025390625	0.00094268798828125	3860.48377425322
0.09735107421875	0.00094757080078125	3860.9262792521
0.101776123046875	0.0009503173828125	3861.36878425098
0.106201171875	0.00095245361328125	3861.81128924986
0.110626220703125	0.00095367431640625	3862.25379424875
0.11505126953125	0.00095428466796875	3862.69629924763
0.119476318359375	0.00095306396484375	3863.13880424651
0.1239013671875	0.00095367431640625	3863.5813092454
0.128326416015625	0.00095245361328125	3864.02381424428
0.13275146484375	0.0009515380859375	3864.46631924316
0.137176513671875	0.000950927734375	3864.90882424204
0.1416015625	0.00094940185546875	3865.35132924093
0.146026611328125	0.000947265625	3865.79383423981
0.15045166015625	0.00094451904296875	3866.23633923869
0.154876708984375	0.0009417724609375	3866.67884423757
0.1593017578125	0.00093780517578125	3867.12134923646
0.163726806640625	0.00093536376953125	3867.56385423534
0.16815185546875	0.00093231201171875	3868.00635923422
0.172576904296875	0.00093017578125	3868.44886423311
0.177001953125	0.0009271240234375	3868.89136923199
0.181427001953125	0.00092376708984375	3869.33387423087
0.18585205078125	0.0009210205078125	3869.77637922975
0.190277099609375	0.00091827392578125	3870.21888422864
0.1947021484375	0.0009149169921875	3870.66138922752
0.199127197265625	0.0009112548828125	3871.1038942264
0.20355224609375	0.00090850830078125	3871.54639922528
0.207977294921875	0.000904541015625	3871.98890422417
0.21240234375	0.00090118408203125	3872.43140922305
0.216827392578125	0.0008978271484375	3872.87391422193
0.22125244140625	0.00089508056640625	3873.31641922082
0.225677490234375	0.0008917236328125	3873.7589242197
0.2301025390625	0.000888671875	3874.20142921858
0.234527587890625	0.000885009765625	3874.64393421746
0.23895263671875	0.000882568359375	3875.08643921635
0.243377685546875	0.00087982177734375	3875.52894421523
0.247802734375	0.00087738037109375	3875.97144921411
0.252227783203125	0.00087432861328125	3876.413954213
0.25665283203125	0.00087127685546875	3876.85645921188
0.261077880859375	0.00086822509765625	3877.29896421076
0.2655029296875	0.00086578369140625	3877.74146920964
0.269927978515625	0.00086334228515625	3878.18397420853
0.27435302734375	0.000860595703125	3878.62647920741
0.278778076171875	0.00085784912109375	3879.06898420629
0.283203125	0.000855712890625	3879.51148920518
0.287628173828125	0.00085296630859375	3879.95399420406
0.29205322265625	0.00085052490234375	3880.39649920294
0.296478271484375	0.00084808349609375	3880.83900420182
0.3009033203125	0.000845947265625	3881.28150920071
0.305328369140625	0.00084320068359375	3881.72401419959
0.30975341796875	0.00084136962890625	3882.16651919847
0.314178466796875	0.00084075927734375	3882.60902419735
0.318603515625	0.0008380126953125	3883.05152919624
0.323028564453125	0.00083587646484375	3883.49403419512
0.32745361328125	0.0008331298828125	3883.936539194
0.331878662109375	0.00083160400390625	3884.37904419289
0.3363037109375	0.00082977294921875	3884.82154919177
0.340728759765625	0.00082794189453125	3885.26405419065
0.34515380859375	0.000826416015625	3885.70655918953
0.349578857421875	0.0008245849609375	3886.14906418842
0.35400390625	0.000821533203125	3886.5915691873
0.358428955078125	0.00082061767578125	3887.03407418618
0.36285400390625	0.00082000732421875	3887.47657918507
0.367279052734375	0.0008184814453125	3887.91908418395
0.3717041015625	0.00081756591796875	3888.36158918283
0.376129150390625	0.0008160400390625	3888.80409418171
0.38055419921875	0.0008154296875	3889.2465991806
0.384979248046875	0.00081451416015625	3889.68910417948
0.389404296875	0.0008135986328125	3890.13160917836
0.393829345703125	0.0008123779296875	3890.57411417724
0.39825439453125	0.00081146240234375	3891.01661917613
0.402679443359375	0.00081146240234375	3891.45912417501
0.4071044921875	0.00081085205078125	3891.90162917389
0.411529541015625	0.00081024169921875	3892.34413417278
0.41595458984375	0.0008099365234375	3892.78663917166
0.420379638671875	0.00080963134765625	3893.22914417054
0.4248046875	0.00080902099609375	3893.67164916942
0.429229736328125	0.00080902099609375	3894.11415416831
0.43365478515625	0.0008087158203125	3894.55665916719
0.438079833984375	0.00080841064453125	3894.99916416607
0.4425048828125	0.0008087158203125	3895.44166916496
0.446929931640625	0.0008087158203125	3895.88417416384
0.45135498046875	0.0008087158203125	3896.32667916272
0.455780029296875	0.0008087158203125	3896.7691841616
0.460205078125	0.00080902099609375	3897.21168916049
0.464630126953125	0.00080963134765625	3897.65419415937
0.46905517578125	0.00080963134765625	3898.09669915825
0.473480224609375	0.000810546875	3898.53920415713
0.4779052734375	0.0008111572265625	3898.98170915602
0.482330322265625	0.000811767578125	3899.4242141549
0.48675537109375	0.0008123779296875	3899.86671915378
0.491180419921875	0.0008135986328125	3900.30922415267
0.49560546875	0.00081451416015625	3900.75172915155
0.500030517578125	0.0008154296875	3901.19423415043
0.50445556640625	0.00081634521484375	3901.63673914931
0.508880615234375	0.0008172607421875	3902.0792441482
0.5133056640625	0.0008184814453125	3902.52174914708
0.517730712890625	0.00082000732421875	3902.96425414596
0.52215576171875	0.00082122802734375	3903.40675914485
0.526580810546875	0.00082305908203125	3903.84926414373
0.531005859375	0.0008245849609375	3904.29176914261
0.535430908203125	0.0008258056640625	3904.73427414149
0.53985595703125	0.00082733154296875	3905.17677914038
0.544281005859375	0.00082916259765625	3905.61928413926
0.5487060546875	0.00083038330078125	3906.06178913814
0.553131103515625	0.00083251953125	3906.50429413702
0.55755615234375	0.00083465576171875	3906.94679913591
0.561981201171875	0.00083648681640625	3907.38930413479
0.56640625	0.00083892822265625	3907.83180913367
0.570831298828125	0.000841064453125	3908.27431413256
0.57525634765625	0.00084320068359375	3908.71681913144
0.579681396484375	0.00084564208984375	3909.15932413032
0.5841064453125	0.00084808349609375	3909.6018291292
0.588531494140625	0.00084930419921875	3910.04433412809
0.59295654296875	0.0008526611328125	3910.48683912697
0.597381591796875	0.000855712890625	3910.92934412585
0.601806640625	0.00085845947265625	3911.37184912474
0.606231689453125	0.00086151123046875	3911.81435412362
0.61065673828125	0.0008642578125	3912.2568591225
0.615081787109375	0.00086700439453125	3912.69936412138
0.6195068359375	0.000870361328125	3913.14186912027
0.623931884765625	0.00087371826171875	3913.58437411915
0.62835693359375	0.0008795166015625	3914.02687911803
0.632781982421875	0.00088165283203125	3914.46938411691
0.63720703125	0.000885009765625	3914.9118891158
0.641632080078125	0.00088836669921875	3915.35439411468
0.64605712890625	0.00089202880859375	3915.79689911356
0.650482177734375	0.0008953857421875	3916.23940411245
0.6549072265625	0.00089874267578125	3916.68190911133
0.659332275390625	0.0009027099609375	3917.12441411021
0.66375732421875	0.00090667724609375	3917.56691910909
0.668182373046875	0.0009112548828125	3918.00942410798
0.672607421875	0.00091552734375	3918.45192910686
0.677032470703125	0.000919189453125	3918.89443410574
0.68145751953125	0.000924072265625	3919.33693910463
0.685882568359375	0.00092864990234375	3919.77944410351
0.6903076171875	0.00093353271484375	3920.22194910239
0.694732666015625	0.0009381103515625	3920.66445410127
0.69915771484375	0.0009429931640625	3921.10695910016
0.703582763671875	0.00094757080078125	3921.54946409904
0.7080078125	0.0009527587890625	3921.99196909792
0.712432861328125	0.00095855712890625	3922.4344740968
0.71685791015625	0.0009637451171875	3922.87697909569
0.721282958984375	0.0009698486328125	3923.31948409457
0.7257080078125	0.00097564697265625	3923.76198909345
0.730133056640625	0.00098114013671875	3924.20449409234
0.73455810546875	0.000987548828125	3924.64699909122
0.738983154296875	0.00099395751953125	3925.0895040901
0.743408203125	0.00099945068359375	3925.53200908898
0.747833251953125	0.0010064697265625	3925.97451408787
0.75225830078125	0.00101409912109375	3926.41701908675
0.756683349609375	0.00102142333984375	3926.85952408563
0.7611083984375	0.0010284423828125	3927.30202908452
0.765533447265625	0.00103607177734375	3927.7445340834
0.76995849609375	0.0010443115234375	3928.18703908228
0.774383544921875	0.0010528564453125	3928.62954408116
0.77880859375	0.00106109619140625	3929.07204908005
0.783233642578125	0.0010693359375	3929.51455407893
0.78765869140625	0.00107879638671875	3929.95705907781
0.792083740234375	0.00108856201171875	3930.3995640767
0.7965087890625	0.0010986328125	3930.84206907558
0.800933837890625	0.00110870361328125	3931.28457407446
0.80535888671875	0.001119384765625	3931.72707907334
0.809783935546875	0.00113037109375	3932.16958407223
0.814208984375	0.0011419677734375	3932.61208907111
0.818634033203125	0.0011541748046875	3933.05459406999
0.82305908203125	0.00116668701171875	3933.49709906887
0.827484130859375	0.00118011474609375	3933.93960406776
0.8319091796875	0.00119384765625	3934.38210906664
0.836334228515625	0.0012078857421875	3934.82461406552
0.84075927734375	0.00122314453125	3935.26711906441
0.845184326171875	0.00123870849609375	3935.70962406329
0.849609375	0.00125518798828125	3936.15212906217
0.854034423828125	0.00127227783203125	3936.59463406105
0.85845947265625	0.00128997802734375	3937.03713905994
0.862884521484375	0.0013079833984375	3937.47964405882
0.8673095703125	0.001328125	3937.9221490577
0.871734619140625	0.00134796142578125	3938.36465405659
0.87615966796875	0.0013702392578125	3938.80715905547
0.880584716796875	0.00139251708984375	3939.24966405435
0.885009765625	0.00141571044921875	3939.69216905323
0.889434814453125	0.0014404296875	3940.13467405212
0.89385986328125	0.0014666748046875	3940.577179051
0.898284912109375	0.001494140625	3941.01968404988
0.9027099609375	0.00152252197265625	3941.46218904876
0.907135009765625	0.00155242919921875	3941.90469404765
0.91156005859375	0.0015838623046875	3942.34719904653
0.915985107421875	0.001617431640625	3942.78970404541
0.92041015625	0.00165283203125	3943.2322090443
0.924835205078125	0.0016900634765625	3943.67471404318
0.92926025390625	0.0017291259765625	3944.11721904206
0.933685302734375	0.0017706298828125	3944.55972404094
0.9381103515625	0.00181549072265625	3945.00222903983
0.942535400390625	0.0018621826171875	3945.44473403871
0.94696044921875	0.00191009521484375	3945.88723903759
0.951385498046875	0.00196197509765625	3946.32974403647
0.955810546875	0.00201568603515625	3946.77224903536
0.960235595703125	0.0020733642578125	3947.21475403424
0.96466064453125	0.00213409423828125	3947.65725903312
0.969085693359375	0.00219879150390625	3948.09976403201
0.9735107421875	0.002266845703125	3948.54226903089
0.977935791015625	0.00233734130859375	3948.98477402977
0.98236083984375	0.0024127197265625	3949.42727902865
0.986785888671875	0.00249267578125	3949.86978402754
0.9912109375	0.00257720947265625	3950.31228902642
0.995635986328125	0.0026641845703125	3950.7547940253
1.00006103515625	0.0027557373046875	3951.19729902419
0.995635986328125	0.0023309326171875	3951.63980402307
0.9912109375	0.002001953125	3952.08230902195
0.986785888671875	0.001729736328125	3952.52481402083
0.98236083984375	0.0014959716796875	3952.96731901972
0.977935791015625	0.0012908935546875	3953.4098240186
0.9735107421875	0.0011090087890625	3953.85232901748
0.969085693359375	0.000943603515625	3954.29483401637
0.96466064453125	0.00079437255859375	3954.73733901525
0.960235595703125	0.0006591796875	3955.17984401413
0.955810546875	0.0005364990234375	3955.62234901301
0.951385498046875	0.000424530029296875	3956.0648540119
0.94696044921875	0.000322784423828125	3956.50735901078
0.942535400390625	0.000230682373046875	3956.94986400966
0.9381103515625	0.000146820068359375	3957.39236900854
0.933685302734375	6.8817138671875E-05	3957.83487400743
0.92926025390625	2.777099609375E-07	3958.27737900631
0.924835205078125	-6.1981201171875E-05	3958.71988400519
0.92041015625	-0.00011883544921875	3959.16238900408
0.915985107421875	-0.000170013427734375	3959.60489400296
0.91156005859375	-0.00021685791015625	3960.04739900184
0.907135009765625	-0.000258453369140625	3960.48990400072
0.9027099609375	-0.00029669189453125	3960.93240899961
0.898284912109375	-0.000331298828125	3961.37491399849
0.89385986328125	-0.0003629150390625	3961.81741899737
0.889434814453125	-0.000390899658203125	3962.25992399626
0.885009765625	-0.0004169921875	3962.70242899514
0.880584716796875	-0.0004403076171875	3963.14493399402
0.87615966796875	-0.000461761474609375	3963.5874389929
0.871734619140625	-0.000481475830078125	3964.02994399179
0.8673095703125	-0.0004991455078125	3964.47244899067
0.862884521484375	-0.000515838623046875	3964.91495398955
0.85845947265625	-0.000530242919921875	3965.35745898843
0.854034423828125	-0.0005443115234375	3965.79996398732
0.849609375	-0.000557281494140625	3966.2424689862
0.845184326171875	-0.00056903076171875	3966.68497398508
0.84075927734375	-0.000580413818359375	3967.12747898397
0.836334228515625	-0.000590789794921875	3967.56998398285
0.8319091796875	-0.00060040283203125	3968.01248898173
0.827484130859375	-0.000609130859375	3968.45499398061
0.82305908203125	-0.00061798095703125	3968.8974989795
0.818634033203125	-0.0006256103515625	3969.34000397838
0.814208984375	-0.000633544921875	3969.78250897726
0.809783935546875	-0.00064056396484375	3970.22501397615
0.80535888671875	-0.00064727783203125	3970.66751897503
0.800933837890625	-0.00065399169921875	3971.11002397391
0.7965087890625	-0.000660400390625	3971.55252897279
0.792083740234375	-0.00066619873046875	3971.99503397168
0.78765869140625	-0.000672607421875	3972.43753897056
0.783233642578125	-0.0006781005859375	3972.88004396944
0.77880859375	-0.00068328857421875	3973.32254896833
0.774383544921875	-0.0006890869140625	3973.76505396721
0.76995849609375	-0.0006939697265625	3974.20755896609
0.765533447265625	-0.0006988525390625	3974.65006396497
0.7611083984375	-0.0007037353515625	3975.09256896386
0.756683349609375	-0.00070831298828125	3975.53507396274
0.75225830078125	-0.00071319580078125	3975.97757896162
0.747833251953125	-0.0007177734375	3976.4200839605
0.743408203125	-0.00072265625	3976.86258895939
0.738983154296875	-0.0007257080078125	3977.30509395827
0.73455810546875	-0.00073089599609375	3977.74759895715
0.730133056640625	-0.00073516845703125	3978.19010395604
0.7257080078125	-0.00074005126953125	3978.63260895492
0.721282958984375	-0.0007440185546875	3979.0751139538
0.71685791015625	-0.000748291015625	3979.51761895268
0.712432861328125	-0.00075286865234375	3979.96012395157
0.7080078125	-0.0007568359375	3980.40262895045
0.703582763671875	-0.000760498046875	3980.84513394933
0.69915771484375	-0.00076416015625	3981.28763894821
0.694732666015625	-0.00076873779296875	3981.7301439471
0.6903076171875	-0.00077239990234375	3982.17264894598
0.685882568359375	-0.0007763671875	3982.61515394486
0.68145751953125	-0.00078033447265625	3983.05765894375
0.677032470703125	-0.0007843017578125	3983.50016394263
0.672607421875	-0.00078765869140625	3983.94266894151
0.668182373046875	-0.00079132080078125	3984.38517394039
0.66375732421875	-0.000794677734375	3984.82767893928
0.659332275390625	-0.00079925537109375	3985.27018393816
0.6549072265625	-0.00080230712890625	3985.71268893704
0.650482177734375	-0.0008062744140625	3986.15519393593
0.64605712890625	-0.0008099365234375	3986.59769893481
0.641632080078125	-0.00081329345703125	3987.04020393369
0.63720703125	-0.000816650390625	3987.48270893257
0.632781982421875	-0.00082000732421875	3987.92521393146
0.62835693359375	-0.000823974609375	3988.36771893034
0.623931884765625	-0.00082916259765625	3988.81022392922
0.6195068359375	-0.0008319091796875	3989.25272892811
0.615081787109375	-0.0008349609375	3989.69523392699
0.61065673828125	-0.00083770751953125	3990.13773892587
0.606231689453125	-0.0008404541015625	3990.58024392475
0.601806640625	-0.00084381103515625	3991.02274892364
0.597381591796875	-0.00084686279296875	3991.46525392252
0.59295654296875	-0.00084991455078125	3991.9077589214
0.588531494140625	-0.00085296630859375	3992.35026392028
0.5841064453125	-0.0008551025390625	3992.79276891917
0.579681396484375	-0.00085845947265625	3993.23527391805
0.57525634765625	-0.00086151123046875	3993.67777891693
0.570831298828125	-0.0008642578125	3994.12028391582
0.56640625	-0.00086761474609375	3994.5627889147
0.561981201171875	-0.00087066650390625	3995.00529391358
0.55755615234375	-0.0008734130859375	3995.44779891246
0.553131103515625	-0.00087615966796875	3995.89030391135
0.5487060546875	-0.00087890625	3996.33280891023
0.544281005859375	-0.00088104248046875	3996.77531390911
0.53985595703125	-0.0008843994140625	3997.217818908
0.535430908203125	-0.0008868408203125	3997.66032390688
0.531005859375	-0.00088958740234375	3998.10282890576
0.526580810546875	-0.00089263916015625	3998.54533390464
0.52215576171875	-0.0008953857421875	3998.98783890353
0.517730712890625	-0.0008978271484375	3999.43034390241
0.5133056640625	-0.0009002685546875	3999.87284890129
0.508880615234375	-0.00090301513671875	4000.31535390017
0.50445556640625	-0.00090576171875	4000.75785889906
0.500030517578125	-0.0009075927734375	4001.20036389794
0.49560546875	-0.0009100341796875	4001.64286889682
0.491180419921875	-0.00091278076171875	4002.08537389571
0.48675537109375	-0.00091522216796875	4002.52787889459
0.482330322265625	-0.00091766357421875	4002.97038389347
0.4779052734375	-0.00092010498046875	4003.41288889235
0.473480224609375	-0.0009228515625	4003.85539389124
0.46905517578125	-0.0009246826171875	4004.29789889012
0.464630126953125	-0.0009271240234375	4004.740403889
0.460205078125	-0.0009295654296875	4005.18290888789
0.455780029296875	-0.0009320068359375	4005.62541388677
0.45135498046875	-0.00093414306640625	4006.06791888565
0.446929931640625	-0.0009368896484375	4006.51042388453
0.4425048828125	-0.00093963623046875	4006.95292888342
0.438079833984375	-0.000941162109375	4007.3954338823
0.43365478515625	-0.00094390869140625	4007.83793888118
0.429229736328125	-0.00094573974609375	4008.28044388006
0.4248046875	-0.00094818115234375	4008.72294887895
0.420379638671875	-0.00095062255859375	4009.16545387783
0.41595458984375	-0.0009527587890625	4009.60795887671
0.411529541015625	-0.00095550537109375	4010.0504638756
0.4071044921875	-0.000958251953125	4010.49296887448
0.402679443359375	-0.00096038818359375	4010.93547387336
0.39825439453125	-0.00096221923828125	4011.37797887224
0.393829345703125	-0.00096435546875	4011.82048387113
0.389404296875	-0.00096649169921875	4012.26298887001
0.384979248046875	-0.00096923828125	4012.70549386889
0.38055419921875	-0.00097198486328125	4013.14799886778
0.376129150390625	-0.00097381591796875	4013.59050386666
0.3717041015625	-0.0009765625	4014.03300886554
0.367279052734375	-0.00097930908203125	4014.47551386442
0.36285400390625	-0.0009820556640625	4014.91801886331
0.358428955078125	-0.0009844970703125	4015.36052386219
0.35400390625	-0.00098785400390625	4015.80302886107
0.349578857421875	-0.0009893798828125	4016.24553385995
0.34515380859375	-0.000992431640625	4016.68803885884
0.340728759765625	-0.0009942626953125	4017.13054385772
0.3363037109375	-0.00099700927734375	4017.5730488566
0.331878662109375	-0.00099945068359375	4018.01555385549
0.32745361328125	-0.00100189208984375	4018.45805885437
0.323028564453125	-0.00100494384765625	4018.90056385325
0.318603515625	-0.0010076904296875	4019.34306885213
0.314178466796875	-0.00101104736328125	4019.78557385102
0.30975341796875	-0.00101470947265625	4020.2280788499
0.305328369140625	-0.00101715087890625	4020.67058384878
0.3009033203125	-0.0010198974609375	4021.11308884767
0.296478271484375	-0.00102264404296875	4021.55559384655
0.29205322265625	-0.001025390625	4021.99809884543
0.287628173828125	-0.00102874755859375	4022.44060384431
0.283203125	-0.00103240966796875	4022.8831088432
0.278778076171875	-0.00103485107421875	4023.32561384208
0.27435302734375	-0.00103759765625	4023.76811884096
0.269927978515625	-0.00104034423828125	4024.21062383984
0.2655029296875	-0.00104400634765625	4024.65312883873
0.261077880859375	-0.00104766845703125	4025.09563383761
0.25665283203125	-0.00105072021484375	4025.53813883649
0.252227783203125	-0.0010540771484375	4025.98064383538
0.247802734375	-0.001058349609375	4026.42314883426
0.243377685546875	-0.0010614013671875	4026.86565383314
0.23895263671875	-0.001065673828125	4027.30815883202
0.234527587890625	-0.00106964111328125	4027.75066383091
0.2301025390625	-0.001072998046875	4028.19316882979
0.225677490234375	-0.00107635498046875	4028.63567382867
0.22125244140625	-0.001080322265625	4029.07817882756
0.216827392578125	-0.00108489990234375	4029.52068382644
0.21240234375	-0.00108917236328125	4029.96318882532
0.207977294921875	-0.00109344482421875	4030.4056938242
0.20355224609375	-0.0010968017578125	4030.84819882309
0.199127197265625	-0.00110137939453125	4031.29070382197
0.1947021484375	-0.00110626220703125	4031.73320882085
0.190277099609375	-0.00111053466796875	4032.17571381973
0.18585205078125	-0.0011151123046875	4032.61821881862
0.181427001953125	-0.00111968994140625	4033.0607238175
0.177001953125	-0.001124267578125	4033.50322881638
0.172576904296875	-0.0011285400390625	4033.94573381527
0.16815185546875	-0.00113372802734375	4034.38823881415
0.163726806640625	-0.001138916015625	4034.83074381303
0.1593017578125	-0.001143798828125	4035.27324881191
0.154876708984375	-0.0011492919921875	4035.7157538108
0.15045166015625	-0.00115447998046875	4036.15825880968
0.146026611328125	-0.00115966796875	4036.60076380856
0.1416015625	-0.00116607666015625	4037.04326880745
0.137176513671875	-0.00117156982421875	4037.48577380633
0.13275146484375	-0.00117767333984375	4037.92827880521
0.128326416015625	-0.0011834716796875	4038.37078380409
0.1239013671875	-0.00118865966796875	4038.81328880298
0.119476318359375	-0.00119476318359375	4039.25579380186
0.11505126953125	-0.00119964599609375	4039.69829880074
0.110626220703125	-0.00120635986328125	4040.14080379963
0.106201171875	-0.00121368408203125	4040.58330879851
0.101776123046875	-0.001220703125	4041.02581379739
0.09735107421875	-0.0012274169921875	4041.46831879627
0.092926025390625	-0.001234130859375	4041.91082379516
0.0885009765625	-0.001241455078125	4042.35332879404
0.084075927734375	-0.00124786376953125	4042.79583379292
0.07965087890625	-0.00125579833984375	4043.2383387918
0.075225830078125	-0.00126251220703125	4043.68084379069
0.07080078125	-0.0012701416015625	4044.12334878957
0.066375732421875	-0.00127777099609375	4044.56585378845
0.06195068359375	-0.00128570556640625	4045.00835878734
0.057525634765625	-0.0012945556640625	4045.45086378622
0.0531005859375	-0.00130157470703125	4045.8933687851
0.048675537109375	-0.00131072998046875	4046.33587378398
0.04425048828125	-0.0013189697265625	4046.77837878287
0.039825439453125	-0.00132720947265625	4047.22088378175
0.035400390625	-0.00133636474609375	4047.66338878063
0.030975341796875	-0.00134552001953125	4048.10589377952
0.02655029296875	-0.00135498046875	4048.5483987784
0.022125244140625	-0.00136444091796875	4048.99090377728
0.0177001953125	-0.0013739013671875	4049.43340877616
0.013275146484375	-0.0013836669921875	4049.87591377505
0.00885009765625	-0.00139404296875	4050.31841877393
0.004425048828125	-0.00140411376953125	4050.76092377281
0	-0.00141510009765625	4051.20342877169
0.004425048828125	-0.00089752197265625	4051.64593377058
0.00885009765625	-0.00050689697265625	4052.08843876946
0.013275146484375	-0.000205963134765625	4052.53094376834
0.0177001953125	3.0072021484375E-05	4052.97344876723
0.022125244140625	0.00021673583984375	4053.41595376611
0.02655029296875	0.0003658447265625	4053.85845876499
0.030975341796875	0.000486419677734375	4054.30096376387
0.035400390625	0.000580596923828125	4054.74346876276
0.039825439453125	0.00065435791015625	4055.18597376164
0.04425048828125	0.0007147216796875	4055.62847876052
0.048675537109375	0.00076416015625	4056.0709837594
0.0531005859375	0.00080322265625	4056.51348875829
0.057525634765625	0.00083404541015625	4056.95599375717
0.06195068359375	0.0008599853515625	4057.39849875605
0.066375732421875	0.00088287353515625	4057.84100375494
0.07080078125	0.00090087890625	4058.28350875382
0.075225830078125	0.00091583251953125	4058.7260137527
0.07965087890625	0.00092681884765625	4059.16851875158
0.084075927734375	0.000936279296875	4059.61102375047
0.0885009765625	0.000943603515625	4060.05352874935
0.092926025390625	0.000948486328125	4060.49603374823
0.09735107421875	0.000953369140625	4060.93853874712
0.101776123046875	0.00095611572265625	4061.381043746
0.106201171875	0.000958251953125	4061.82354874488
0.110626220703125	0.00095916748046875	4062.26605374376
0.11505126953125	0.00095916748046875	4062.70855874265
0.119476318359375	0.00095794677734375	4063.15106374153
0.1239013671875	0.00095733642578125	4063.59356874041
0.128326416015625	0.000955810546875	4064.0360737393
0.13275146484375	0.00095550537109375	4064.47857873818
0.137176513671875	0.0009539794921875	4064.92108373706
0.1416015625	0.0009527587890625	4065.36358873594
0.146026611328125	0.00095001220703125	4065.80609373483
0.15045166015625	0.00094635009765625	4066.24859873371
0.154876708984375	0.00094329833984375	4066.69110373259
0.1593017578125	0.00093994140625	4067.13360873147
0.163726806640625	0.00093719482421875	4067.57611373036
0.16815185546875	0.00093475341796875	4068.01861872924
0.172576904296875	0.0009326171875	4068.46112372812
0.177001953125	0.0009283447265625	4068.90362872701
0.181427001953125	0.0009259033203125	4069.34613372589
0.18585205078125	0.00092254638671875	4069.78863872477
0.190277099609375	0.0009197998046875	4070.23114372365
0.1947021484375	0.00091644287109375	4070.67364872254
0.199127197265625	0.00091278076171875	4071.11615372142
0.20355224609375	0.000909423828125	4071.5586587203
0.207977294921875	0.00090576171875	4072.00116371919
0.21240234375	0.00090179443359375	4072.44366871807
0.216827392578125	0.0008990478515625	4072.88617371695
0.22125244140625	0.000894775390625	4073.32867871583
0.225677490234375	0.000892333984375	4073.77118371472
0.2301025390625	0.000888671875	4074.2136887136
0.234527587890625	0.000885009765625	4074.65619371248
0.23895263671875	0.00088165283203125	4075.09869871136
0.243377685546875	0.00087921142578125	4075.54120371025
0.247802734375	0.0008758544921875	4075.98370870913
0.252227783203125	0.00087371826171875	4076.42621370801
0.25665283203125	0.00087005615234375	4076.8687187069
0.261077880859375	0.00086761474609375	4077.31122370578
0.2655029296875	0.0008648681640625	4077.75372870466
0.269927978515625	0.00086212158203125	4078.19623370354
0.27435302734375	0.0008587646484375	4078.63873870243
0.278778076171875	0.0008563232421875	4079.08124370131
0.283203125	0.00085357666015625	4079.52374870019
0.287628173828125	0.0008514404296875	4079.96625369908
0.29205322265625	0.00084930419921875	4080.40875869796
0.296478271484375	0.00084686279296875	4080.85126369684
0.3009033203125	0.0008447265625	4081.29376869572
0.305328369140625	0.00084197998046875	4081.73627369461
0.30975341796875	0.00084014892578125	4082.17877869349
0.314178466796875	0.0008392333984375	4082.62128369237
0.318603515625	0.0008367919921875	4083.06378869126
0.323028564453125	0.00083404541015625	4083.50629369014
0.32745361328125	0.000831298828125	4083.94879868902
0.331878662109375	0.0008294677734375	4084.3913036879
0.3363037109375	0.0008270263671875	4084.83380868679
0.340728759765625	0.00082550048828125	4085.27631368567
0.34515380859375	0.0008233642578125	4085.71881868455
0.349578857421875	0.0008209228515625	4086.16132368343
0.35400390625	0.00081878662109375	4086.60382868232
0.358428955078125	0.00081787109375	4087.0463336812
0.36285400390625	0.000816650390625	4087.48883868008
0.367279052734375	0.0008154296875	4087.93134367897
0.3717041015625	0.00081390380859375	4088.37384867785
0.376129150390625	0.00081268310546875	4088.81635367673
0.38055419921875	0.00081146240234375	4089.25885867561
0.384979248046875	0.00081085205078125	4089.7013636745
0.389404296875	0.0008099365234375	4090.14386867338
0.393829345703125	0.00080841064453125	4090.58637367226
0.39825439453125	0.00080780029296875	4091.02887867114
0.402679443359375	0.000806884765625	4091.47138367003
0.4071044921875	0.0008062744140625	4091.91388866891
0.411529541015625	0.0008056640625	4092.35639366779
0.41595458984375	0.0008056640625	4092.79889866668
0.420379638671875	0.00080535888671875	4093.24140366556
0.4248046875	0.00080474853515625	4093.68390866444
0.429229736328125	0.000804443359375	4094.12641366332
0.43365478515625	0.00080413818359375	4094.56891866221
0.438079833984375	0.0008038330078125	4095.01142366109
0.4425048828125	0.0008038330078125	4095.45392865997
0.446929931640625	0.0008038330078125	4095.89643365886
0.45135498046875	0.0008038330078125	4096.33893865774
0.455780029296875	0.00080322265625	4096.78144365662
0.460205078125	0.0008038330078125	4097.2239486555
0.464630126953125	0.000804443359375	4097.66645365439
0.46905517578125	0.00080413818359375	4098.10895865327
0.473480224609375	0.000804443359375	4098.55146365215
0.4779052734375	0.0008050537109375	4098.99396865104
0.482330322265625	0.00080535888671875	4099.43647364992
0.48675537109375	0.00080596923828125	4099.8789786488
0.491180419921875	0.00080718994140625	4100.32148364768
0.49560546875	0.0008074951171875	4100.76398864657
0.500030517578125	0.00080841064453125	4101.20649364545
0.50445556640625	0.00080963134765625	4101.64899864433
0.508880615234375	0.000810546875	4102.09150364321
0.5133056640625	0.0008111572265625	4102.5340086421
0.517730712890625	0.00081268310546875	4102.97651364098
0.52215576171875	0.00081390380859375	4103.41901863986
0.526580810546875	0.00081512451171875	4103.86152363875
0.531005859375	0.00081634521484375	4104.30402863763
0.535430908203125	0.00081817626953125	4104.74653363651
0.53985595703125	0.0008197021484375	4105.18903863539
0.544281005859375	0.00082122802734375	4105.63154363428
0.5487060546875	0.00082244873046875	4106.07404863316
0.553131103515625	0.000823974609375	4106.51655363204
0.55755615234375	0.0008258056640625	4106.95905863093
0.561981201171875	0.00082794189453125	4107.40156362981
0.56640625	0.000830078125	4107.84406862869
0.570831298828125	0.00083221435546875	4108.28657362757
0.57525634765625	0.00083404541015625	4108.72907862646
0.579681396484375	0.0008367919921875	4109.17158362534
0.5841064453125	0.00083892822265625	4109.61408862422
0.588531494140625	0.00084014892578125	4110.05659362311
0.59295654296875	0.0008428955078125	4110.49909862199
0.597381591796875	0.00084564208984375	4110.94160362087
0.601806640625	0.000848388671875	4111.38410861975
0.606231689453125	0.000850830078125	4111.82661361864
0.61065673828125	0.00085418701171875	4112.26911861752
0.615081787109375	0.00085693359375	4112.7116236164
0.6195068359375	0.0008599853515625	4113.15412861528
0.623931884765625	0.00086273193359375	4113.59663361417
0.62835693359375	0.00086822509765625	4114.03913861305
0.632781982421875	0.0008709716796875	4114.48164361193
0.63720703125	0.0008734130859375	4114.92414861081
0.641632080078125	0.0008770751953125	4115.3666536097
0.64605712890625	0.000880126953125	4115.80915860858
0.650482177734375	0.0008831787109375	4116.25166360746
0.6549072265625	0.00088714599609375	4116.69416860635
0.659332275390625	0.0008905029296875	4117.13667360523
0.66375732421875	0.00089508056640625	4117.57917860411
0.668182373046875	0.00089874267578125	4118.02168360299
0.672607421875	0.00090301513671875	4118.46418860188
0.677032470703125	0.000906982421875	4118.90669360076
0.68145751953125	0.00091156005859375	4119.34919859964
0.685882568359375	0.00091583251953125	4119.79170359853
0.6903076171875	0.00092010498046875	4120.23420859741
0.694732666015625	0.00092498779296875	4120.67671359629
0.69915771484375	0.00092926025390625	4121.11921859517
0.703582763671875	0.000933837890625	4121.56172359406
0.7080078125	0.000938720703125	4122.00422859294
0.712432861328125	0.0009442138671875	4122.44673359182
0.71685791015625	0.00094970703125	4122.88923859071
0.721282958984375	0.0009552001953125	4123.33174358959
0.7257080078125	0.00096038818359375	4123.77424858847
0.730133056640625	0.00096649169921875	4124.21675358735
0.73455810546875	0.0009722900390625	4124.65925858624
0.738983154296875	0.0009783935546875	4125.10176358512
0.743408203125	0.00098358154296875	4125.544268584
0.747833251953125	0.00099090576171875	4125.98677358288
0.75225830078125	0.00099761962890625	4126.42927858177
0.756683349609375	0.00100494384765625	4126.87178358065
0.7611083984375	0.001011962890625	4127.31428857953
0.765533447265625	0.00101959228515625	4127.75679357842
0.76995849609375	0.001026611328125	4128.1992985773
0.774383544921875	0.0010345458984375	4128.64180357618
0.77880859375	0.0010430908203125	4129.08430857506
0.783233642578125	0.00105133056640625	4129.52681357395
0.78765869140625	0.001060791015625	4129.96931857283
0.792083740234375	0.00106964111328125	4130.41182357171
0.7965087890625	0.0010791015625	4130.8543285706
0.800933837890625	0.0010888671875	4131.29683356948
0.80535888671875	0.0010992431640625	4131.73933856836
0.809783935546875	0.00110992431640625	4132.18184356724
0.814208984375	0.00112060546875	4132.62434856613
0.818634033203125	0.0011322021484375	4133.06685356501
0.82305908203125	0.0011444091796875	4133.50935856389
0.827484130859375	0.00115692138671875	4133.95186356277
0.8319091796875	0.00116973876953125	4134.39436856166
0.836334228515625	0.0011834716796875	4134.83687356054
0.84075927734375	0.0011981201171875	4135.27937855942
0.845184326171875	0.00121307373046875	4135.72188355831
0.849609375	0.0012286376953125	4136.16438855719
0.854034423828125	0.00124481201171875	4136.60689355607
0.85845947265625	0.00126251220703125	4137.04939855495
0.862884521484375	0.00127960205078125	4137.49190355384
0.8673095703125	0.0012982177734375	4137.93440855272
0.871734619140625	0.001318359375	4138.3769135516
0.87615966796875	0.0013385009765625	4138.81941855049
0.880584716796875	0.00136077880859375	4139.26192354937
0.885009765625	0.00138275146484375	4139.70442854825
0.889434814453125	0.00140655517578125	4140.14693354713
0.89385986328125	0.00143157958984375	4140.58943854602
0.898284912109375	0.00145721435546875	4141.0319435449
0.9027099609375	0.001484375	4141.47444854378
0.907135009765625	0.001513671875	4141.91695354266
0.91156005859375	0.00154388427734375	4142.35945854155
0.915985107421875	0.001575927734375	4142.80196354043
0.92041015625	0.0016094970703125	4143.24446853931
0.924835205078125	0.00164581298828125	4143.6869735382
0.92926025390625	0.0016827392578125	4144.12947853708
0.933685302734375	0.001722412109375	4144.57198353596
0.9381103515625	0.001766357421875	4145.01448853484
0.942535400390625	0.0018096923828125	4145.45699353373
0.94696044921875	0.0018560791015625	4145.89949853261
0.951385498046875	0.00190643310546875	4146.34200353149
0.955810546875	0.001959228515625	4146.78450853038
0.960235595703125	0.00201446533203125	4147.22701352926
0.96466064453125	0.0020733642578125	4147.66951852814
0.969085693359375	0.00213592529296875	4148.11202352702
0.9735107421875	0.002200927734375	4148.55452852591
0.977935791015625	0.00226898193359375	4148.99703352479
0.98236083984375	0.0023431396484375	4149.43953852367
0.986785888671875	0.00241973876953125	4149.88204352256
0.9912109375	0.00250030517578125	4150.32454852144
