Time (s)	WE(1).Potential (V)
1957.63734005744	0.723876953125
1958.63734005492	0.6268310546875
1959.63734005239	0.53192138671875
1960.63734004987	0.437774658203125
1961.63734004734	0.344635009765625
1962.63734004482	0.2535400390625
1963.63734004229	0.16558837890625
1964.63734003977	0.082000732421875
1965.63734003724	0.00377197265625
1966.63734003472	-0.0692138671875
1967.63734003219	-0.136566162109375
1968.63734002967	-0.19940185546875
1969.63734002714	-0.257598876953125
