Potential applied (V)	WE(1).Current (A)	Time (s)
0.004425048828125	0.000212371826171875	2051.67202182003
0.00885009765625	0.000258544921875	2052.55703181779
0.013275146484375	0.000289794921875	2053.44204181556
0.0177001953125	0.000312286376953125	2054.32705181332
0.022125244140625	0.000328765869140625	2055.21206181109
0.02655029296875	0.000341827392578125	2056.09707180885
0.030975341796875	0.000351806640625	2056.98208180662
0.035400390625	0.000360076904296875	2057.86709180438
0.039825439453125	0.000367431640625	2058.75210180215
0.04425048828125	0.0003729248046875	2059.63711179992
0.048675537109375	0.000378082275390625	2060.52212179768
0.0531005859375	0.000381378173828125	2061.40713179545
0.057525634765625	0.000384918212890625	2062.29214179321
0.06195068359375	0.000388458251953125	2063.17715179098
0.066375732421875	0.000391754150390625	2064.06216178874
0.07080078125	0.00039404296875	2064.94717178651
0.075225830078125	0.000396240234375	2065.83218178428
0.07965087890625	0.00039776611328125	2066.71719178204
0.084075927734375	0.00039971923828125	2067.60220177981
0.0885009765625	0.00040093994140625	2068.48721177757
0.092926025390625	0.000402435302734375	2069.37222177534
0.09735107421875	0.00040374755859375	2070.2572317731
0.101776123046875	0.000404327392578125	2071.14224177087
0.106201171875	0.000405181884765625	2072.02725176863
0.110626220703125	0.00040557861328125	2072.9122617664
0.11505126953125	0.000405792236328125	2073.79727176417
0.119476318359375	0.000405303955078125	2074.68228176193
0.1239013671875	0.00040570068359375	2075.5672917597
0.128326416015625	0.000405853271484375	2076.45230175746
0.13275146484375	0.000406097412109375	2077.33731175523
0.137176513671875	0.00040606689453125	2078.22232175299
0.1416015625	0.0004061279296875	2079.10733175076
0.146026611328125	0.0004058837890625	2079.99234174852
0.15045166015625	0.0004053955078125	2080.87735174629
0.154876708984375	0.00040484619140625	2081.76236174406
0.1593017578125	0.000404541015625	2082.64737174182
0.163726806640625	0.000404205322265625	2083.53238173959
0.16815185546875	0.000403656005859375	2084.41739173735
0.172576904296875	0.000403472900390625	2085.30240173512
0.177001953125	0.0004029541015625	2086.18741173288
0.181427001953125	0.0004022216796875	2087.07242173065
0.18585205078125	0.000401702880859375	2087.95743172841
0.190277099609375	0.000401336669921875	2088.84244172618
0.1947021484375	0.000400421142578125	2089.72745172395
0.199127197265625	0.000399871826171875	2090.61246172171
0.20355224609375	0.0003990478515625	2091.49747171948
0.207977294921875	0.000397918701171875	2092.38248171724
0.21240234375	0.000397125244140625	2093.26749171501
0.216827392578125	0.000396484375	2094.15250171277
0.22125244140625	0.000395751953125	2095.03751171054
0.225677490234375	0.000395050048828125	2095.9225217083
0.2301025390625	0.00039434814453125	2096.80753170607
0.234527587890625	0.00039300537109375	2097.69254170384
0.23895263671875	0.000392730712890625	2098.5775517016
0.243377685546875	0.000392333984375	2099.46256169937
0.247802734375	0.000391204833984375	2100.34757169713
0.252227783203125	0.00039068603515625	2101.2325816949
0.25665283203125	0.0003902587890625	2102.11759169266
0.261077880859375	0.000389617919921875	2103.00260169043
0.2655029296875	0.000388885498046875	2103.88761168819
0.269927978515625	0.0003890380859375	2104.77262168596
0.27435302734375	0.0003880615234375	2105.65763168373
0.278778076171875	0.00038720703125	2106.54264168149
0.283203125	0.00038623046875	2107.42765167926
0.287628173828125	0.00038507080078125	2108.31266167702
0.29205322265625	0.0003841552734375	2109.19767167479
0.296478271484375	0.000383148193359375	2110.08268167255
0.3009033203125	0.00038226318359375	2110.96769167032
0.305328369140625	0.000381561279296875	2111.85270166808
0.30975341796875	0.000381134033203125	2112.73771166585
0.314178466796875	0.000381683349609375	2113.62272166362
0.318603515625	0.000380279541015625	2114.50773166138
0.323028564453125	0.000379547119140625	2115.39274165915
0.32745361328125	0.000379058837890625	2116.27775165691
0.331878662109375	0.00037841796875	2117.16276165468
0.3363037109375	0.0003782958984375	2118.04777165244
0.340728759765625	0.000377685546875	2118.93278165021
0.34515380859375	0.0003778076171875	2119.81779164797
0.349578857421875	0.000377532958984375	2120.70280164574
0.35400390625	0.00037664794921875	2121.58781164351
0.358428955078125	0.000377044677734375	2122.47282164127
0.36285400390625	0.00037762451171875	2123.35783163904
0.367279052734375	0.0003779296875	2124.2428416368
0.3717041015625	0.000378204345703125	2125.12785163457
0.376129150390625	0.0003785400390625	2126.01286163233
0.38055419921875	0.000378662109375	2126.8978716301
0.384979248046875	0.000378936767578125	2127.78288162786
0.389404296875	0.00037957763671875	2128.66789162563
0.393829345703125	0.00037939453125	2129.5529016234
0.39825439453125	0.000380340576171875	2130.43791162116
0.402679443359375	0.0003812255859375	2131.32292161893
0.4071044921875	0.000381866455078125	2132.20793161669
0.411529541015625	0.0003829345703125	2133.09294161446
0.41595458984375	0.000383941650390625	2133.97795161222
0.420379638671875	0.000384613037109375	2134.86296160999
0.4248046875	0.00038531494140625	2135.74797160775
0.429229736328125	0.00038629150390625	2136.63298160552
0.43365478515625	0.000386749267578125	2137.51799160329
0.438079833984375	0.000388397216796875	2138.40300160105
0.4425048828125	0.000389373779296875	2139.28801159882
0.446929931640625	0.00039056396484375	2140.17302159658
0.45135498046875	0.000391632080078125	2141.05803159435
0.455780029296875	0.000392913818359375	2141.94304159211
0.460205078125	0.000394317626953125	2142.82805158988
0.464630126953125	0.000395843505859375	2143.71306158764
0.46905517578125	0.00039678955078125	2144.59807158541
0.473480224609375	0.00039825439453125	2145.48308158318
0.4779052734375	0.000400238037109375	2146.36809158094
0.482330322265625	0.000401824951171875	2147.25310157871
0.48675537109375	0.000403350830078125	2148.13811157647
0.491180419921875	0.000405364990234375	2149.02312157424
0.49560546875	0.000407012939453125	2149.908131572
0.500030517578125	0.000409088134765625	2150.79314156977
0.50445556640625	0.000410980224609375	2151.67815156753
0.508880615234375	0.000412322998046875	2152.5631615653
0.5133056640625	0.0004144287109375	2153.44817156307
0.517730712890625	0.000416015625	2154.33318156083
0.52215576171875	0.000418243408203125	2155.2181915586
0.526580810546875	0.00042041015625	2156.10320155636
0.531005859375	0.00042266845703125	2156.98821155413
0.535430908203125	0.000424652099609375	2157.87322155189
0.53985595703125	0.0004266357421875	2158.75823154966
0.544281005859375	0.000429229736328125	2159.64324154743
0.5487060546875	0.000431304931640625	2160.52825154519
0.553131103515625	0.000433990478515625	2161.41326154296
0.55755615234375	0.000436065673828125	2162.29827154072
0.561981201171875	0.000438446044921875	2163.18328153849
0.56640625	0.00044140625	2164.06829153625
0.570831298828125	0.000443878173828125	2164.95330153402
0.57525634765625	0.00044683837890625	2165.83831153178
0.579681396484375	0.000449249267578125	2166.72332152955
0.5841064453125	0.000451690673828125	2167.60833152731
0.588531494140625	0.000454132080078125	2168.49334152508
0.59295654296875	0.0004569091796875	2169.37835152285
0.597381591796875	0.000460052490234375	2170.26336152061
0.601806640625	0.000463165283203125	2171.14837151838
0.606231689453125	0.000466339111328125	2172.03338151614
0.61065673828125	0.000469207763671875	2172.91839151391
0.615081787109375	0.000472412109375	2173.80340151167
0.6195068359375	0.000475250244140625	2174.68841150944
0.623931884765625	0.00047900390625	2175.57342150721
0.62835693359375	0.000483734130859375	2176.45843150497
0.632781982421875	0.000486297607421875	2177.34344150274
0.63720703125	0.000489166259765625	2178.2284515005
0.641632080078125	0.0004925537109375	2179.11346149827
0.64605712890625	0.0004959716796875	2179.99847149603
0.650482177734375	0.000499908447265625	2180.8834814938
0.6549072265625	0.00050347900390625	2181.76849149156
0.659332275390625	0.00050714111328125	2182.65350148933
0.66375732421875	0.000511138916015625	2183.5385114871
0.668182373046875	0.000515045166015625	2184.42352148486
0.672607421875	0.00051922607421875	2185.30853148263
0.677032470703125	0.0005235595703125	2186.19354148039
0.68145751953125	0.000527923583984375	2187.07855147816
0.685882568359375	0.00053265380859375	2187.96356147592
0.6903076171875	0.0005374755859375	2188.84857147369
0.694732666015625	0.000541778564453125	2189.73358147145
0.69915771484375	0.00054681396484375	2190.61859146922
0.703582763671875	0.0005517578125	2191.50360146699
0.7080078125	0.00055718994140625	2192.38861146475
0.712432861328125	0.000563018798828125	2193.27362146252
0.71685791015625	0.000568878173828125	2194.15863146028
0.721282958984375	0.0005743408203125	2195.04364145805
0.7257080078125	0.000580902099609375	2195.92865145581
0.730133056640625	0.000587615966796875	2196.81366145358
0.73455810546875	0.00059417724609375	2197.69867145134
0.738983154296875	0.000601318359375	2198.58368144911
0.743408203125	0.00060821533203125	2199.46869144688
0.747833251953125	0.0006158447265625	2200.35370144464
0.75225830078125	0.0006243896484375	2201.23871144241
0.756683349609375	0.0006329345703125	2202.12372144017
0.7611083984375	0.0006414794921875	2203.00873143794
0.765533447265625	0.0006512451171875	2203.8937414357
0.76995849609375	0.000660400390625	2204.77875143347
0.774383544921875	0.00067108154296875	2205.66376143123
0.77880859375	0.000682373046875	2206.548771429
0.783233642578125	0.00069366455078125	2207.43378142677
0.78765869140625	0.0007061767578125	2208.31879142453
0.792083740234375	0.00071868896484375	2209.2038014223
0.7965087890625	0.00073272705078125	2210.08881142006
0.800933837890625	0.0007476806640625	2210.97382141783
0.80535888671875	0.00076324462890625	2211.85883141559
0.809783935546875	0.00077972412109375	2212.74384141336
0.814208984375	0.0007965087890625	2213.62885141112
0.818634033203125	0.00081512451171875	2214.51386140889
0.82305908203125	0.00083526611328125	2215.39887140666
0.827484130859375	0.00085540771484375	2216.28388140442
0.8319091796875	0.00087799072265625	2217.16889140219
0.836334228515625	0.00090179443359375	2218.05390139995
0.84075927734375	0.000926513671875	2218.93891139772
0.845184326171875	0.000953369140625	2219.82392139548
0.849609375	0.00098175048828125	2220.70893139325
0.854034423828125	0.0010113525390625	2221.59394139101
0.85845947265625	0.00104339599609375	2222.47895138878
0.862884521484375	0.00107574462890625	2223.36396138655
0.8673095703125	0.00111175537109375	2224.24897138431
0.871734619140625	0.00114959716796875	2225.13398138208
0.87615966796875	0.0011895751953125	2226.01899137984
0.880584716796875	0.001231689453125	2226.90400137761
0.885009765625	0.00127593994140625	2227.78901137537
0.889434814453125	0.0013226318359375	2228.67402137314
0.89385986328125	0.0013720703125	2229.5590313709
0.898284912109375	0.00142364501953125	2230.44404136867
0.9027099609375	0.0014776611328125	2231.32905136644
0.907135009765625	0.00153472900390625	2232.2140613642
0.91156005859375	0.00159423828125	2233.09907136197
0.915985107421875	0.0016552734375	2233.98408135973
0.92041015625	0.00171966552734375	2234.8690913575
0.924835205078125	0.00178619384765625	2235.75410135526
0.92926025390625	0.00185516357421875	2236.63911135303
0.933685302734375	0.00192718505859375	2237.52412135079
0.9381103515625	0.00200225830078125	2238.40913134856
0.942535400390625	0.00207763671875	2239.29414134633
0.94696044921875	0.00215545654296875	2240.17915134409
0.951385498046875	0.0022344970703125	2241.06416134186
0.955810546875	0.002315673828125	2241.94917133962
0.960235595703125	0.00239990234375	2242.83418133739
0.96466064453125	0.002484130859375	2243.71919133515
0.969085693359375	0.002569580078125	2244.60420133292
0.9735107421875	0.00265716552734375	2245.48921133068
0.977935791015625	0.00274322509765625	2246.37422132845
0.98236083984375	0.0028326416015625	2247.25923132622
0.986785888671875	0.0029241943359375	2248.14424132398
0.9912109375	0.00301422119140625	2249.02925132175
0.995635986328125	0.00310577392578125	2249.91426131951
1.00006103515625	0.0031976318359375	2250.79927131728
0.995635986328125	0.00287384033203125	2251.68428131504
0.9912109375	0.00261260986328125	2252.56929131281
0.986785888671875	0.0023828125	2253.45430131057
0.98236083984375	0.00217529296875	2254.33931130834
0.977935791015625	0.00198486328125	2255.22432130611
0.9735107421875	0.00180908203125	2256.10933130387
0.969085693359375	0.00164581298828125	2256.99434130164
0.96466064453125	0.00149566650390625	2257.8793512994
0.960235595703125	0.00135528564453125	2258.76436129717
0.955810546875	0.0012249755859375	2259.64937129493
0.951385498046875	0.001103515625	2260.5343812927
0.94696044921875	0.0009912109375	2261.41939129046
0.942535400390625	0.000887451171875	2262.30440128823
0.9381103515625	0.00079010009765625	2263.189411286
0.933685302734375	0.000699462890625	2264.07442128376
0.92926025390625	0.0006170654296875	2264.95943128153
0.924835205078125	0.00054046630859375	2265.84444127929
0.92041015625	0.000469970703125	2266.72945127706
0.915985107421875	0.000404632568359375	2267.61446127482
0.91156005859375	0.000344696044921875	2268.49947127259
0.907135009765625	0.00028961181640625	2269.38448127036
0.9027099609375	0.000238555908203125	2270.26949126812
0.898284912109375	0.0001917724609375	2271.15450126589
0.89385986328125	0.000148468017578125	2272.03951126365
0.889434814453125	0.0001090087890625	2272.92452126142
0.885009765625	7.2540283203125E-05	2273.80953125918
0.880584716796875	3.9068603515625E-05	2274.69454125695
0.87615966796875	8.0169677734375E-06	2275.57955125471
0.871734619140625	-2.0306396484375E-05	2276.46456125248
0.8673095703125	-4.644775390625E-05	2277.34957125024
0.862884521484375	-7.0465087890625E-05	2278.23458124801
0.85845947265625	-9.2620849609375E-05	2279.11959124578
0.854034423828125	-0.000112945556640625	2280.00460124354
0.849609375	-0.000132110595703125	2280.88961124131
0.845184326171875	-0.000149749755859375	2281.77462123907
0.84075927734375	-0.000165802001953125	2282.65963123684
0.836334228515625	-0.00018084716796875	2283.5446412346
0.8319091796875	-0.00019476318359375	2284.42965123237
0.827484130859375	-0.00020751953125	2285.31466123014
0.82305908203125	-0.000219818115234375	2286.1996712279
0.818634033203125	-0.00023077392578125	2287.08468122567
0.814208984375	-0.000241241455078125	2287.96969122343
0.809783935546875	-0.000251220703125	2288.8547012212
0.80535888671875	-0.000260406494140625	2289.73971121896
0.800933837890625	-0.000268768310546875	2290.62472121673
0.7965087890625	-0.0002769775390625	2291.50973121449
0.792083740234375	-0.000284820556640625	2292.39474121226
0.78765869140625	-0.000291839599609375	2293.27975121003
0.783233642578125	-0.000298797607421875	2294.16476120779
0.77880859375	-0.0003048095703125	2295.04977120556
0.774383544921875	-0.00031109619140625	2295.93478120332
0.76995849609375	-0.00031689453125	2296.81979120109
0.765533447265625	-0.000322509765625	2297.70480119885
0.7611083984375	-0.000328155517578125	2298.58981119662
0.756683349609375	-0.00033331298828125	2299.47482119438
0.75225830078125	-0.0003377685546875	2300.35983119215
0.747833251953125	-0.000342803955078125	2301.24484118992
0.743408203125	-0.000347259521484375	2302.12985118768
0.738983154296875	-0.000351104736328125	2303.01486118545
0.73455810546875	-0.00035577392578125	2303.89987118321
0.730133056640625	-0.000360137939453125	2304.78488118098
0.7257080078125	-0.000364288330078125	2305.66989117874
0.721282958984375	-0.000367706298828125	2306.55490117651
0.71685791015625	-0.000371734619140625	2307.43991117427
0.712432861328125	-0.000375274658203125	2308.32492117204
0.7080078125	-0.000379180908203125	2309.20993116981
0.703582763671875	-0.00038275146484375	2310.09494116757
0.69915771484375	-0.00038568115234375	2310.97995116534
0.694732666015625	-0.000388946533203125	2311.8649611631
0.6903076171875	-0.000392425537109375	2312.74997116087
0.685882568359375	-0.000395782470703125	2313.63498115863
0.68145751953125	-0.00039874267578125	2314.5199911564
0.677032470703125	-0.000401824951171875	2315.40500115416
0.672607421875	-0.000404998779296875	2316.29001115193
0.668182373046875	-0.000407562255859375	2317.1750211497
0.66375732421875	-0.00041070556640625	2318.06003114746
0.659332275390625	-0.00041351318359375	2318.94504114523
0.6549072265625	-0.0004166259765625	2319.83005114299
0.650482177734375	-0.000419158935546875	2320.71506114076
0.64605712890625	-0.000421600341796875	2321.60007113852
0.641632080078125	-0.00042413330078125	2322.48508113629
0.63720703125	-0.0004266357421875	2323.37009113405
0.632781982421875	-0.0004295654296875	2324.25510113182
0.62835693359375	-0.000431884765625	2325.14011112959
0.623931884765625	-0.000435882568359375	2326.02512112735
0.6195068359375	-0.000437347412109375	2326.91013112512
0.615081787109375	-0.000439239501953125	2327.79514112288
0.61065673828125	-0.000441192626953125	2328.68015112065
0.606231689453125	-0.00044354248046875	2329.56516111841
0.601806640625	-0.000445770263671875	2330.45017111618
0.597381591796875	-0.0004478759765625	2331.33518111394
0.59295654296875	-0.000449920654296875	2332.22019111171
0.588531494140625	-0.000451690673828125	2333.10520110948
0.5841064453125	-0.0004527587890625	2333.99021110724
0.579681396484375	-0.000455352783203125	2334.87522110501
0.57525634765625	-0.00045721435546875	2335.76023110277
0.570831298828125	-0.000459197998046875	2336.64524110054
0.56640625	-0.000461517333984375	2337.5302510983
0.561981201171875	-0.00046307373046875	2338.41526109607
0.55755615234375	-0.00046484375	2339.30027109383
0.553131103515625	-0.0004669189453125	2340.1852810916
0.5487060546875	-0.000468536376953125	2341.07029108937
0.544281005859375	-0.000470123291015625	2341.95530108713
0.53985595703125	-0.000471435546875	2342.8403110849
0.535430908203125	-0.0004730224609375	2343.72532108266
0.531005859375	-0.000474609375	2344.61033108043
0.526580810546875	-0.000476409912109375	2345.49534107819
0.52215576171875	-0.00047784423828125	2346.38035107596
0.517730712890625	-0.0004793701171875	2347.26536107372
0.5133056640625	-0.00048089599609375	2348.15037107149
0.508880615234375	-0.000482177734375	2349.03538106926
0.50445556640625	-0.00048358154296875	2349.92039106702
0.500030517578125	-0.00048492431640625	2350.80540106479
0.49560546875	-0.000486297607421875	2351.69041106255
0.491180419921875	-0.00048773193359375	2352.57542106032
0.48675537109375	-0.000489166259765625	2353.46043105808
0.482330322265625	-0.000490447998046875	2354.34544105585
0.4779052734375	-0.00049176025390625	2355.23045105361
0.473480224609375	-0.000493072509765625	2356.11546105138
0.46905517578125	-0.00049432373046875	2357.00047104915
0.464630126953125	-0.0004949951171875	2357.88548104691
0.460205078125	-0.00049676513671875	2358.77049104468
0.455780029296875	-0.00049786376953125	2359.65550104244
0.45135498046875	-0.00049871826171875	2360.54051104021
0.446929931640625	-0.000500274658203125	2361.42552103797
0.4425048828125	-0.00050140380859375	2362.31053103574
0.438079833984375	-0.000502410888671875	2363.1955410335
0.43365478515625	-0.000503570556640625	2364.08055103127
0.429229736328125	-0.000505157470703125	2364.96556102904
0.4248046875	-0.000506011962890625	2365.8505710268
0.420379638671875	-0.000506988525390625	2366.73558102457
0.41595458984375	-0.0005084228515625	2367.62059102233
0.411529541015625	-0.000509033203125	2368.5056010201
0.4071044921875	-0.00051025390625	2369.39061101786
0.402679443359375	-0.00051129150390625	2370.27562101563
0.39825439453125	-0.000512420654296875	2371.16063101339
0.393829345703125	-0.000513214111328125	2372.04564101116
0.389404296875	-0.00051397705078125	2372.93065100893
0.384979248046875	-0.000514923095703125	2373.81566100669
0.38055419921875	-0.00051617431640625	2374.70067100446
0.376129150390625	-0.00051678466796875	2375.58568100222
0.3717041015625	-0.000518096923828125	2376.47069099999
0.367279052734375	-0.000518951416015625	2377.35570099775
0.36285400390625	-0.00051995849609375	2378.24071099552
0.358428955078125	-0.00052099609375	2379.12572099329
0.35400390625	-0.000521942138671875	2380.01073099105
0.349578857421875	-0.000522186279296875	2380.89574098882
0.34515380859375	-0.000523406982421875	2381.78075098658
0.340728759765625	-0.0005242919921875	2382.66576098435
0.3363037109375	-0.00052557373046875	2383.55077098211
0.331878662109375	-0.000526702880859375	2384.43578097988
0.32745361328125	-0.000527679443359375	2385.32079097764
0.323028564453125	-0.00052911376953125	2386.20580097541
0.318603515625	-0.000529937744140625	2387.09081097317
0.314178466796875	-0.000530975341796875	2387.97582097094
0.30975341796875	-0.00053350830078125	2388.86083096871
0.305328369140625	-0.000534088134765625	2389.74584096647
0.3009033203125	-0.00053497314453125	2390.63085096424
0.296478271484375	-0.000535797119140625	2391.515860962
0.29205322265625	-0.0005367431640625	2392.40087095977
0.287628173828125	-0.00053802490234375	2393.28588095753
0.283203125	-0.000539215087890625	2394.1708909553
0.278778076171875	-0.00053997802734375	2395.05590095307
0.27435302734375	-0.000541351318359375	2395.94091095083
0.269927978515625	-0.000542388916015625	2396.8259209486
0.2655029296875	-0.0005435791015625	2397.71093094636
0.261077880859375	-0.000544769287109375	2398.59594094413
0.25665283203125	-0.000546051025390625	2399.48095094189
0.252227783203125	-0.00054693603515625	2400.36596093966
0.247802734375	-0.0005484619140625	2401.25097093742
0.243377685546875	-0.00054949951171875	2402.13598093519
0.23895263671875	-0.000550872802734375	2403.02099093296
0.234527587890625	-0.00055206298828125	2403.90600093072
0.2301025390625	-0.000552520751953125	2404.79101092849
0.225677490234375	-0.00055413818359375	2405.67602092625
0.22125244140625	-0.00055517578125	2406.56103092402
0.216827392578125	-0.00055657958984375	2407.44604092178
0.21240234375	-0.0005579833984375	2408.33105091955
0.207977294921875	-0.000559234619140625	2409.21606091731
0.20355224609375	-0.00056097412109375	2410.10107091508
0.199127197265625	-0.000562591552734375	2410.98608091285
0.1947021484375	-0.000563995361328125	2411.87109091061
0.190277099609375	-0.00056573486328125	2412.75610090838
0.18585205078125	-0.00056719970703125	2413.64111090614
0.181427001953125	-0.000568695068359375	2414.52612090391
0.177001953125	-0.00057073974609375	2415.41113090167
0.172576904296875	-0.000572509765625	2416.29614089944
0.16815185546875	-0.00057421875	2417.1811508972
0.163726806640625	-0.000576385498046875	2418.06616089497
0.1593017578125	-0.000577423095703125	2418.95117089274
0.154876708984375	-0.000579345703125	2419.8361808905
0.15045166015625	-0.000581329345703125	2420.72119088827
0.146026611328125	-0.000583099365234375	2421.60620088603
0.1416015625	-0.000585601806640625	2422.4912108838
0.137176513671875	-0.000587677001953125	2423.37622088156
0.13275146484375	-0.00058966064453125	2424.26123087933
0.128326416015625	-0.000592193603515625	2425.14624087709
0.1239013671875	-0.00059381103515625	2426.03125087486
0.119476318359375	-0.00059625244140625	2426.91626087263
0.11505126953125	-0.0005982666015625	2427.80127087039
0.110626220703125	-0.000600616455078125	2428.68628086816
0.106201171875	-0.0006036376953125	2429.57129086592
0.101776123046875	-0.00060577392578125	2430.45630086369
0.09735107421875	-0.00060821533203125	2431.34131086145
0.092926025390625	-0.00061126708984375	2432.22632085922
0.0885009765625	-0.00061431884765625	2433.11133085698
0.084075927734375	-0.000616455078125	2433.99634085475
0.07965087890625	-0.0006195068359375	2434.88135085252
0.075225830078125	-0.00062225341796875	2435.76636085028
0.07080078125	-0.00062530517578125	2436.65137084805
0.066375732421875	-0.0006280517578125	2437.53638084581
0.06195068359375	-0.0006317138671875	2438.42139084358
0.057525634765625	-0.00063507080078125	2439.30640084134
0.0531005859375	-0.000638427734375	2440.19141083911
0.048675537109375	-0.00064178466796875	2441.07642083687
0.04425048828125	-0.0006451416015625	2441.96143083464
0.039825439453125	-0.0006488037109375	2442.84644083241
0.035400390625	-0.0006524658203125	2443.73145083017
0.030975341796875	-0.00065643310546875	2444.61646082794
0.02655029296875	-0.000660400390625	2445.5014708257
0.022125244140625	-0.00066436767578125	2446.38648082347
0.0177001953125	-0.00066802978515625	2447.27149082123
0.013275146484375	-0.000672607421875	2448.156500819
0.00885009765625	-0.0006768798828125	2449.04151081676
0.004425048828125	-0.00068084716796875	2449.92652081453
0	-0.0006854248046875	2450.8115308123
0.004425048828125	-0.00032696533203125	2451.69654081006
0.00885009765625	-9.6466064453125E-05	2452.58155080783
0.013275146484375	5.4901123046875E-05	2453.46656080559
0.0177001953125	0.000157470703125	2454.35157080336
0.022125244140625	0.000228485107421875	2455.23658080112
0.02655029296875	0.00027703857421875	2456.12159079889
0.030975341796875	0.0003114013671875	2457.00660079665
0.035400390625	0.000336578369140625	2457.89161079442
0.039825439453125	0.00035589599609375	2458.77662079219
0.04425048828125	0.000370635986328125	2459.66163078995
0.048675537109375	0.000382354736328125	2460.54664078772
0.0531005859375	0.00039166259765625	2461.43165078548
0.057525634765625	0.000399200439453125	2462.31666078325
0.06195068359375	0.000405364990234375	2463.20167078101
0.066375732421875	0.000409576416015625	2464.08668077878
0.07080078125	0.000413970947265625	2464.97169077654
0.075225830078125	0.00041705322265625	2465.85670077431
0.07965087890625	0.000418701171875	2466.74171077208
0.084075927734375	0.000420989990234375	2467.62672076984
0.0885009765625	0.00042236328125	2468.51173076761
0.092926025390625	0.00042340087890625	2469.39674076537
0.09735107421875	0.00042431640625	2470.28175076314
0.101776123046875	0.000425140380859375	2471.1667607609
0.106201171875	0.00042498779296875	2472.05177075867
0.110626220703125	0.000425872802734375	2472.93678075643
0.11505126953125	0.00042535400390625	2473.8217907542
0.119476318359375	0.00042510986328125	2474.70680075197
0.1239013671875	0.000424713134765625	2475.59181074973
0.128326416015625	0.0004246826171875	2476.4768207475
0.13275146484375	0.00042376708984375	2477.36183074526
0.137176513671875	0.0004224853515625	2478.24684074303
0.1416015625	0.000422271728515625	2479.13185074079
0.146026611328125	0.0004215087890625	2480.01686073856
0.15045166015625	0.00042071533203125	2480.90187073632
0.154876708984375	0.0004200439453125	2481.78688073409
0.1593017578125	0.000418548583984375	2482.67189073186
0.163726806640625	0.00041766357421875	2483.55690072962
0.16815185546875	0.000416778564453125	2484.44191072739
0.172576904296875	0.0004166259765625	2485.32692072515
0.177001953125	0.00041510009765625	2486.21193072292
0.181427001953125	0.000413604736328125	2487.09694072068
0.18585205078125	0.000412567138671875	2487.98195071845
0.190277099609375	0.000411712646484375	2488.86696071622
0.1947021484375	0.000410064697265625	2489.75197071398
0.199127197265625	0.000408966064453125	2490.63698071175
0.20355224609375	0.000407958984375	2491.52199070951
0.207977294921875	0.0004072265625	2492.40700070728
0.21240234375	0.000405853271484375	2493.29201070504
0.216827392578125	0.000405059814453125	2494.17702070281
0.22125244140625	0.000404296875	2495.06203070057
0.225677490234375	0.000403076171875	2495.94704069834
0.2301025390625	0.0004022216796875	2496.8320506961
0.234527587890625	0.000400634765625	2497.71706069387
0.23895263671875	0.000399688720703125	2498.60207069164
0.243377685546875	0.0003990478515625	2499.4870806894
0.247802734375	0.000398040771484375	2500.37209068717
0.252227783203125	0.00039752197265625	2501.25710068493
0.25665283203125	0.000396484375	2502.1421106827
0.261077880859375	0.00039581298828125	2503.02712068046
0.2655029296875	0.0003955078125	2503.91213067823
0.269927978515625	0.00039453125	2504.797140676
0.27435302734375	0.00039385986328125	2505.68215067376
0.278778076171875	0.000392669677734375	2506.56716067153
0.283203125	0.000391937255859375	2507.45217066929
0.287628173828125	0.000390960693359375	2508.33718066706
0.29205322265625	0.00038995361328125	2509.22219066482
0.296478271484375	0.000389495849609375	2510.10720066259
0.3009033203125	0.00038934326171875	2510.99221066035
0.305328369140625	0.0003880615234375	2511.87722065812
0.30975341796875	0.000388092041015625	2512.76223065589
0.314178466796875	0.000388336181640625	2513.64724065365
0.318603515625	0.000387054443359375	2514.53225065142
0.323028564453125	0.0003861083984375	2515.41726064918
0.32745361328125	0.000385772705078125	2516.30227064695
0.331878662109375	0.00038494873046875	2517.18728064471
0.3363037109375	0.000384765625	2518.07229064248
0.340728759765625	0.000384765625	2518.95730064024
0.34515380859375	0.00038458251953125	2519.84231063801
0.349578857421875	0.000384307861328125	2520.72732063578
0.35400390625	0.0003837890625	2521.61233063354
0.358428955078125	0.000383209228515625	2522.49734063131
0.36285400390625	0.00038348388671875	2523.38235062907
0.367279052734375	0.000384307861328125	2524.26736062684
0.3717041015625	0.000383758544921875	2525.1523706246
0.376129150390625	0.000384307861328125	2526.03738062237
0.38055419921875	0.0003846435546875	2526.92239062013
0.384979248046875	0.000384735107421875	2527.8074006179
0.389404296875	0.000384979248046875	2528.69241061567
0.393829345703125	0.000384765625	2529.57742061343
0.39825439453125	0.00038568115234375	2530.4624306112
0.402679443359375	0.000385650634765625	2531.34744060896
0.4071044921875	0.00038623046875	2532.23245060673
0.411529541015625	0.00038671875	2533.11746060449
0.41595458984375	0.000387420654296875	2534.00247060226
0.420379638671875	0.000387969970703125	2534.88748060002
0.4248046875	0.000388671875	2535.77249059779
0.429229736328125	0.0003895263671875	2536.65750059556
0.43365478515625	0.000390167236328125	2537.54251059332
0.438079833984375	0.00039031982421875	2538.42752059109
0.4425048828125	0.000391448974609375	2539.31253058885
0.446929931640625	0.000392578125	2540.19754058662
0.45135498046875	0.000393310546875	2541.08255058438
0.455780029296875	0.000394439697265625	2541.96756058215
0.460205078125	0.0003956298828125	2542.85257057991
0.464630126953125	0.00039697265625	2543.73758057768
0.46905517578125	0.000397674560546875	2544.62259057545
0.473480224609375	0.00039849853515625	2545.50760057321
0.4779052734375	0.000399993896484375	2546.39261057098
0.482330322265625	0.00040142822265625	2547.27762056874
0.48675537109375	0.000402374267578125	2548.16263056651
0.491180419921875	0.00040411376953125	2549.04764056427
0.49560546875	0.0004052734375	2549.93265056204
0.500030517578125	0.000407196044921875	2550.8176605598
0.50445556640625	0.000409149169921875	2551.70267055757
0.508880615234375	0.00041046142578125	2552.58768055534
0.5133056640625	0.00041241455078125	2553.4726905531
0.517730712890625	0.000413970947265625	2554.35770055087
0.52215576171875	0.000415496826171875	2555.24271054863
0.526580810546875	0.00041754150390625	2556.1277205464
0.531005859375	0.000419342041015625	2557.01273054416
0.535430908203125	0.000421295166015625	2557.89774054193
0.53985595703125	0.000423614501953125	2558.78275053969
0.544281005859375	0.0004254150390625	2559.66776053746
0.5487060546875	0.000427032470703125	2560.55277053523
0.553131103515625	0.000429718017578125	2561.43778053299
0.55755615234375	0.000431915283203125	2562.32279053076
0.561981201171875	0.00043408203125	2563.20780052852
0.56640625	0.00043695068359375	2564.09281052629
0.570831298828125	0.00043878173828125	2564.97782052405
0.57525634765625	0.00044158935546875	2565.86283052182
0.579681396484375	0.000444183349609375	2566.74784051958
0.5841064453125	0.0004461669921875	2567.63285051735
0.588531494140625	0.000448699951171875	2568.51786051512
0.59295654296875	0.0004522705078125	2569.40287051288
0.597381591796875	0.00045452880859375	2570.28788051065
0.601806640625	0.00045819091796875	2571.17289050841
0.606231689453125	0.000460784912109375	2572.05790050618
0.61065673828125	0.00046368408203125	2572.94291050394
0.615081787109375	0.00046661376953125	2573.82792050171
0.6195068359375	0.000469635009765625	2574.71293049947
0.623931884765625	0.000473358154296875	2575.59794049724
0.62835693359375	0.00047845458984375	2576.48295049501
0.632781982421875	0.0004808349609375	2577.36796049277
0.63720703125	0.000484283447265625	2578.25297049054
0.641632080078125	0.00048785400390625	2579.1379804883
0.64605712890625	0.000491241455078125	2580.02299048607
0.650482177734375	0.0004951171875	2580.90800048383
0.6549072265625	0.0004991455078125	2581.7930104816
0.659332275390625	0.0005028076171875	2582.67802047936
0.66375732421875	0.000507171630859375	2583.56303047713
0.668182373046875	0.000511260986328125	2584.4480404749
0.672607421875	0.000515533447265625	2585.33305047266
0.677032470703125	0.000520233154296875	2586.21806047043
0.68145751953125	0.000524688720703125	2587.10307046819
0.685882568359375	0.000529937744140625	2587.98808046596
0.6903076171875	0.000534576416015625	2588.87309046372
0.694732666015625	0.000539794921875	2589.75810046149
0.69915771484375	0.000545318603515625	2590.64311045925
0.703582763671875	0.000550262451171875	2591.52812045702
0.7080078125	0.0005555419921875	2592.41313045479
0.712432861328125	0.000561767578125	2593.29814045255
0.71685791015625	0.00056787109375	2594.18315045032
0.721282958984375	0.0005738525390625	2595.06816044808
0.7257080078125	0.00058038330078125	2595.95317044585
0.730133056640625	0.000586944580078125	2596.83818044361
0.73455810546875	0.00059393310546875	2597.72319044138
0.738983154296875	0.0006011962890625	2598.60820043915
0.743408203125	0.00060791015625	2599.49321043691
0.747833251953125	0.00061553955078125	2600.37822043468
0.75225830078125	0.00062347412109375	2601.26323043244
0.756683349609375	0.00063201904296875	2602.14824043021
0.7611083984375	0.000640869140625	2603.03325042797
0.765533447265625	0.0006500244140625	2603.91826042574
0.76995849609375	0.0006591796875	2604.8032704235
0.774383544921875	0.0006689453125	2605.68828042127
0.77880859375	0.0006793212890625	2606.57329041903
0.783233642578125	0.000689697265625	2607.4583004168
0.78765869140625	0.00070098876953125	2608.34331041457
0.792083740234375	0.00071258544921875	2609.22832041233
0.7965087890625	0.00072509765625	2610.1133304101
0.800933837890625	0.0007379150390625	2610.99834040786
0.80535888671875	0.00075164794921875	2611.88335040563
0.809783935546875	0.00076568603515625	2612.76836040339
0.814208984375	0.00078033447265625	2613.65337040116
0.818634033203125	0.0007952880859375	2614.53838039893
0.82305908203125	0.00081146240234375	2615.42339039669
0.827484130859375	0.00082855224609375	2616.30840039446
0.8319091796875	0.0008465576171875	2617.19341039222
0.836334228515625	0.00086517333984375	2618.07842038999
0.84075927734375	0.000885009765625	2618.96343038775
0.845184326171875	0.00090576171875	2619.84844038552
0.849609375	0.00092681884765625	2620.73345038328
0.854034423828125	0.0009490966796875	2621.61846038105
0.85845947265625	0.0009735107421875	2622.50347037882
0.862884521484375	0.00099822998046875	2623.38848037658
0.8673095703125	0.0010247802734375	2624.27349037435
0.871734619140625	0.00105255126953125	2625.15850037211
0.87615966796875	0.00108184814453125	2626.04351036988
0.880584716796875	0.001112060546875	2626.92852036764
0.885009765625	0.00114349365234375	2627.81353036541
0.889434814453125	0.00117706298828125	2628.69854036317
0.89385986328125	0.00121307373046875	2629.58355036094
0.898284912109375	0.00125	2630.46856035871
0.9027099609375	0.0012884521484375	2631.35357035647
0.907135009765625	0.001328125	2632.23858035424
0.91156005859375	0.00137176513671875	2633.123590352
0.915985107421875	0.00141571044921875	2634.00860034977
0.92041015625	0.00146240234375	2634.89361034753
0.924835205078125	0.00151214599609375	2635.7786203453
0.92926025390625	0.00156280517578125	2636.66363034306
0.933685302734375	0.00161651611328125	2637.54864034083
0.9381103515625	0.001673583984375	2638.4336503386
0.942535400390625	0.00173187255859375	2639.31866033636
0.94696044921875	0.0017926025390625	2640.20367033413
0.951385498046875	0.0018560791015625	2641.08868033189
0.955810546875	0.00192169189453125	2641.97369032966
0.960235595703125	0.00199066162109375	2642.85870032742
0.96466064453125	0.00206146240234375	2643.74371032519
0.969085693359375	0.002135009765625	2644.62872032295
0.9735107421875	0.00221099853515625	2645.51373032072
0.977935791015625	0.00228607177734375	2646.39874031849
0.98236083984375	0.00236907958984375	2647.28375031625
0.986785888671875	0.00245147705078125	2648.16876031402
0.9912109375	0.0025372314453125	2649.05377031178
0.995635986328125	0.0026226806640625	2649.93878030955
1.00006103515625	0.0027130126953125	2650.82379030731
0.995635986328125	0.00240020751953125	2651.70880030508
0.9912109375	0.0021563720703125	2652.59381030284
0.986785888671875	0.00194610595703125	2653.47882030061
0.98236083984375	0.00175933837890625	2654.36383029838
0.977935791015625	0.001590576171875	2655.24884029614
0.9735107421875	0.0014361572265625	2656.13385029391
0.969085693359375	0.0012939453125	2657.01886029167
0.96466064453125	0.00116363525390625	2657.90387028944
0.960235595703125	0.00104248046875	2658.7888802872
0.955810546875	0.00093170166015625	2659.67389028497
0.951385498046875	0.00082916259765625	2660.55890028273
0.94696044921875	0.00073516845703125	2661.4439102805
0.942535400390625	0.000648193359375	2662.32892027827
0.9381103515625	0.0005682373046875	2663.21393027603
0.933685302734375	0.00049298095703125	2664.0989402738
0.92926025390625	0.000425933837890625	2664.98395027156
0.924835205078125	0.000364227294921875	2665.86896026933
0.92041015625	0.000307769775390625	2666.75397026709
0.915985107421875	0.00025531005859375	2667.63898026486
0.91156005859375	0.00020733642578125	2668.52399026262
0.907135009765625	0.00016375732421875	2669.40900026039
0.9027099609375	0.000123779296875	2670.29401025816
0.898284912109375	8.685302734375E-05	2671.17902025592
0.89385986328125	5.3253173828125E-05	2672.06403025369
0.889434814453125	2.20672607421875E-05	2672.94904025145
0.885009765625	-6.1553955078125E-06	2673.83405024922
0.880584716796875	-3.24127197265625E-05	2674.71906024698
0.87615966796875	-5.645751953125E-05	2675.60407024475
0.871734619140625	-7.84912109375E-05	2676.48908024251
0.8673095703125	-9.8846435546875E-05	2677.37409024028
0.862884521484375	-0.00011761474609375	2678.25910023805
0.85845947265625	-0.00013446044921875	2679.14411023581
0.854034423828125	-0.000150787353515625	2680.02912023358
0.849609375	-0.000165863037109375	2680.91413023134
0.845184326171875	-0.000179534912109375	2681.79914022911
0.84075927734375	-0.00019232177734375	2682.68415022687
0.836334228515625	-0.000204193115234375	2683.56916022464
0.8319091796875	-0.00021539306640625	2684.4541702224
0.827484130859375	-0.00022552490234375	2685.33918022017
0.82305908203125	-0.000235443115234375	2686.22419021794
0.818634033203125	-0.00024462890625	2687.1092002157
0.814208984375	-0.00025335693359375	2687.99421021347
0.809783935546875	-0.000261322021484375	2688.87922021123
0.80535888671875	-0.000268829345703125	2689.764230209
0.800933837890625	-0.000276031494140625	2690.64924020676
0.7965087890625	-0.00028271484375	2691.53425020453
0.792083740234375	-0.000289215087890625	2692.41926020229
0.78765869140625	-0.00029534912109375	2693.30427020006
0.783233642578125	-0.000300872802734375	2694.18928019783
0.77880859375	-0.000306549072265625	2695.07429019559
0.774383544921875	-0.000311737060546875	2695.95930019336
0.76995849609375	-0.000316925048828125	2696.84431019112
0.765533447265625	-0.000321929931640625	2697.72932018889
0.7611083984375	-0.00032647705078125	2698.61433018665
0.756683349609375	-0.0003310546875	2699.49934018442
0.75225830078125	-0.00033551025390625	2700.38435018218
0.747833251953125	-0.000339813232421875	2701.26936017995
0.743408203125	-0.000343780517578125	2702.15437017772
0.738983154296875	-0.0003468017578125	2703.03938017548
0.73455810546875	-0.000351348876953125	2703.92439017325
0.730133056640625	-0.00035528564453125	2704.80940017101
0.7257080078125	-0.000358795166015625	2705.69441016878
0.721282958984375	-0.000362518310546875	2706.57942016654
0.71685791015625	-0.000365936279296875	2707.46443016431
0.712432861328125	-0.000369384765625	2708.34944016208
0.7080078125	-0.000372711181640625	2709.23445015984
0.703582763671875	-0.000375946044921875	2710.11946015761
0.69915771484375	-0.000378570556640625	2711.00447015537
0.694732666015625	-0.00038189697265625	2711.88948015314
0.6903076171875	-0.000385009765625	2712.7744901509
0.685882568359375	-0.000387847900390625	2713.65950014867
0.68145751953125	-0.000390869140625	2714.54451014643
0.677032470703125	-0.000393707275390625	2715.4295201442
0.672607421875	-0.000396453857421875	2716.31453014196
0.668182373046875	-0.000399383544921875	2717.19954013973
0.66375732421875	-0.00040191650390625	2718.0845501375
0.659332275390625	-0.000404510498046875	2718.96956013526
0.6549072265625	-0.00040740966796875	2719.85457013303
0.650482177734375	-0.0004097900390625	2720.73958013079
0.64605712890625	-0.000412445068359375	2721.62459012856
0.641632080078125	-0.000414947509765625	2722.50960012632
0.63720703125	-0.000417205810546875	2723.39461012409
0.632781982421875	-0.00041961669921875	2724.27962012186
0.62835693359375	-0.000421783447265625	2725.16463011962
0.623931884765625	-0.00042584228515625	2726.04964011739
0.6195068359375	-0.00042755126953125	2726.93465011515
0.615081787109375	-0.0004293212890625	2727.81966011292
0.61065673828125	-0.000431304931640625	2728.70467011068
0.606231689453125	-0.000433319091796875	2729.58968010845
0.601806640625	-0.00043572998046875	2730.47469010621
0.597381591796875	-0.0004378662109375	2731.35970010398
0.59295654296875	-0.00043988037109375	2732.24471010175
0.588531494140625	-0.000441650390625	2733.12972009951
0.5841064453125	-0.0004429931640625	2734.01473009728
0.579681396484375	-0.000445281982421875	2734.89974009504
0.57525634765625	-0.000447418212890625	2735.78475009281
0.570831298828125	-0.000449676513671875	2736.66976009057
0.56640625	-0.000451904296875	2737.55477008834
0.561981201171875	-0.000453155517578125	2738.4397800861
0.55755615234375	-0.000455322265625	2739.32479008387
0.553131103515625	-0.000457061767578125	2740.20980008164
0.5487060546875	-0.000458709716796875	2741.0948100794
0.544281005859375	-0.0004600830078125	2741.97982007717
0.53985595703125	-0.00046221923828125	2742.86483007493
0.535430908203125	-0.00046405029296875	2743.7498400727
0.531005859375	-0.00046533203125	2744.63485007046
0.526580810546875	-0.000467254638671875	2745.51986006823
0.52215576171875	-0.000468902587890625	2746.40487006599
0.517730712890625	-0.00047039794921875	2747.28988006376
0.5133056640625	-0.00047216796875	2748.17489006153
0.508880615234375	-0.00047344970703125	2749.05990005929
0.50445556640625	-0.00047515869140625	2749.94491005706
0.500030517578125	-0.000476654052734375	2750.82992005482
0.49560546875	-0.00047845458984375	2751.71493005259
0.491180419921875	-0.000479583740234375	2752.59994005035
0.48675537109375	-0.0004813232421875	2753.48495004812
0.482330322265625	-0.000482696533203125	2754.36996004588
0.4779052734375	-0.00048406982421875	2755.25497004365
0.473480224609375	-0.0004853515625	2756.13998004142
0.46905517578125	-0.00048687744140625	2757.02499003918
0.464630126953125	-0.00048828125	2757.91000003695
0.460205078125	-0.000489593505859375	2758.79501003471
0.455780029296875	-0.00049078369140625	2759.68002003248
0.45135498046875	-0.0004925537109375	2760.56503003024
0.446929931640625	-0.0004935302734375	2761.45004002801
0.4425048828125	-0.0004951171875	2762.33505002577
0.438079833984375	-0.00049591064453125	2763.22006002354
0.43365478515625	-0.00049755859375	2764.10507002131
0.429229736328125	-0.00049884033203125	2764.99008001907
0.4248046875	-0.000499664306640625	2765.87509001684
0.420379638671875	-0.000500823974609375	2766.7601000146
0.41595458984375	-0.000501708984375	2767.64511001237
0.411529541015625	-0.000503021240234375	2768.53012001013
0.4071044921875	-0.000504241943359375	2769.4151300079
0.402679443359375	-0.00050543212890625	2770.30014000566
0.39825439453125	-0.000506591796875	2771.18515000343
0.393829345703125	-0.000507659912109375	2772.0701600012
0.389404296875	-0.00050830078125	2772.95516999896
0.384979248046875	-0.000509674072265625	2773.84017999673
0.38055419921875	-0.000510772705078125	2774.72518999449
0.376129150390625	-0.00051171875	2775.61019999226
0.3717041015625	-0.000513031005859375	2776.49520999002
0.367279052734375	-0.000513824462890625	2777.38021998779
0.36285400390625	-0.000515228271484375	2778.26522998555
0.358428955078125	-0.00051629638671875	2779.15023998332
0.35400390625	-0.00051727294921875	2780.03524998109
0.349578857421875	-0.0005179443359375	2780.92025997885
0.34515380859375	-0.00051934814453125	2781.80526997662
0.340728759765625	-0.00052056884765625	2782.69027997438
0.3363037109375	-0.0005216064453125	2783.57528997215
0.331878662109375	-0.000522796630859375	2784.46029996991
0.32745361328125	-0.000523773193359375	2785.34530996768
0.323028564453125	-0.000524993896484375	2786.23031996544
0.318603515625	-0.000526092529296875	2787.11532996321
0.314178466796875	-0.000527252197265625	2788.00033996098
0.30975341796875	-0.00052960205078125	2788.88534995874
0.305328369140625	-0.000530242919921875	2789.77035995651
0.3009033203125	-0.00053106689453125	2790.65536995427
0.296478271484375	-0.0005322265625	2791.54037995204
0.29205322265625	-0.0005335693359375	2792.4253899498
0.287628173828125	-0.000534637451171875	2793.31039994757
0.283203125	-0.0005360107421875	2794.19540994533
0.278778076171875	-0.00053704833984375	2795.0804199431
0.27435302734375	-0.000538482666015625	2795.96542994087
0.269927978515625	-0.0005396728515625	2796.85043993863
0.2655029296875	-0.00054095458984375	2797.7354499364
0.261077880859375	-0.0005419921875	2798.62045993416
0.25665283203125	-0.000543212890625	2799.50546993193
0.252227783203125	-0.000544281005859375	2800.39047992969
0.247802734375	-0.0005458984375	2801.27548992746
0.243377685546875	-0.000547119140625	2802.16049992522
0.23895263671875	-0.00054833984375	2803.04550992299
0.234527587890625	-0.00055010986328125	2803.93051992076
0.2301025390625	-0.00055096435546875	2804.81552991852
0.225677490234375	-0.000552825927734375	2805.70053991629
0.22125244140625	-0.000554107666015625	2806.58554991405
0.216827392578125	-0.000555206298828125	2807.47055991182
0.21240234375	-0.0005567626953125	2808.35556990958
0.207977294921875	-0.00055828857421875	2809.24057990735
0.20355224609375	-0.0005594482421875	2810.12558990511
0.199127197265625	-0.0005611572265625	2811.01059990288
0.1947021484375	-0.00056292724609375	2811.89560990065
0.190277099609375	-0.0005648193359375	2812.78061989841
0.18585205078125	-0.0005665283203125	2813.66562989618
0.181427001953125	-0.00056817626953125	2814.55063989394
0.177001953125	-0.000570281982421875	2815.43564989171
0.172576904296875	-0.0005721435546875	2816.32065988947
0.16815185546875	-0.00057415771484375	2817.20566988724
0.163726806640625	-0.000576019287109375	2818.09067988501
0.1593017578125	-0.000578155517578125	2818.97568988277
0.154876708984375	-0.000579925537109375	2819.86069988054
0.15045166015625	-0.00058203125	2820.7457098783
0.146026611328125	-0.000584564208984375	2821.63071987607
0.1416015625	-0.000586700439453125	2822.51572987383
0.137176513671875	-0.00058892822265625	2823.4007398716
0.13275146484375	-0.0005916748046875	2824.28574986936
0.128326416015625	-0.000593841552734375	2825.17075986713
0.1239013671875	-0.000596527099609375	2826.05576986489
0.119476318359375	-0.00059869384765625	2826.94077986266
0.11505126953125	-0.000600677490234375	2827.82578986043
0.110626220703125	-0.00060394287109375	2828.71079985819
0.106201171875	-0.000606689453125	2829.59580985596
0.101776123046875	-0.00060943603515625	2830.48081985372
0.09735107421875	-0.00061279296875	2831.36582985149
0.092926025390625	-0.00061553955078125	2832.25083984925
0.0885009765625	-0.00061859130859375	2833.13584984702
0.084075927734375	-0.00062164306640625	2834.02085984479
0.07965087890625	-0.00062469482421875	2834.90586984255
0.075225830078125	-0.00062774658203125	2835.79087984032
0.07080078125	-0.00063140869140625	2836.67588983808
0.066375732421875	-0.00063507080078125	2837.56089983585
0.06195068359375	-0.000638427734375	2838.44590983361
0.057525634765625	-0.00064208984375	2839.33091983138
0.0531005859375	-0.0006463623046875	2840.21592982914
0.048675537109375	-0.00064971923828125	2841.10093982691
0.04425048828125	-0.000654296875	2841.98594982468
0.039825439453125	-0.000657958984375	2842.87095982244
0.035400390625	-0.0006622314453125	2843.75596982021
0.030975341796875	-0.00066680908203125	2844.64097981797
0.02655029296875	-0.0006707763671875	2845.52598981574
0.022125244140625	-0.00067596435546875	2846.4109998135
0.0177001953125	-0.0006805419921875	2847.29600981127
0.013275146484375	-0.00068511962890625	2848.18101980903
0.00885009765625	-0.00069000244140625	2849.0660298068
0.004425048828125	-0.0006951904296875	2849.95103980457
0	-0.00070068359375	2850.83604980233
0.004425048828125	-0.00033837890625	2851.7210598001
0.00885009765625	-0.000107147216796875	2852.60606979786
0.013275146484375	4.5953369140625E-05	2853.49107979563
0.0177001953125	0.00015020751953125	2854.37608979339
0.022125244140625	0.00022259521484375	2855.26109979116
0.02655029296875	0.00027294921875	2856.14610978892
0.030975341796875	0.000309051513671875	2857.03111978669
0.035400390625	0.0003353271484375	2857.91612978446
0.039825439453125	0.0003553466796875	2858.80113978222
0.04425048828125	0.000370758056640625	2859.68614977999
0.048675537109375	0.000382293701171875	2860.57115977775
0.0531005859375	0.00039215087890625	2861.45616977552
0.057525634765625	0.000400115966796875	2862.34117977328
0.06195068359375	0.000406341552734375	2863.22618977105
0.066375732421875	0.000411041259765625	2864.11119976881
0.07080078125	0.000415191650390625	2864.99620976658
0.075225830078125	0.000417938232421875	2865.88121976435
0.07965087890625	0.000420135498046875	2866.76622976211
0.084075927734375	0.000422332763671875	2867.65123975988
0.0885009765625	0.000423858642578125	2868.53624975764
0.092926025390625	0.0004249267578125	2869.42125975541
0.09735107421875	0.000425933837890625	2870.30626975317
0.101776123046875	0.000426483154296875	2871.19127975094
0.106201171875	0.000426788330078125	2872.0762897487
0.110626220703125	0.000426788330078125	2872.96129974647
0.11505126953125	0.000427001953125	2873.84630974424
0.119476318359375	0.000425933837890625	2874.731319742
0.1239013671875	0.00042578125	2875.61632973977
0.128326416015625	0.000425201416015625	2876.50133973753
0.13275146484375	0.000424285888671875	2877.3863497353
0.137176513671875	0.000423797607421875	2878.27135973306
0.1416015625	0.000423065185546875	2879.15636973083
0.146026611328125	0.000422576904296875	2880.04137972859
0.15045166015625	0.000421600341796875	2880.92638972636
0.154876708984375	0.00042047119140625	2881.81139972413
0.1593017578125	0.000419342041015625	2882.69640972189
0.163726806640625	0.000418701171875	2883.58141971966
0.16815185546875	0.00041680908203125	2884.46642971742
0.172576904296875	0.000415679931640625	2885.35143971519
0.177001953125	0.0004141845703125	2886.23644971295
0.181427001953125	0.000412933349609375	2887.12145971072
0.18585205078125	0.000412109375	2888.00646970848
0.190277099609375	0.000410888671875	2888.89147970625
0.1947021484375	0.000409759521484375	2889.77648970402
0.199127197265625	0.000408447265625	2890.66149970178
0.20355224609375	0.000407684326171875	2891.54650969955
0.207977294921875	0.00040679931640625	2892.43151969731
0.21240234375	0.000405426025390625	2893.31652969508
0.216827392578125	0.000404083251953125	2894.20153969284
0.22125244140625	0.00040283203125	2895.08654969061
0.225677490234375	0.000401580810546875	2895.97155968837
0.2301025390625	0.0004002685546875	2896.85656968614
0.234527587890625	0.000398590087890625	2897.74157968391
0.23895263671875	0.00039801025390625	2898.62658968167
0.243377685546875	0.000397369384765625	2899.51159967944
0.247802734375	0.000396148681640625	2900.3966096772
0.252227783203125	0.000395294189453125	2901.28161967497
0.25665283203125	0.000394683837890625	2902.16662967273
0.261077880859375	0.000394073486328125	2903.0516396705
0.2655029296875	0.000393310546875	2903.93664966826
0.269927978515625	0.00039263916015625	2904.82165966603
0.27435302734375	0.00039178466796875	2905.7066696638
0.278778076171875	0.000390472412109375	2906.59167966156
0.283203125	0.000389862060546875	2907.47668965933
0.287628173828125	0.000388824462890625	2908.36169965709
0.29205322265625	0.000388031005859375	2909.24670965486
0.296478271484375	0.00038739013671875	2910.13171965262
0.3009033203125	0.000386383056640625	2911.01672965039
0.305328369140625	0.000385650634765625	2911.90173964815
0.30975341796875	0.00038470458984375	2912.78674964592
0.314178466796875	0.000385284423828125	2913.67175964369
0.318603515625	0.000384368896484375	2914.55676964145
0.323028564453125	0.00038323974609375	2915.44177963922
0.32745361328125	0.000382354736328125	2916.32678963698
0.331878662109375	0.000382080078125	2917.21179963475
0.3363037109375	0.000381683349609375	2918.09680963251
0.340728759765625	0.000381378173828125	2918.98181963028
0.34515380859375	0.000381103515625	2919.86682962804
0.349578857421875	0.000380889892578125	2920.75183962581
0.35400390625	0.000379974365234375	2921.63684962358
0.358428955078125	0.0003798828125	2922.52185962134
0.36285400390625	0.000380035400390625	2923.40686961911
0.367279052734375	0.000380340576171875	2924.29187961687
0.3717041015625	0.000380401611328125	2925.17688961464
0.376129150390625	0.00038043212890625	2926.0618996124
0.38055419921875	0.000380615234375	2926.94690961017
0.384979248046875	0.000380828857421875	2927.83191960794
0.389404296875	0.000381072998046875	2928.7169296057
0.393829345703125	0.000380889892578125	2929.60193960347
0.39825439453125	0.00038104248046875	2930.48694960123
0.402679443359375	0.0003817138671875	2931.371959599
0.4071044921875	0.000382232666015625	2932.25696959676
0.411529541015625	0.000382537841796875	2933.14197959453
0.41595458984375	0.000383270263671875	2934.02698959229
0.420379638671875	0.00038372802734375	2934.91199959006
0.4248046875	0.000384185791015625	2935.79700958782
0.429229736328125	0.000384857177734375	2936.68201958559
0.43365478515625	0.000385345458984375	2937.56702958336
0.438079833984375	0.0003863525390625	2938.45203958112
0.4425048828125	0.00038702392578125	2939.33704957889
0.446929931640625	0.00038775634765625	2940.22205957665
0.45135498046875	0.00038861083984375	2941.10706957442
0.455780029296875	0.000389678955078125	2941.99207957218
0.460205078125	0.000390716552734375	2942.87708956995
0.464630126953125	0.000391876220703125	2943.76209956772
0.46905517578125	0.000392486572265625	2944.64710956548
0.473480224609375	0.00039373779296875	2945.53211956325
0.4779052734375	0.000394744873046875	2946.41712956101
0.482330322265625	0.000396148681640625	2947.30213955878
0.48675537109375	0.000397430419921875	2948.18714955654
0.491180419921875	0.000398529052734375	2949.07215955431
0.49560546875	0.000399932861328125	2949.95716955207
0.500030517578125	0.000401458740234375	2950.84217954984
0.50445556640625	0.000402984619140625	2951.72718954761
0.508880615234375	0.00040399169921875	2952.61219954537
0.5133056640625	0.00040576171875	2953.49720954314
0.517730712890625	0.000407562255859375	2954.3822195409
0.52215576171875	0.000408966064453125	2955.26722953867
0.526580810546875	0.000411041259765625	2956.15223953643
0.531005859375	0.000412811279296875	2957.0372495342
0.535430908203125	0.000414703369140625	2957.92225953196
0.53985595703125	0.000416229248046875	2958.80726952973
0.544281005859375	0.0004185791015625	2959.6922795275
0.5487060546875	0.000420074462890625	2960.57728952526
0.553131103515625	0.00042205810546875	2961.46229952303
0.55755615234375	0.00042425537109375	2962.34730952079
0.561981201171875	0.00042657470703125	2963.23231951856
0.56640625	0.000428802490234375	2964.11732951632
0.570831298828125	0.000431121826171875	2965.00233951409
0.57525634765625	0.000433563232421875	2965.88734951185
0.579681396484375	0.000435882568359375	2966.77235950962
0.5841064453125	0.000438262939453125	2967.65736950739
0.588531494140625	0.0004400634765625	2968.54237950515
0.59295654296875	0.000443145751953125	2969.42738950292
0.597381591796875	0.000445831298828125	2970.31239950068
0.601806640625	0.00044854736328125	2971.19740949845
0.606231689453125	0.000451507568359375	2972.08241949621
0.61065673828125	0.0004542236328125	2972.96742949398
0.615081787109375	0.000457427978515625	2973.85243949174
0.6195068359375	0.000460540771484375	2974.73744948951
0.623931884765625	0.00046343994140625	2975.62245948728
0.62835693359375	0.00046807861328125	2976.50746948504
0.632781982421875	0.000470672607421875	2977.39247948281
0.63720703125	0.0004737548828125	2978.27748948057
0.641632080078125	0.000476776123046875	2979.16249947834
0.64605712890625	0.000480377197265625	2980.0475094761
0.650482177734375	0.000483673095703125	2980.93251947387
0.6549072265625	0.0004871826171875	2981.81752947163
0.659332275390625	0.000490966796875	2982.7025394694
0.66375732421875	0.00049456787109375	2983.58754946717
0.668182373046875	0.00049896240234375	2984.47255946493
0.672607421875	0.00050274658203125	2985.3575694627
0.677032470703125	0.000506866455078125	2986.24257946046
0.68145751953125	0.000511260986328125	2987.12758945823
0.685882568359375	0.000515533447265625	2988.01259945599
0.6903076171875	0.00052001953125	2988.89760945376
0.694732666015625	0.00052459716796875	2989.78261945152
0.69915771484375	0.000529083251953125	2990.66762944929
0.703582763671875	0.00053375244140625	2991.55263944706
0.7080078125	0.000539154052734375	2992.43764944482
0.712432861328125	0.000544342041015625	2993.32265944259
0.71685791015625	0.000550079345703125	2994.20766944035
0.721282958984375	0.00055548095703125	2995.09267943812
0.7257080078125	0.0005609130859375	2995.97768943588
0.730133056640625	0.00056683349609375	2996.86269943365
0.73455810546875	0.0005728759765625	2997.74770943141
0.738983154296875	0.00057916259765625	2998.63271942918
0.743408203125	0.000585205078125	2999.51772942695
0.747833251953125	0.00059197998046875	3000.40273942471
0.75225830078125	0.0005992431640625	3001.28774942248
0.756683349609375	0.000606964111328125	3002.17275942024
0.7611083984375	0.00061431884765625	3003.05776941801
0.765533447265625	0.00062286376953125	3003.94277941577
0.76995849609375	0.00063079833984375	3004.82778941354
0.774383544921875	0.0006390380859375	3005.7127994113
0.77880859375	0.000648193359375	3006.59780940907
0.783233642578125	0.00065765380859375	3007.48281940684
0.78765869140625	0.00066741943359375	3008.3678294046
0.792083740234375	0.00067718505859375	3009.25283940237
0.7965087890625	0.0006878662109375	3010.13784940013
0.800933837890625	0.00069915771484375	3011.0228593979
0.80535888671875	0.00071044921875	3011.90786939566
0.809783935546875	0.00072265625	3012.79287939343
0.814208984375	0.00073577880859375	3013.67788939119
0.818634033203125	0.00074859619140625	3014.56289938896
0.82305908203125	0.000762939453125	3015.44790938673
0.827484130859375	0.0007769775390625	3016.33291938449
0.8319091796875	0.0007916259765625	3017.21792938226
0.836334228515625	0.0008074951171875	3018.10293938002
0.84075927734375	0.00082489013671875	3018.98794937779
0.845184326171875	0.00084228515625	3019.87295937555
0.849609375	0.0008599853515625	3020.75796937332
0.854034423828125	0.0008795166015625	3021.64297937108
0.85845947265625	0.00089996337890625	3022.52798936885
0.862884521484375	0.00092041015625	3023.41299936662
0.8673095703125	0.00094268798828125	3024.29800936438
0.871734619140625	0.00096588134765625	3025.18301936215
0.87615966796875	0.00099090576171875	3026.06802935991
0.880584716796875	0.00101593017578125	3026.95303935768
0.885009765625	0.001043701171875	3027.83804935544
0.889434814453125	0.001070556640625	3028.72305935321
0.89385986328125	0.0011004638671875	3029.60806935097
0.898284912109375	0.00113128662109375	3030.49307934874
0.9027099609375	0.00116424560546875	3031.37808934651
0.907135009765625	0.00119873046875	3032.26309934427
0.91156005859375	0.00123443603515625	3033.14810934204
0.915985107421875	0.00127227783203125	3034.0331193398
0.92041015625	0.0013116455078125	3034.91812933757
0.924835205078125	0.0013531494140625	3035.80313933533
0.92926025390625	0.0013983154296875	3036.6881493331
0.933685302734375	0.00144378662109375	3037.57315933087
0.9381103515625	0.001494140625	3038.45816932863
0.942535400390625	0.0015447998046875	3039.3431793264
0.94696044921875	0.00159698486328125	3040.22818932416
0.951385498046875	0.00165283203125	3041.11319932193
0.955810546875	0.0017120361328125	3041.99820931969
0.960235595703125	0.00177276611328125	3042.88321931746
0.96466064453125	0.0018365478515625	3043.76822931522
0.969085693359375	0.0019024658203125	3044.65323931299
0.9735107421875	0.00197174072265625	3045.53824931075
0.977935791015625	0.00204254150390625	3046.42325930852
0.98236083984375	0.0021173095703125	3047.30826930629
0.986785888671875	0.00219451904296875	3048.19327930405
0.9912109375	0.00227325439453125	3049.07828930182
0.995635986328125	0.00235504150390625	3049.96329929958
1.00006103515625	0.00243927001953125	3050.84830929735
0.995635986328125	0.0021331787109375	3051.73331929511
0.9912109375	0.00189849853515625	3052.61832929288
0.986785888671875	0.00170013427734375	3053.50333929065
0.98236083984375	0.00152557373046875	3054.38834928841
0.977935791015625	0.00136871337890625	3055.27335928618
0.9735107421875	0.00122711181640625	3056.15836928394
0.969085693359375	0.00109649658203125	3057.04337928171
0.96466064453125	0.00097747802734375	3057.92838927947
0.960235595703125	0.000869140625	3058.81339927724
0.955810546875	0.0007696533203125	3059.698409275
0.951385498046875	0.0006781005859375	3060.58341927277
0.94696044921875	0.000594482421875	3061.46842927054
0.942535400390625	0.00051788330078125	3062.3534392683
0.9381103515625	0.000448150634765625	3063.23844926607
0.933685302734375	0.000382598876953125	3064.12345926383
0.92926025390625	0.0003243408203125	3065.0084692616
0.924835205078125	0.000270965576171875	3065.89347925936
0.92041015625	0.000222320556640625	3066.77848925713
0.915985107421875	0.000177520751953125	3067.66349925489
0.91156005859375	0.0001368408203125	3068.54850925266
0.907135009765625	9.99755859375E-05	3069.43351925043
0.9027099609375	6.54296875E-05	3070.31852924819
0.898284912109375	3.42071533203125E-05	3071.20353924596
0.89385986328125	5.5816650390625E-06	3072.08854924372
0.889434814453125	-2.08221435546875E-05	3072.97355924149
0.885009765625	-4.4464111328125E-05	3073.85856923925
0.880584716796875	-6.6436767578125E-05	3074.74357923702
0.87615966796875	-8.69140625E-05	3075.62858923478
0.871734619140625	-0.00010552978515625	3076.51359923255
0.8673095703125	-0.000122802734375	3077.39860923032
0.862884521484375	-0.000138458251953125	3078.28361922808
0.85845947265625	-0.0001529541015625	3079.16862922585
0.854034423828125	-0.00016644287109375	3080.05363922361
0.849609375	-0.00017901611328125	3080.93864922138
0.845184326171875	-0.000190643310546875	3081.82365921914
0.84075927734375	-0.00020172119140625	3082.70866921691
0.836334228515625	-0.00021142578125	3083.59367921467
0.8319091796875	-0.00022137451171875	3084.47868921244
0.827484130859375	-0.000230010986328125	3085.36369921021
0.82305908203125	-0.0002381591796875	3086.24870920797
0.818634033203125	-0.000245819091796875	3087.13371920574
0.814208984375	-0.000253570556640625	3088.0187292035
0.809783935546875	-0.000260467529296875	3088.90373920127
0.80535888671875	-0.000266998291015625	3089.78874919903
0.800933837890625	-0.000273162841796875	3090.6737591968
0.7965087890625	-0.00027911376953125	3091.55876919456
0.792083740234375	-0.000284637451171875	3092.44377919233
0.78765869140625	-0.000290252685546875	3093.3287891901
0.783233642578125	-0.00029547119140625	3094.21379918786
0.77880859375	-0.00030010986328125	3095.09880918563
0.774383544921875	-0.0003050537109375	3095.98381918339
0.76995849609375	-0.00030914306640625	3096.86882918116
0.765533447265625	-0.0003138427734375	3097.75383917892
0.7611083984375	-0.000317718505859375	3098.63884917669
0.756683349609375	-0.0003221435546875	3099.52385917445
0.75225830078125	-0.000326416015625	3100.40886917222
0.747833251953125	-0.00033001708984375	3101.29387916999
0.743408203125	-0.000333892822265625	3102.17888916775
0.738983154296875	-0.0003367919921875	3103.06389916552
0.73455810546875	-0.000341217041015625	3103.94890916328
0.730133056640625	-0.00034442138671875	3104.83391916105
0.7257080078125	-0.000347991943359375	3105.71892915881
0.721282958984375	-0.000351104736328125	3106.60393915658
0.71685791015625	-0.000354034423828125	3107.48894915434
0.712432861328125	-0.000357574462890625	3108.37395915211
0.7080078125	-0.0003607177734375	3109.25896914988
0.703582763671875	-0.00036383056640625	3110.14397914764
0.69915771484375	-0.00036602783203125	3111.02898914541
0.694732666015625	-0.00036944580078125	3111.91399914317
0.6903076171875	-0.0003721923828125	3112.79900914094
0.685882568359375	-0.00037530517578125	3113.6840191387
0.68145751953125	-0.000377685546875	3114.56902913647
0.677032470703125	-0.00038092041015625	3115.45403913423
0.672607421875	-0.000383209228515625	3116.339049132
0.668182373046875	-0.0003858642578125	3117.22405912977
0.66375732421875	-0.00038861083984375	3118.10906912753
0.659332275390625	-0.00039105224609375	3118.9940791253
0.6549072265625	-0.00039288330078125	3119.87908912306
0.650482177734375	-0.000395263671875	3120.76409912083
0.64605712890625	-0.000398101806640625	3121.64910911859
0.641632080078125	-0.000400970458984375	3122.53411911636
0.63720703125	-0.00040313720703125	3123.41912911412
0.632781982421875	-0.000405364990234375	3124.30413911189
0.62835693359375	-0.00040740966796875	3125.18914910966
0.623931884765625	-0.00041168212890625	3126.07415910742
0.6195068359375	-0.00041241455078125	3126.95916910519
0.615081787109375	-0.000413665771484375	3127.84417910295
0.61065673828125	-0.000415924072265625	3128.72918910072
0.606231689453125	-0.00041802978515625	3129.61419909848
0.601806640625	-0.000419708251953125	3130.49920909625
0.597381591796875	-0.000421875	3131.38421909401
0.59295654296875	-0.000423828125	3132.26922909178
0.588531494140625	-0.0004256591796875	3133.15423908955
0.5841064453125	-0.000426727294921875	3134.03924908731
0.579681396484375	-0.000428558349609375	3134.92425908508
0.57525634765625	-0.0004302978515625	3135.80926908284
0.570831298828125	-0.00043231201171875	3136.69427908061
0.56640625	-0.000433837890625	3137.57928907837
0.561981201171875	-0.000435577392578125	3138.46429907614
0.55755615234375	-0.000437255859375	3139.3493090739
0.553131103515625	-0.000438995361328125	3140.23431907167
0.5487060546875	-0.000440277099609375	3141.11932906944
0.544281005859375	-0.00044146728515625	3142.0043390672
0.53985595703125	-0.0004432373046875	3142.88934906497
0.535430908203125	-0.00044488525390625	3143.77435906273
0.531005859375	-0.000446502685546875	3144.6593690605
0.526580810546875	-0.000448028564453125	3145.54437905826
0.52215576171875	-0.0004495849609375	3146.42938905603
0.517730712890625	-0.000450927734375	3147.3143990538
0.5133056640625	-0.000452056884765625	3148.19940905156
0.508880615234375	-0.000453521728515625	3149.08441904933
0.50445556640625	-0.000454620361328125	3149.96942904709
0.500030517578125	-0.000456298828125	3150.85443904486
0.49560546875	-0.000457366943359375	3151.73944904262
0.491180419921875	-0.000458709716796875	3152.62445904039
0.48675537109375	-0.000460418701171875	3153.50946903815
0.482330322265625	-0.00046136474609375	3154.39447903592
0.4779052734375	-0.0004627685546875	3155.27948903368
0.473480224609375	-0.000464111328125	3156.16449903145
0.46905517578125	-0.000465179443359375	3157.04950902922
0.464630126953125	-0.00046575927734375	3157.93451902698
0.460205078125	-0.000467681884765625	3158.81952902475
0.455780029296875	-0.00046875	3159.70453902251
0.45135498046875	-0.00046978759765625	3160.58954902028
0.446929931640625	-0.0004708251953125	3161.47455901804
0.4425048828125	-0.000472259521484375	3162.35956901581
0.438079833984375	-0.0004732666015625	3163.24457901358
0.43365478515625	-0.000474578857421875	3164.12958901134
0.429229736328125	-0.0004752197265625	3165.01459900911
0.4248046875	-0.00047637939453125	3165.89960900687
0.420379638671875	-0.000477294921875	3166.78461900464
0.41595458984375	-0.000478607177734375	3167.6696290024
0.411529541015625	-0.000479339599609375	3168.55463900017
0.4071044921875	-0.00048065185546875	3169.43964899793
0.402679443359375	-0.000481689453125	3170.3246589957
0.39825439453125	-0.0004832763671875	3171.20966899347
0.393829345703125	-0.0004840087890625	3172.09467899123
0.389404296875	-0.00048480224609375	3172.979688989
0.384979248046875	-0.000485931396484375	3173.86469898676
0.38055419921875	-0.000487213134765625	3174.74970898453
0.376129150390625	-0.0004881591796875	3175.63471898229
0.3717041015625	-0.0004893798828125	3176.51972898006
0.367279052734375	-0.00049053955078125	3177.40473897782
0.36285400390625	-0.000491180419921875	3178.28974897559
0.358428955078125	-0.0004923095703125	3179.17475897336
0.35400390625	-0.00049365234375	3180.05976897112
0.349578857421875	-0.000493743896484375	3180.94477896889
0.34515380859375	-0.00049505615234375	3181.82978896665
0.340728759765625	-0.000496368408203125	3182.71479896442
0.3363037109375	-0.000498291015625	3183.59980896218
0.331878662109375	-0.0004993896484375	3184.48481895995
0.32745361328125	-0.000500640869140625	3185.36982895771
0.323028564453125	-0.000501556396484375	3186.25483895548
0.318603515625	-0.0005029296875	3187.13984895325
0.314178466796875	-0.00050433349609375	3188.02485895101
0.30975341796875	-0.000506591796875	3188.90986894878
0.305328369140625	-0.000507354736328125	3189.79487894654
0.3009033203125	-0.00050836181640625	3190.67988894431
0.296478271484375	-0.000509735107421875	3191.56489894207
0.29205322265625	-0.0005107421875	3192.44990893984
0.287628173828125	-0.00051202392578125	3193.3349189376
0.283203125	-0.00051385498046875	3194.21992893537
0.278778076171875	-0.000515167236328125	3195.10493893314
0.27435302734375	-0.000516571044921875	3195.9899489309
0.269927978515625	-0.00051739501953125	3196.87495892867
0.2655029296875	-0.00051959228515625	3197.75996892643
0.261077880859375	-0.000521240234375	3198.6449789242
0.25665283203125	-0.000522796630859375	3199.52998892196
0.252227783203125	-0.000523956298828125	3200.41499891973
0.247802734375	-0.000525543212890625	3201.30000891749
0.243377685546875	-0.00052685546875	3202.18501891526
0.23895263671875	-0.000528900146484375	3203.07002891303
0.234527587890625	-0.0005306396484375	3203.95503891079
0.2301025390625	-0.00053106689453125	3204.84004890856
0.225677490234375	-0.00053350830078125	3205.72505890632
0.22125244140625	-0.000534515380859375	3206.61006890409
0.216827392578125	-0.000537139892578125	3207.49507890185
0.21240234375	-0.0005390625	3208.38008889962
0.207977294921875	-0.000541046142578125	3209.26509889738
0.20355224609375	-0.000543365478515625	3210.15010889515
0.199127197265625	-0.000545196533203125	3211.03511889292
0.1947021484375	-0.000546600341796875	3211.92012889068
0.190277099609375	-0.0005491943359375	3212.80513888845
0.18585205078125	-0.0005516357421875	3213.69014888621
0.181427001953125	-0.000553497314453125	3214.57515888398
0.177001953125	-0.000555938720703125	3215.46016888174
0.172576904296875	-0.00055792236328125	3216.34517887951
0.16815185546875	-0.000560577392578125	3217.23018887727
0.163726806640625	-0.000563079833984375	3218.11519887504
0.1593017578125	-0.00056585693359375	3219.00020887281
0.154876708984375	-0.000567840576171875	3219.88521887057
0.15045166015625	-0.00057073974609375	3220.77022886834
0.146026611328125	-0.0005736083984375	3221.6552388661
0.1416015625	-0.000576263427734375	3222.54024886387
0.137176513671875	-0.000578887939453125	3223.42525886163
0.13275146484375	-0.00058172607421875	3224.3102688594
0.128326416015625	-0.000584686279296875	3225.19527885716
0.1239013671875	-0.000588043212890625	3226.08028885493
0.119476318359375	-0.000590850830078125	3226.9652988527
0.11505126953125	-0.0005931396484375	3227.85030885046
0.110626220703125	-0.000596649169921875	3228.73531884823
0.106201171875	-0.000599639892578125	3229.62032884599
0.101776123046875	-0.000603729248046875	3230.50533884376
0.09735107421875	-0.000606689453125	3231.39034884152
0.092926025390625	-0.0006103515625	3232.27535883929
0.0885009765625	-0.0006134033203125	3233.16036883705
0.084075927734375	-0.00061737060546875	3234.04537883482
0.07965087890625	-0.000621337890625	3234.93038883259
0.075225830078125	-0.0006243896484375	3235.81539883035
0.07080078125	-0.00062835693359375	3236.70040882812
0.066375732421875	-0.00063262939453125	3237.58541882588
0.06195068359375	-0.00063629150390625	3238.47042882365
0.057525634765625	-0.0006402587890625	3239.35543882141
0.0531005859375	-0.0006451416015625	3240.24044881918
0.048675537109375	-0.0006494140625	3241.12545881694
0.04425048828125	-0.00065399169921875	3242.01046881471
0.039825439453125	-0.000657958984375	3242.89547881248
0.035400390625	-0.000662841796875	3243.78048881024
0.030975341796875	-0.000667724609375	3244.66549880801
0.02655029296875	-0.00067291259765625	3245.55050880577
0.022125244140625	-0.00067840576171875	3246.43551880354
0.0177001953125	-0.0006829833984375	3247.3205288013
0.013275146484375	-0.00068878173828125	3248.20553879907
0.00885009765625	-0.0006939697265625	3249.09054879683
0.004425048828125	-0.00069976806640625	3249.9755587946
0	-0.00070526123046875	3250.86056879237
0.004425048828125	-0.000346221923828125	3251.74557879013
0.00885009765625	-0.000113616943359375	3252.6305887879
0.013275146484375	4.16259765625E-05	3253.51559878566
0.0177001953125	0.000148162841796875	3254.40060878343
0.022125244140625	0.000223480224609375	3255.28561878119
0.02655029296875	0.000275299072265625	3256.17062877896
0.030975341796875	0.0003128662109375	3257.05563877673
0.035400390625	0.000340728759765625	3257.94064877449
0.039825439453125	0.00036151123046875	3258.82565877226
0.04425048828125	0.00037725830078125	3259.71066877002
0.048675537109375	0.000389495849609375	3260.59567876779
0.0531005859375	0.00039971923828125	3261.48068876555
0.057525634765625	0.000408294677734375	3262.36569876332
0.06195068359375	0.000414581298828125	3263.25070876108
0.066375732421875	0.000419708251953125	3264.13571875885
0.07080078125	0.00042352294921875	3265.02072875661
0.075225830078125	0.000426513671875	3265.90573875438
0.07965087890625	0.000428314208984375	3266.79074875215
0.084075927734375	0.000430267333984375	3267.67575874991
0.0885009765625	0.000431671142578125	3268.56076874768
0.092926025390625	0.000432373046875	3269.44577874544
0.09735107421875	0.000433197021484375	3270.33078874321
0.101776123046875	0.000433319091796875	3271.21579874097
0.106201171875	0.00043316650390625	3272.10080873874
0.110626220703125	0.000433074951171875	3272.98581873651
0.11505126953125	0.000432952880859375	3273.87082873427
0.119476318359375	0.000431732177734375	3274.75583873204
0.1239013671875	0.000431243896484375	3275.6408487298
0.128326416015625	0.00043060302734375	3276.52585872757
0.13275146484375	0.0004293212890625	3277.41086872533
0.137176513671875	0.000428131103515625	3278.2958787231
0.1416015625	0.00042706298828125	3279.18088872086
0.146026611328125	0.000426055908203125	3280.06589871863
0.15045166015625	0.0004248046875	3280.9509087164
0.154876708984375	0.000423675537109375	3281.83591871416
0.1593017578125	0.000421844482421875	3282.72092871193
0.163726806640625	0.00042071533203125	3283.60593870969
0.16815185546875	0.000419708251953125	3284.49094870746
0.172576904296875	0.00041741943359375	3285.37595870522
0.177001953125	0.0004161376953125	3286.26096870299
0.181427001953125	0.000414642333984375	3287.14597870075
0.18585205078125	0.00041326904296875	3288.03098869852
0.190277099609375	0.00041204833984375	3288.91599869629
0.1947021484375	0.000410888671875	3289.80100869405
0.199127197265625	0.000409271240234375	3290.68601869182
0.20355224609375	0.00040802001953125	3291.57102868958
0.207977294921875	0.000406524658203125	3292.45603868735
0.21240234375	0.000405029296875	3293.34104868511
0.216827392578125	0.00040386962890625	3294.22605868288
0.22125244140625	0.000402313232421875	3295.11106868064
0.225677490234375	0.00040106201171875	3295.99607867841
0.2301025390625	0.000399566650390625	3296.88108867618
0.234527587890625	0.0003974609375	3297.76609867394
0.23895263671875	0.000396453857421875	3298.65110867171
0.243377685546875	0.000395782470703125	3299.53611866947
0.247802734375	0.0003946533203125	3300.42112866724
0.252227783203125	0.00039349365234375	3301.306138665
0.25665283203125	0.000392333984375	3302.19114866277
0.261077880859375	0.00039190673828125	3303.07615866053
0.2655029296875	0.000390655517578125	3303.9611686583
0.269927978515625	0.0003896484375	3304.84617865607
0.27435302734375	0.000388427734375	3305.73118865383
0.278778076171875	0.0003873291015625	3306.6161986516
0.283203125	0.000385955810546875	3307.50120864936
0.287628173828125	0.00038494873046875	3308.38621864713
0.29205322265625	0.000384124755859375	3309.27122864489
0.296478271484375	0.000383148193359375	3310.15623864266
0.3009033203125	0.0003818359375	3311.04124864042
0.305328369140625	0.00038128662109375	3311.92625863819
0.30975341796875	0.000380126953125	3312.81126863596
0.314178466796875	0.000380523681640625	3313.69627863372
0.318603515625	0.00037982177734375	3314.58128863149
0.323028564453125	0.00037860107421875	3315.46629862925
0.32745361328125	0.00037786865234375	3316.35130862702
0.331878662109375	0.000377227783203125	3317.23631862478
0.3363037109375	0.000376861572265625	3318.12132862255
0.340728759765625	0.000376556396484375	3319.00633862031
0.34515380859375	0.00037579345703125	3319.89134861808
0.349578857421875	0.000375396728515625	3320.77635861585
0.35400390625	0.000374420166015625	3321.66136861361
0.358428955078125	0.0003746337890625	3322.54637861138
0.36285400390625	0.00037432861328125	3323.43138860914
0.367279052734375	0.00037408447265625	3324.31639860691
0.3717041015625	0.000374298095703125	3325.20140860467
0.376129150390625	0.000374237060546875	3326.08641860244
0.38055419921875	0.000374603271484375	3326.9714286002
0.384979248046875	0.000374359130859375	3327.85643859797
0.389404296875	0.000374267578125	3328.74144859574
0.393829345703125	0.00037420654296875	3329.6264585935
0.39825439453125	0.000374114990234375	3330.51146859127
0.402679443359375	0.00037457275390625	3331.39647858903
0.4071044921875	0.000374786376953125	3332.2814885868
0.411529541015625	0.00037481689453125	3333.16649858456
0.41595458984375	0.000375213623046875	3334.05150858233
0.420379638671875	0.0003756103515625	3334.93651858009
0.4248046875	0.00037567138671875	3335.82152857786
0.429229736328125	0.0003763427734375	3336.70653857563
0.43365478515625	0.000376708984375	3337.59154857339
0.438079833984375	0.000377105712890625	3338.47655857116
0.4425048828125	0.0003778076171875	3339.36156856892
0.446929931640625	0.000378662109375	3340.24657856669
0.45135498046875	0.000379119873046875	3341.13158856445
0.455780029296875	0.000379791259765625	3342.01659856222
0.460205078125	0.000380828857421875	3342.90160855998
0.464630126953125	0.000381591796875	3343.78661855775
0.46905517578125	0.00038226318359375	3344.67162855552
0.473480224609375	0.00038311767578125	3345.55663855328
0.4779052734375	0.000384246826171875	3346.44164855105
0.482330322265625	0.00038525390625	3347.32665854881
0.48675537109375	0.000385894775390625	3348.21166854658
0.491180419921875	0.00038714599609375	3349.09667854434
0.49560546875	0.000388336181640625	3349.98168854211
0.500030517578125	0.000389434814453125	3350.86669853987
0.50445556640625	0.000390625	3351.75170853764
0.508880615234375	0.00039178466796875	3352.63671853541
0.5133056640625	0.000393218994140625	3353.52172853317
0.517730712890625	0.000394439697265625	3354.40673853094
0.52215576171875	0.000396087646484375	3355.2917485287
0.526580810546875	0.000397491455078125	3356.17675852647
0.531005859375	0.000399078369140625	3357.06176852423
0.535430908203125	0.000400482177734375	3357.946778522
0.53985595703125	0.000401824951171875	3358.83178851976
0.544281005859375	0.000404052734375	3359.71679851753
0.5487060546875	0.00040509033203125	3360.6018085153
0.553131103515625	0.000407073974609375	3361.48681851306
0.55755615234375	0.00040899658203125	3362.37182851083
0.561981201171875	0.000411163330078125	3363.25683850859
0.56640625	0.0004129638671875	3364.14184850636
0.570831298828125	0.000415130615234375	3365.02685850412
0.57525634765625	0.00041693115234375	3365.91186850189
0.579681396484375	0.000419219970703125	3366.79687849966
0.5841064453125	0.000421142578125	3367.68188849742
0.588531494140625	0.00042291259765625	3368.56689849519
0.59295654296875	0.00042578125	3369.45190849295
0.597381591796875	0.000428192138671875	3370.33691849072
0.601806640625	0.0004306640625	3371.22192848848
0.606231689453125	0.000433349609375	3372.10693848625
0.61065673828125	0.00043603515625	3372.99194848401
0.615081787109375	0.000438507080078125	3373.87695848178
0.6195068359375	0.000441162109375	3374.76196847954
0.623931884765625	0.000444427490234375	3375.64697847731
0.62835693359375	0.00044842529296875	3376.53198847508
0.632781982421875	0.00045068359375	3377.41699847284
0.63720703125	0.00045367431640625	3378.30200847061
0.641632080078125	0.00045672607421875	3379.18701846837
0.64605712890625	0.000459808349609375	3380.07202846614
0.650482177734375	0.0004627685546875	3380.9570384639
0.6549072265625	0.000466064453125	3381.84204846167
0.659332275390625	0.000469329833984375	3382.72705845944
0.66375732421875	0.000473175048828125	3383.6120684572
0.668182373046875	0.0004765625	3384.49707845497
0.672607421875	0.000480255126953125	3385.38208845273
0.677032470703125	0.000484100341796875	3386.2670984505
0.68145751953125	0.000488006591796875	3387.15210844826
0.685882568359375	0.000492401123046875	3388.03711844603
0.6903076171875	0.00049652099609375	3388.92212844379
0.694732666015625	0.00050079345703125	3389.80713844156
0.69915771484375	0.000504730224609375	3390.69214843933
0.703582763671875	0.0005087890625	3391.57715843709
0.7080078125	0.000513824462890625	3392.46216843486
0.712432861328125	0.00051898193359375	3393.34717843262
0.71685791015625	0.00052362060546875	3394.23218843039
0.721282958984375	0.0005289306640625	3395.11719842815
0.7257080078125	0.000534027099609375	3396.00220842592
0.730133056640625	0.000539520263671875	3396.88721842368
0.73455810546875	0.000545257568359375	3397.77222842145
0.738983154296875	0.0005511474609375	3398.65723841922
0.743408203125	0.0005562744140625	3399.54224841698
0.747833251953125	0.0005628662109375	3400.42725841475
0.75225830078125	0.00056927490234375	3401.31226841251
0.756683349609375	0.000576202392578125	3402.19727841028
0.7611083984375	0.000583587646484375	3403.08228840804
0.765533447265625	0.000590606689453125	3403.96729840581
0.76995849609375	0.00059796142578125	3404.85230840357
0.774383544921875	0.0006055908203125	3405.73731840134
0.77880859375	0.000614013671875	3406.62232839911
0.783233642578125	0.00062225341796875	3407.50733839687
0.78765869140625	0.00063140869140625	3408.39234839464
0.792083740234375	0.0006402587890625	3409.2773583924
0.7965087890625	0.00064971923828125	3410.16236839017
0.800933837890625	0.0006597900390625	3411.04737838793
0.80535888671875	0.00067047119140625	3411.9323883857
0.809783935546875	0.00068084716796875	3412.81739838346
0.814208984375	0.000692138671875	3413.70240838123
0.818634033203125	0.00070404052734375	3414.587418379
0.82305908203125	0.000716552734375	3415.47242837676
0.827484130859375	0.00072998046875	3416.35743837453
0.8319091796875	0.000743408203125	3417.24244837229
0.836334228515625	0.00075775146484375	3418.12745837006
0.84075927734375	0.00077301025390625	3419.01246836782
0.845184326171875	0.00078826904296875	3419.89747836559
0.849609375	0.00080474853515625	3420.78248836335
0.854034423828125	0.000821533203125	3421.66749836112
0.85845947265625	0.00083953857421875	3422.55250835889
0.862884521484375	0.00085784912109375	3423.43751835665
0.8673095703125	0.000877685546875	3424.32252835442
0.871734619140625	0.00089874267578125	3425.20753835218
0.87615966796875	0.00092041015625	3426.09254834995
0.880584716796875	0.00094268798828125	3426.97755834771
0.885009765625	0.000966796875	3427.86256834548
0.889434814453125	0.00099151611328125	3428.74757834324
0.89385986328125	0.00101806640625	3429.63258834101
0.898284912109375	0.001046142578125	3430.51759833878
0.9027099609375	0.00107513427734375	3431.40260833654
0.907135009765625	0.00110565185546875	3432.28761833431
0.91156005859375	0.00113800048828125	3433.17262833207
0.915985107421875	0.00117156982421875	3434.05763832984
0.92041015625	0.00120819091796875	3434.9426483276
0.924835205078125	0.00124603271484375	3435.82765832537
0.92926025390625	0.00128509521484375	3436.71266832313
0.933685302734375	0.00132720947265625	3437.5976783209
0.9381103515625	0.00137176513671875	3438.48268831867
0.942535400390625	0.00141754150390625	3439.36769831643
0.94696044921875	0.0014666748046875	3440.2527083142
0.951385498046875	0.00151763916015625	3441.13771831196
0.955810546875	0.0015716552734375	3442.02272830973
0.960235595703125	0.00162811279296875	3442.90773830749
0.96466064453125	0.00168701171875	3443.79274830526
0.969085693359375	0.0017486572265625	3444.67775830302
0.9735107421875	0.00181365966796875	3445.56276830079
0.977935791015625	0.0018804931640625	3446.44777829856
0.98236083984375	0.00195037841796875	3447.33278829632
0.986785888671875	0.00202423095703125	3448.21779829409
0.9912109375	0.002099609375	3449.10280829185
