Potential applied (V)	WE(1).Current (A)	Time (s)
0.004425048828125	-0.0605377197265625	4152.25834051656
0.00885009765625	-0.0475189208984375	4152.479592516
0.013275146484375	-0.038507080078125	4152.70084451544
0.0177001953125	-0.0316925048828125	4152.92209651488
0.022125244140625	-0.0263641357421875	4153.14334851432
0.02655029296875	-0.0220947265625	4153.36460051376
0.030975341796875	-0.018621826171875	4153.5858525132
0.035400390625	-0.01575927734375	4153.80710451265
0.039825439453125	-0.0133697509765625	4154.02835651209
0.04425048828125	-0.0113616943359375	4154.24960851153
0.048675537109375	-0.00965576171875	4154.47086051097
0.0531005859375	-0.008197021484375	4154.69211251041
0.057525634765625	-0.006951904296875	4154.91336450985
0.06195068359375	-0.0058685302734375	4155.13461650929
0.066375732421875	-0.0049371337890625	4155.35586850873
0.07080078125	-0.00412353515625	4155.57712050818
0.075225830078125	-0.00341552734375	4155.79837250762
0.07965087890625	-0.00279876708984375	4156.01962450706
0.084075927734375	-0.0022552490234375	4156.2408765065
0.0885009765625	-0.0017877197265625	4156.46212850594
0.092926025390625	-0.0013690185546875	4156.68338050538
0.09735107421875	-0.000999755859375	4156.90463250482
0.101776123046875	-0.00067535400390625	4157.12588450427
0.106201171875	-0.00038800048828125	4157.34713650371
0.110626220703125	-0.000134368896484375	4157.56838850315
0.11505126953125	9.0118408203125E-05	4157.78964050259
0.119476318359375	0.00028692626953125	4158.01089250203
0.1239013671875	0.00046258544921875	4158.23214450147
0.128326416015625	0.00061920166015625	4158.45339650091
0.13275146484375	0.00075958251953125	4158.67464850036
0.137176513671875	0.00087890625	4158.8959004998
0.1416015625	0.0009844970703125	4159.11715249924
0.146026611328125	0.001077880859375	4159.33840449868
0.15045166015625	0.00115997314453125	4159.55965649812
0.154876708984375	0.00123321533203125	4159.78090849756
0.1593017578125	0.00129638671875	4160.002160497
0.163726806640625	0.001353759765625	4160.22341249645
0.16815185546875	0.0014007568359375	4160.44466449589
0.172576904296875	0.00144439697265625	4160.66591649533
0.177001953125	0.001485595703125	4160.88716849477
0.181427001953125	0.00152099609375	4161.10842049421
0.18585205078125	0.00155303955078125	4161.32967249365
0.190277099609375	0.001580810546875	4161.55092449309
0.1947021484375	0.0016070556640625	4161.77217649254
0.199127197265625	0.00162841796875	4161.99342849198
0.20355224609375	0.00164764404296875	4162.21468049142
0.207977294921875	0.001663818359375	4162.43593249086
0.21240234375	0.00167510986328125	4162.6571844903
0.216827392578125	0.00168731689453125	4162.87843648974
0.22125244140625	0.00169647216796875	4163.09968848918
0.225677490234375	0.001705322265625	4163.32094048862
0.2301025390625	0.00171295166015625	4163.54219248807
0.234527587890625	0.0017169189453125	4163.76344448751
0.23895263671875	0.00172149658203125	4163.98469648695
0.243377685546875	0.00172637939453125	4164.20594848639
0.247802734375	0.001728515625	4164.42720048583
0.252227783203125	0.00173248291015625	4164.64845248527
0.25665283203125	0.00173492431640625	4164.86970448471
0.261077880859375	0.00173675537109375	4165.09095648416
0.2655029296875	0.00173583984375	4165.3122084836
0.269927978515625	0.00173614501953125	4165.53346048304
0.27435302734375	0.00173553466796875	4165.75471248248
0.278778076171875	0.00173675537109375	4165.97596448192
0.283203125	0.0017364501953125	4166.19721648136
0.287628173828125	0.0017340087890625	4166.4184684808
0.29205322265625	0.00173187255859375	4166.63972048025
0.296478271484375	0.00173187255859375	4166.86097247969
0.3009033203125	0.00173004150390625	4167.08222447913
0.305328369140625	0.00172943115234375	4167.30347647857
0.30975341796875	0.00172607421875	4167.52472847801
0.314178466796875	0.00172698974609375	4167.74598047745
0.318603515625	0.00172271728515625	4167.96723247689
0.323028564453125	0.00172027587890625	4168.18848447634
0.32745361328125	0.0017181396484375	4168.40973647578
0.331878662109375	0.00171478271484375	4168.63098847522
0.3363037109375	0.00171417236328125	4168.85224047466
0.340728759765625	0.00170745849609375	4169.0734924741
0.34515380859375	0.001705322265625	4169.29474447354
0.349578857421875	0.00170379638671875	4169.51599647298
0.35400390625	0.00169891357421875	4169.73724847243
0.358428955078125	0.00169769287109375	4169.95850047187
0.36285400390625	0.00169464111328125	4170.17975247131
0.367279052734375	0.00169342041015625	4170.40100447075
0.3717041015625	0.00168975830078125	4170.62225647019
0.376129150390625	0.0016888427734375	4170.84350846963
0.38055419921875	0.00168670654296875	4171.06476046907
0.384979248046875	0.0016839599609375	4171.28601246851
0.389404296875	0.00168212890625	4171.50726446796
0.393829345703125	0.00167877197265625	4171.7285164674
0.39825439453125	0.00167724609375	4171.94976846684
0.402679443359375	0.0016754150390625	4172.17102046628
0.4071044921875	0.00167236328125	4172.39227246572
0.411529541015625	0.00167205810546875	4172.61352446516
0.41595458984375	0.00167022705078125	4172.83477646461
0.420379638671875	0.001668701171875	4173.05602846405
0.4248046875	0.0016668701171875	4173.27728046349
0.429229736328125	0.0016650390625	4173.49853246293
0.43365478515625	0.001663818359375	4173.71978446237
0.438079833984375	0.00166229248046875	4173.94103646181
0.4425048828125	0.00166168212890625	4174.16228846125
0.446929931640625	0.0016595458984375	4174.38354046069
0.45135498046875	0.0016595458984375	4174.60479246014
0.455780029296875	0.00166046142578125	4174.82604445958
0.460205078125	0.00165740966796875	4175.04729645902
0.464630126953125	0.00165740966796875	4175.26854845846
0.46905517578125	0.00165618896484375	4175.4898004579
0.473480224609375	0.001656494140625	4175.71105245734
0.4779052734375	0.00165618896484375	4175.93230445678
0.482330322265625	0.0016558837890625	4176.15355645623
0.48675537109375	0.001656494140625	4176.37480845567
0.491180419921875	0.0016552734375	4176.59606045511
0.49560546875	0.00165557861328125	4176.81731245455
0.500030517578125	0.0016558837890625	4177.03856445399
0.50445556640625	0.00165679931640625	4177.25981645343
0.508880615234375	0.00165679931640625	4177.48106845287
0.5133056640625	0.00165679931640625	4177.70232045232
0.517730712890625	0.00165771484375	4177.92357245176
0.52215576171875	0.00165863037109375	4178.1448244512
0.526580810546875	0.00165924072265625	4178.36607645064
0.531005859375	0.0016607666015625	4178.58732845008
0.535430908203125	0.0016607666015625	4178.80858044952
0.53985595703125	0.00166290283203125	4179.02983244896
0.544281005859375	0.00166351318359375	4179.2510844484
0.5487060546875	0.0016644287109375	4179.47233644785
0.553131103515625	0.0016668701171875	4179.69358844729
0.55755615234375	0.00166778564453125	4179.91484044673
0.561981201171875	0.00166961669921875	4180.13609244617
0.56640625	0.0016705322265625	4180.35734444561
0.570831298828125	0.00167388916015625	4180.57859644505
0.57525634765625	0.0016748046875	4180.7998484445
0.579681396484375	0.00167633056640625	4181.02110044394
0.5841064453125	0.0016790771484375	4181.24235244338
0.588531494140625	0.00167999267578125	4181.46360444282
0.59295654296875	0.0016827392578125	4181.68485644226
0.597381591796875	0.00168548583984375	4181.9061084417
0.601806640625	0.0016876220703125	4182.12736044114
0.606231689453125	0.00168975830078125	4182.34861244058
0.61065673828125	0.001693115234375	4182.56986444003
0.615081787109375	0.00169677734375	4182.79111643947
0.6195068359375	0.00169891357421875	4183.01236843891
0.623931884765625	0.00170166015625	4183.23362043835
0.62835693359375	0.001707763671875	4183.45487243779
0.632781982421875	0.0017095947265625	4183.67612443723
0.63720703125	0.00171295166015625	4183.89737643667
0.641632080078125	0.00171600341796875	4184.11862843612
0.64605712890625	0.00171875	4184.33988043556
0.650482177734375	0.00172210693359375	4184.561132435
0.6549072265625	0.00172576904296875	4184.78238443444
0.659332275390625	0.001729736328125	4185.00363643388
0.66375732421875	0.00173309326171875	4185.22488843332
0.668182373046875	0.0017364501953125	4185.44614043276
0.672607421875	0.00174041748046875	4185.66739243221
0.677032470703125	0.00174468994140625	4185.88864443165
0.68145751953125	0.0017486572265625	4186.10989643109
0.685882568359375	0.0017523193359375	4186.33114843053
0.6903076171875	0.00175811767578125	4186.55240042997
0.694732666015625	0.00176300048828125	4186.77365242941
0.69915771484375	0.001767578125	4186.99490442885
0.703582763671875	0.00177154541015625	4187.2161564283
0.7080078125	0.00177764892578125	4187.43740842774
0.712432861328125	0.00178253173828125	4187.65866042718
0.71685791015625	0.00178802490234375	4187.87991242662
0.721282958984375	0.00179412841796875	4188.10116442606
0.7257080078125	0.00179931640625	4188.3224164255
0.730133056640625	0.00180572509765625	4188.54366842494
0.73455810546875	0.0018121337890625	4188.76492042439
0.738983154296875	0.00181884765625	4188.98617242383
0.743408203125	0.0018243408203125	4189.20742442327
0.747833251953125	0.0018310546875	4189.42867642271
0.75225830078125	0.00183807373046875	4189.64992842215
0.756683349609375	0.00184539794921875	4189.87118042159
0.7611083984375	0.0018524169921875	4190.09243242103
0.765533447265625	0.00186126708984375	4190.31368442047
0.76995849609375	0.00186920166015625	4190.53493641992
0.774383544921875	0.00187774658203125	4190.75618841936
0.77880859375	0.001885986328125	4190.9774404188
0.783233642578125	0.00189453125	4191.19869241824
0.78765869140625	0.0019049072265625	4191.41994441768
0.792083740234375	0.0019140625	4191.64119641712
0.7965087890625	0.00192474365234375	4191.86244841656
0.800933837890625	0.00193450927734375	4192.08370041601
0.80535888671875	0.00194549560546875	4192.30495241545
0.809783935546875	0.001956787109375	4192.52620441489
0.814208984375	0.00196807861328125	4192.74745641433
0.818634033203125	0.0019805908203125	4192.96870841377
0.82305908203125	0.0019927978515625	4193.18996041321
0.827484130859375	0.00200592041015625	4193.41121241265
0.8319091796875	0.00201995849609375	4193.6324644121
0.836334228515625	0.00203460693359375	4193.85371641154
0.84075927734375	0.002049560546875	4194.07496841098
0.845184326171875	0.00206451416015625	4194.29622041042
0.849609375	0.00208099365234375	4194.51747240986
0.854034423828125	0.00209808349609375	4194.7387244093
0.85845947265625	0.00211639404296875	4194.95997640874
0.862884521484375	0.002135009765625	4195.18122840819
0.8673095703125	0.0021533203125	4195.40248040763
0.871734619140625	0.0021746826171875	4195.62373240707
0.87615966796875	0.002196044921875	4195.84498440651
0.880584716796875	0.002218017578125	4196.06623640595
0.885009765625	0.0022412109375	4196.28748840539
0.889434814453125	0.0022650146484375	4196.50874040483
0.89385986328125	0.0022906494140625	4196.72999240428
0.898284912109375	0.0023175048828125	4196.95124440372
0.9027099609375	0.00234527587890625	4197.17249640316
0.907135009765625	0.0023748779296875	4197.3937484026
0.91156005859375	0.0024053955078125	4197.61500040204
0.915985107421875	0.00243804931640625	4197.83625240148
0.92041015625	0.0024713134765625	4198.05750440092
0.924835205078125	0.00250732421875	4198.27875640036
0.92926025390625	0.0025445556640625	4198.50000839981
0.933685302734375	0.00258514404296875	4198.72126039925
0.9381103515625	0.0026275634765625	4198.94251239869
0.942535400390625	0.00266937255859375	4199.16376439813
0.94696044921875	0.00271575927734375	4199.38501639757
0.951385498046875	0.002763671875	4199.60626839701
0.955810546875	0.00281494140625	4199.82752039645
0.960235595703125	0.00286865234375	4200.0487723959
0.96466064453125	0.00292633056640625	4200.27002439534
0.969085693359375	0.0029864501953125	4200.49127639478
0.9735107421875	0.00305023193359375	4200.71252839422
0.977935791015625	0.0031158447265625	4200.93378039366
0.98236083984375	0.0031866455078125	4201.1550323931
0.986785888671875	0.00326202392578125	4201.37628439254
0.9912109375	0.00334075927734375	4201.59753639199
0.995635986328125	0.00342376708984375	4201.81878839143
1.00006103515625	0.00351409912109375	4202.04004039087
0.995635986328125	0.00299346923828125	4202.26129239031
0.9912109375	0.0025634765625	4202.48254438975
0.986785888671875	0.002193603515625	4202.70379638919
0.98236083984375	0.00186981201171875	4202.92504838863
0.977935791015625	0.00157989501953125	4203.14630038808
0.9735107421875	0.00131927490234375	4203.36755238752
0.969085693359375	0.001082763671875	4203.58880438696
0.96466064453125	0.000865478515625	4203.8100563864
0.960235595703125	0.00066741943359375	4204.03130838584
0.955810546875	0.000484375	4204.25256038528
0.951385498046875	0.000317108154296875	4204.47381238472
0.94696044921875	0.000162628173828125	4204.69506438417
0.942535400390625	2.0489501953125E-05	4204.91631638361
0.9381103515625	-0.000110137939453125	4205.13756838305
0.933685302734375	-0.000232757568359375	4205.35882038249
0.92926025390625	-0.000342926025390625	4205.58007238193
0.924835205078125	-0.0004443359375	4205.80132438137
0.92041015625	-0.0005372314453125	4206.02257638081
0.915985107421875	-0.000622100830078125	4206.24382838025
0.91156005859375	-0.00069915771484375	4206.4650803797
0.907135009765625	-0.0007708740234375	4206.68633237914
0.9027099609375	-0.00083526611328125	4206.90758437858
0.898284912109375	-0.00089447021484375	4207.12883637802
0.89385986328125	-0.00094818115234375	4207.35008837746
0.889434814453125	-0.00099761962890625	4207.5713403769
0.885009765625	-0.0010418701171875	4207.79259237635
0.880584716796875	-0.00108245849609375	4208.01384437579
0.87615966796875	-0.00111907958984375	4208.23509637523
0.871734619140625	-0.00115264892578125	4208.45634837467
0.8673095703125	-0.001182861328125	4208.67760037411
0.862884521484375	-0.00121063232421875	4208.89885237355
0.85845947265625	-0.0012353515625	4209.12010437299
0.854034423828125	-0.0012579345703125	4209.34135637243
0.849609375	-0.0012799072265625	4209.56260837188
0.845184326171875	-0.0012994384765625	4209.78386037132
0.84075927734375	-0.00131683349609375	4210.00511237076
0.836334228515625	-0.00133331298828125	4210.2263643702
0.8319091796875	-0.00134796142578125	4210.44761636964
0.827484130859375	-0.00136199951171875	4210.66886836908
0.82305908203125	-0.0013751220703125	4210.89012036852
0.818634033203125	-0.00138763427734375	4211.11137236797
0.814208984375	-0.00139892578125	4211.33262436741
0.809783935546875	-0.00140899658203125	4211.55387636685
0.80535888671875	-0.0014190673828125	4211.77512836629
0.800933837890625	-0.0014288330078125	4211.99638036573
0.7965087890625	-0.00143829345703125	4212.21763236517
0.792083740234375	-0.00144622802734375	4212.43888436461
0.78765869140625	-0.0014544677734375	4212.66013636406
0.783233642578125	-0.0014630126953125	4212.8813883635
0.77880859375	-0.00147003173828125	4213.10264036294
0.774383544921875	-0.00147705078125	4213.32389236238
0.76995849609375	-0.00148529052734375	4213.54514436182
0.765533447265625	-0.00149200439453125	4213.76639636126
0.7611083984375	-0.0014990234375	4213.9876483607
0.756683349609375	-0.0015057373046875	4214.20890036014
0.75225830078125	-0.00151275634765625	4214.43015235959
0.747833251953125	-0.00151885986328125	4214.65140435903
0.743408203125	-0.00152587890625	4214.87265635847
0.738983154296875	-0.00153045654296875	4215.09390835791
0.73455810546875	-0.00153778076171875	4215.31516035735
0.730133056640625	-0.00154541015625	4215.53641235679
0.7257080078125	-0.00155120849609375	4215.75766435624
0.721282958984375	-0.00155731201171875	4215.97891635568
0.71685791015625	-0.00156341552734375	4216.20016835512
0.712432861328125	-0.0015704345703125	4216.42142035456
0.7080078125	-0.0015765380859375	4216.642672354
0.703582763671875	-0.00158203125	4216.86392435344
0.69915771484375	-0.00158782958984375	4217.08517635288
0.694732666015625	-0.00159393310546875	4217.30642835232
0.6903076171875	-0.001600341796875	4217.52768035177
0.685882568359375	-0.00160675048828125	4217.74893235121
0.68145751953125	-0.00161224365234375	4217.97018435065
0.677032470703125	-0.00161865234375	4218.19143635009
0.672607421875	-0.00162445068359375	4218.41268834953
0.668182373046875	-0.00163055419921875	4218.63394034897
0.66375732421875	-0.0016363525390625	4218.85519234841
0.659332275390625	-0.0016424560546875	4219.07644434786
0.6549072265625	-0.0016485595703125	4219.2976963473
0.650482177734375	-0.00165435791015625	4219.51894834674
0.64605712890625	-0.0016607666015625	4219.74020034618
0.641632080078125	-0.00166534423828125	4219.96145234562
0.63720703125	-0.00167144775390625	4220.18270434506
0.632781982421875	-0.00167694091796875	4220.4039563445
0.62835693359375	-0.00168212890625	4220.62520834395
0.623931884765625	-0.00169189453125	4220.84646034339
0.6195068359375	-0.00169677734375	4221.06771234283
0.615081787109375	-0.0017022705078125	4221.28896434227
0.61065673828125	-0.00170684814453125	4221.51021634171
0.606231689453125	-0.00171234130859375	4221.73146834115
0.601806640625	-0.0017181396484375	4221.95272034059
0.597381591796875	-0.0017230224609375	4222.17397234004
0.59295654296875	-0.00172821044921875	4222.39522433948
0.588531494140625	-0.0017327880859375	4222.61647633892
0.5841064453125	-0.001737060546875	4222.83772833836
0.579681396484375	-0.0017431640625	4223.0589803378
0.57525634765625	-0.001748046875	4223.28023233724
0.570831298828125	-0.00175445556640625	4223.50148433668
0.56640625	-0.00175933837890625	4223.72273633613
0.561981201171875	-0.00176422119140625	4223.94398833557
0.55755615234375	-0.00176971435546875	4224.16524033501
0.553131103515625	-0.00177490234375	4224.38649233445
0.5487060546875	-0.00178009033203125	4224.60774433389
0.544281005859375	-0.00178375244140625	4224.82899633333
0.53985595703125	-0.00178924560546875	4225.05024833277
0.535430908203125	-0.0017938232421875	4225.27150033221
0.531005859375	-0.00179931640625	4225.49275233166
0.526580810546875	-0.00180419921875	4225.7140043311
0.52215576171875	-0.00180816650390625	4225.93525633054
0.517730712890625	-0.00181365966796875	4226.15650832998
0.5133056640625	-0.0018182373046875	4226.37776032942
0.508880615234375	-0.00182403564453125	4226.59901232886
0.50445556640625	-0.00182861328125	4226.8202643283
0.500030517578125	-0.0018328857421875	4227.04151632775
0.49560546875	-0.00183837890625	4227.26276832719
0.491180419921875	-0.0018426513671875	4227.48402032663
0.48675537109375	-0.0018475341796875	4227.70527232607
0.482330322265625	-0.001851806640625	4227.92652432551
0.4779052734375	-0.00185577392578125	4228.14777632495
0.473480224609375	-0.001861572265625	4228.36902832439
0.46905517578125	-0.00186492919921875	4228.59028032384
0.464630126953125	-0.00186981201171875	4228.81153232328
0.460205078125	-0.0018743896484375	4229.03278432272
0.455780029296875	-0.001878662109375	4229.25403632216
0.45135498046875	-0.0018841552734375	4229.4752883216
0.446929931640625	-0.00188751220703125	4229.69654032104
0.4425048828125	-0.001893310546875	4229.91779232048
0.438079833984375	-0.00189788818359375	4230.13904431993
0.43365478515625	-0.00190185546875	4230.36029631937
0.429229736328125	-0.00190643310546875	4230.58154831881
0.4248046875	-0.00190887451171875	4230.80280031825
0.420379638671875	-0.0019140625	4231.02405231769
0.41595458984375	-0.00191741943359375	4231.24530431713
0.411529541015625	-0.0019219970703125	4231.46655631657
0.4071044921875	-0.00192657470703125	4231.68780831602
0.402679443359375	-0.0019305419921875	4231.90906031546
0.39825439453125	-0.00193603515625	4232.1303123149
0.393829345703125	-0.001939697265625	4232.35156431434
0.389404296875	-0.001944580078125	4232.57281631378
0.384979248046875	-0.0019488525390625	4232.79406831322
0.38055419921875	-0.0019537353515625	4233.01532031266
0.376129150390625	-0.001959228515625	4233.2365723121
0.3717041015625	-0.001962890625	4233.45782431155
0.367279052734375	-0.001968994140625	4233.67907631099
0.36285400390625	-0.00197296142578125	4233.90032831043
0.358428955078125	-0.00197784423828125	4234.12158030987
0.35400390625	-0.00198394775390625	4234.34283230931
0.349578857421875	-0.00198699951171875	4234.56408430875
0.34515380859375	-0.00199371337890625	4234.78533630819
0.340728759765625	-0.00199737548828125	4235.00658830764
0.3363037109375	-0.00200347900390625	4235.22784030708
0.331878662109375	-0.00200927734375	4235.44909230652
0.32745361328125	-0.0020135498046875	4235.67034430596
0.323028564453125	-0.00202117919921875	4235.8915963054
0.318603515625	-0.00202484130859375	4236.11284830484
0.314178466796875	-0.00203125	4236.33410030428
0.30975341796875	-0.00203887939453125	4236.55535230373
0.305328369140625	-0.00204437255859375	4236.77660430317
0.3009033203125	-0.00204986572265625	4236.99785630261
0.296478271484375	-0.00205535888671875	4237.21910830205
0.29205322265625	-0.00206207275390625	4237.44036030149
0.287628173828125	-0.002066650390625	4237.66161230093
0.283203125	-0.0020733642578125	4237.88286430037
0.278778076171875	-0.002078857421875	4238.10411629982
0.27435302734375	-0.0020849609375	4238.32536829926
0.269927978515625	-0.00209197998046875	4238.5466202987
0.2655029296875	-0.00209747314453125	4238.76787229814
0.261077880859375	-0.002103271484375	4238.98912429758
0.25665283203125	-0.00211090087890625	4239.21037629702
0.252227783203125	-0.00211669921875	4239.43162829646
0.247802734375	-0.00212493896484375	4239.65288029591
0.243377685546875	-0.00213043212890625	4239.87413229535
0.23895263671875	-0.00213836669921875	4240.09538429479
0.234527587890625	-0.00214447021484375	4240.31663629423
0.2301025390625	-0.0021514892578125	4240.53788829367
0.225677490234375	-0.0021588134765625	4240.75914029311
0.22125244140625	-0.002166748046875	4240.98039229255
0.216827392578125	-0.00217529296875	4241.20164429199
0.21240234375	-0.0021826171875	4241.42289629144
0.207977294921875	-0.0021905517578125	4241.64414829088
0.20355224609375	-0.00219757080078125	4241.86540029032
0.199127197265625	-0.00220458984375	4242.08665228976
0.1947021484375	-0.00221435546875	4242.3079042892
0.190277099609375	-0.00222259521484375	4242.52915628864
0.18585205078125	-0.00223175048828125	4242.75040828809
0.181427001953125	-0.00224029541015625	4242.97166028753
0.177001953125	-0.00225006103515625	4243.19291228697
0.172576904296875	-0.0022589111328125	4243.41416428641
0.16815185546875	-0.00226806640625	4243.63541628585
0.163726806640625	-0.002279052734375	4243.85666828529
0.1593017578125	-0.00228759765625	4244.07792028473
0.154876708984375	-0.00229736328125	4244.29917228417
0.15045166015625	-0.00230712890625	4244.52042428362
0.146026611328125	-0.0023162841796875	4244.74167628306
0.1416015625	-0.00232666015625	4244.9629282825
0.137176513671875	-0.00233734130859375	4245.18418028194
0.13275146484375	-0.00234832763671875	4245.40543228138
0.128326416015625	-0.0023602294921875	4245.62668428082
0.1239013671875	-0.00237030029296875	4245.84793628026
0.119476318359375	-0.00238250732421875	4246.06918827971
0.11505126953125	-0.0023907470703125	4246.29044027915
0.110626220703125	-0.00240325927734375	4246.51169227859
0.106201171875	-0.00241455078125	4246.73294427803
0.101776123046875	-0.00242584228515625	4246.95419627747
0.09735107421875	-0.00243927001953125	4247.17544827691
0.092926025390625	-0.0024505615234375	4247.39670027635
0.0885009765625	-0.002464599609375	4247.6179522758
0.084075927734375	-0.00247650146484375	4247.83920427524
0.07965087890625	-0.00248992919921875	4248.06045627468
0.075225830078125	-0.0025030517578125	4248.28170827412
0.07080078125	-0.00251617431640625	4248.50296027356
0.066375732421875	-0.00253082275390625	4248.724212273
0.06195068359375	-0.00254425048828125	4248.94546427244
0.057525634765625	-0.00255950927734375	4249.16671627188
0.0531005859375	-0.00257293701171875	4249.38796827133
0.048675537109375	-0.0025872802734375	4249.60922027077
0.04425048828125	-0.0026031494140625	4249.83047227021
0.039825439453125	-0.00261810302734375	4250.05172426965
0.035400390625	-0.0026336669921875	4250.27297626909
0.030975341796875	-0.00264801025390625	4250.49422826853
0.02655029296875	-0.00266387939453125	4250.71548026798
0.022125244140625	-0.00268035888671875	4250.93673226742
0.0177001953125	-0.00269622802734375	4251.15798426686
0.013275146484375	-0.00271453857421875	4251.3792362663
0.00885009765625	-0.00273040771484375	4251.60048826574
0.004425048828125	-0.00274627685546875	4251.82174026518
0	-0.00276458740234375	4252.04299226462
0.004425048828125	-0.00215667724609375	4252.26424426406
0.00885009765625	-0.00164154052734375	4252.48549626351
0.013275146484375	-0.00119476318359375	4252.70674826295
0.0177001953125	-0.00080718994140625	4252.92800026239
0.022125244140625	-0.0004674072265625	4253.14925226183
0.02655029296875	-0.000168792724609375	4253.37050426127
0.030975341796875	9.478759765625E-05	4253.59175626071
0.035400390625	0.00032745361328125	4253.81300826015
0.039825439453125	0.00053375244140625	4254.0342602596
0.04425048828125	0.00071868896484375	4254.25551225904
0.048675537109375	0.00088409423828125	4254.47676425848
0.0531005859375	0.00102752685546875	4254.69801625792
0.057525634765625	0.001151123046875	4254.91926825736
0.06195068359375	0.001260986328125	4255.1405202568
0.066375732421875	0.001358642578125	4255.36177225624
0.07080078125	0.00144500732421875	4255.58302425569
0.075225830078125	0.00152252197265625	4255.80427625513
0.07965087890625	0.0015887451171875	4256.02552825457
0.084075927734375	0.00164794921875	4256.24678025401
0.0885009765625	0.0017010498046875	4256.46803225345
0.092926025390625	0.0017486572265625	4256.68928425289
0.09735107421875	0.0017901611328125	4256.91053625233
0.101776123046875	0.00182708740234375	4257.13178825178
0.106201171875	0.0018585205078125	4257.35304025122
0.110626220703125	0.00188507080078125	4257.57429225066
0.11505126953125	0.0019097900390625	4257.7955442501
0.119476318359375	0.00192779541015625	4258.01679624954
0.1239013671875	0.00194549560546875	4258.23804824898
0.128326416015625	0.00195953369140625	4258.45930024842
0.13275146484375	0.0019708251953125	4258.68055224787
0.137176513671875	0.00198150634765625	4258.90180424731
0.1416015625	0.001988525390625	4259.12305624675
0.146026611328125	0.00199615478515625	4259.34430824619
0.15045166015625	0.002000732421875	4259.56556024563
0.154876708984375	0.00200439453125	4259.78681224507
0.1593017578125	0.00200836181640625	4260.00806424451
0.163726806640625	0.0020086669921875	4260.22931624395
0.16815185546875	0.00200897216796875	4260.4505682434
0.172576904296875	0.00200653076171875	4260.67182024284
0.177001953125	0.00200439453125	4260.89307224228
0.181427001953125	0.00200164794921875	4261.11432424172
0.18585205078125	0.0019970703125	4261.33557624116
0.190277099609375	0.001993408203125	4261.5568282406
0.1947021484375	0.0019891357421875	4261.77808024004
0.199127197265625	0.00198455810546875	4261.99933223949
0.20355224609375	0.001978759765625	4262.22058423893
0.207977294921875	0.00197296142578125	4262.44183623837
0.21240234375	0.0019696044921875	4262.66308823781
0.216827392578125	0.00196441650390625	4262.88434023725
0.22125244140625	0.0019580078125	4263.10559223669
0.225677490234375	0.00195098876953125	4263.32684423613
0.2301025390625	0.001944580078125	4263.54809623558
0.234527587890625	0.0019378662109375	4263.76934823502
0.23895263671875	0.00193115234375	4263.99060023446
0.243377685546875	0.00192474365234375	4264.2118522339
0.247802734375	0.00191741943359375	4264.43310423334
0.252227783203125	0.0019110107421875	4264.65435623278
0.25665283203125	0.001904296875	4264.87560823222
0.261077880859375	0.0018988037109375	4265.09686023167
0.2655029296875	0.0018927001953125	4265.31811223111
0.269927978515625	0.00188568115234375	4265.53936423055
0.27435302734375	0.0018804931640625	4265.76061622999
0.278778076171875	0.0018743896484375	4265.98186822943
0.283203125	0.0018682861328125	4266.20312022887
0.287628173828125	0.00186248779296875	4266.42437222831
0.29205322265625	0.00185638427734375	4266.64562422776
0.296478271484375	0.0018505859375	4266.8668762272
0.3009033203125	0.0018450927734375	4267.08812822664
0.305328369140625	0.001839599609375	4267.30938022608
0.30975341796875	0.00183441162109375	4267.53063222552
0.314178466796875	0.00183013916015625	4267.75188422496
0.318603515625	0.00182464599609375	4267.9731362244
0.323028564453125	0.0018182373046875	4268.19438822384
0.32745361328125	0.0018133544921875	4268.41564022329
0.331878662109375	0.00180755615234375	4268.63689222273
0.3363037109375	0.0018023681640625	4268.85814422217
0.340728759765625	0.001798095703125	4269.07939622161
0.34515380859375	0.00179229736328125	4269.30064822105
0.349578857421875	0.001788330078125	4269.52190022049
0.35400390625	0.0017816162109375	4269.74315221993
0.358428955078125	0.00177703857421875	4269.96440421938
0.36285400390625	0.00177337646484375	4270.18565621882
0.367279052734375	0.00176910400390625	4270.40690821826
0.3717041015625	0.00176544189453125	4270.6281602177
0.376129150390625	0.00176116943359375	4270.84941221714
0.38055419921875	0.0017572021484375	4271.07066421658
0.384979248046875	0.0017535400390625	4271.29191621602
0.389404296875	0.00174957275390625	4271.51316821547
0.393829345703125	0.00174591064453125	4271.73442021491
0.39825439453125	0.00174285888671875	4271.95567221435
0.402679443359375	0.0017401123046875	4272.17692421379
0.4071044921875	0.0017376708984375	4272.39817621323
0.411529541015625	0.0017340087890625	4272.61942821267
0.41595458984375	0.00173248291015625	4272.84068021211
0.420379638671875	0.0017291259765625	4273.06193221156
0.4248046875	0.00172760009765625	4273.283184211
0.429229736328125	0.00172454833984375	4273.50443621044
0.43365478515625	0.001722412109375	4273.72568820988
0.438079833984375	0.00172027587890625	4273.94694020932
0.4425048828125	0.0017181396484375	4274.16819220876
0.446929931640625	0.0017169189453125	4274.3894442082
0.45135498046875	0.0017144775390625	4274.61069620765
0.455780029296875	0.00171356201171875	4274.83194820709
0.460205078125	0.0017120361328125	4275.05320020653
0.464630126953125	0.00171112060546875	4275.27445220597
0.46905517578125	0.00170989990234375	4275.49570420541
0.473480224609375	0.00170806884765625	4275.71695620485
0.4779052734375	0.00170745849609375	4275.93820820429
0.482330322265625	0.0017059326171875	4276.15946020373
0.48675537109375	0.00170562744140625	4276.38071220318
0.491180419921875	0.0017047119140625	4276.60196420262
0.49560546875	0.0017041015625	4276.82321620206
0.500030517578125	0.0017047119140625	4277.0444682015
0.50445556640625	0.0017041015625	4277.26572020094
0.508880615234375	0.0017041015625	4277.48697220038
0.5133056640625	0.00170440673828125	4277.70822419983
0.517730712890625	0.0017041015625	4277.92947619927
0.52215576171875	0.0017047119140625	4278.15072819871
0.526580810546875	0.00170501708984375	4278.37198019815
0.531005859375	0.0017059326171875	4278.59323219759
0.535430908203125	0.00170654296875	4278.81448419703
0.53985595703125	0.00170654296875	4279.03573619647
0.544281005859375	0.0017083740234375	4279.25698819591
0.5487060546875	0.00170745849609375	4279.47824019536
0.553131103515625	0.0017095947265625	4279.6994921948
0.55755615234375	0.0017108154296875	4279.92074419424
0.561981201171875	0.00171234130859375	4280.14199619368
0.56640625	0.0017138671875	4280.36324819312
0.570831298828125	0.00171539306640625	4280.58450019256
0.57525634765625	0.00171783447265625	4280.805752192
0.579681396484375	0.00171875	4281.02700419145
0.5841064453125	0.00172119140625	4281.24825619089
0.588531494140625	0.0017218017578125	4281.46950819033
0.59295654296875	0.001724853515625	4281.69076018977
0.597381591796875	0.00172760009765625	4281.91201218921
0.601806640625	0.001729736328125	4282.13326418865
0.606231689453125	0.0017333984375	4282.35451618809
0.61065673828125	0.00173583984375	4282.57576818754
0.615081787109375	0.0017388916015625	4282.79702018698
0.6195068359375	0.001741943359375	4283.01827218642
0.623931884765625	0.0017449951171875	4283.23952418586
0.62835693359375	0.001751708984375	4283.4607761853
0.632781982421875	0.001754150390625	4283.68202818474
0.63720703125	0.001756591796875	4283.90328018418
0.641632080078125	0.00176025390625	4284.12453218362
0.64605712890625	0.0017633056640625	4284.34578418307
0.650482177734375	0.001767578125	4284.56703618251
0.6549072265625	0.00177093505859375	4284.78828818195
0.659332275390625	0.0017755126953125	4285.00954018139
0.66375732421875	0.0017791748046875	4285.23079218083
0.668182373046875	0.00178314208984375	4285.45204418027
0.672607421875	0.00178802490234375	4285.67329617972
0.677032470703125	0.00179168701171875	4285.89454817916
0.68145751953125	0.00179718017578125	4286.1158001786
0.685882568359375	0.00180145263671875	4286.33705217804
0.6903076171875	0.00180694580078125	4286.55830417748
0.694732666015625	0.0018121337890625	4286.77955617692
0.69915771484375	0.00181793212890625	4287.00080817636
0.703582763671875	0.00182281494140625	4287.2220601758
0.7080078125	0.0018280029296875	4287.44331217525
0.712432861328125	0.00183441162109375	4287.66456417469
0.71685791015625	0.00183990478515625	4287.88581617413
0.721282958984375	0.00184661865234375	4288.10706817357
0.7257080078125	0.0018536376953125	4288.32832017301
0.730133056640625	0.00185943603515625	4288.54957217245
0.73455810546875	0.001866455078125	4288.77082417189
0.738983154296875	0.00187347412109375	4288.99207617134
0.743408203125	0.0018792724609375	4289.21332817078
0.747833251953125	0.00188690185546875	4289.43458017022
0.75225830078125	0.00189422607421875	4289.65583216966
0.756683349609375	0.00190216064453125	4289.8770841691
0.7611083984375	0.0019097900390625	4290.09833616854
0.765533447265625	0.00191864013671875	4290.31958816798
0.76995849609375	0.00192779541015625	4290.54084016743
0.774383544921875	0.00193572998046875	4290.76209216687
0.77880859375	0.00194580078125	4290.98334416631
0.783233642578125	0.00195404052734375	4291.20459616575
0.78765869140625	0.00196441650390625	4291.42584816519
0.792083740234375	0.001973876953125	4291.64710016463
0.7965087890625	0.00198455810546875	4291.86835216407
0.800933837890625	0.00199615478515625	4292.08960416352
0.80535888671875	0.0020068359375	4292.31085616296
0.809783935546875	0.00201904296875	4292.5321081624
0.814208984375	0.002030029296875	4292.75336016184
0.818634033203125	0.00204345703125	4292.97461216128
0.82305908203125	0.0020556640625	4293.19586416072
0.827484130859375	0.002069091796875	4293.41711616016
0.8319091796875	0.002083740234375	4293.63836815961
0.836334228515625	0.00209808349609375	4293.85962015905
0.84075927734375	0.0021142578125	4294.08087215849
0.845184326171875	0.0021295166015625	4294.30212415793
0.849609375	0.00214599609375	4294.52337615737
0.854034423828125	0.002164306640625	4294.74462815681
0.85845947265625	0.002181396484375	4294.96588015625
0.862884521484375	0.00220062255859375	4295.18713215569
0.8673095703125	0.0022198486328125	4295.40838415514
0.871734619140625	0.00223968505859375	4295.62963615458
0.87615966796875	0.00226226806640625	4295.85088815402
0.880584716796875	0.0022833251953125	4296.07214015346
0.885009765625	0.0023077392578125	4296.2933921529
0.889434814453125	0.00233062744140625	4296.51464415234
0.89385986328125	0.00235626220703125	4296.73589615178
0.898284912109375	0.0023828125	4296.95714815123
0.9027099609375	0.0024090576171875	4297.17840015067
0.907135009765625	0.0024395751953125	4297.39965215011
0.91156005859375	0.00246917724609375	4297.62090414955
0.915985107421875	0.00250244140625	4297.84215614899
0.92041015625	0.00253509521484375	4298.06340814843
0.924835205078125	0.00257049560546875	4298.28466014787
0.92926025390625	0.00260711669921875	4298.50591214732
0.933685302734375	0.002637939453125	4298.72716414676
0.9381103515625	0.00268402099609375	4298.9484161462
0.942535400390625	0.00272613525390625	4299.16966814564
0.94696044921875	0.0027716064453125	4299.39092014508
0.951385498046875	0.00281951904296875	4299.61217214452
0.955810546875	0.0028680419921875	4299.83342414396
0.960235595703125	0.0029217529296875	4300.05467614341
0.96466064453125	0.00297637939453125	4300.27592814285
0.969085693359375	0.00303436279296875	4300.49718014229
0.9735107421875	0.003095703125	4300.71843214173
0.977935791015625	0.00315887451171875	4300.93968414117
0.98236083984375	0.00322784423828125	4301.16093614061
0.986785888671875	0.003299560546875	4301.38218814005
0.9912109375	0.00337646484375	4301.6034401395
0.995635986328125	0.00345611572265625	4301.82469213894
1.00006103515625	0.0035400390625	4302.04594413838
0.995635986328125	0.00302398681640625	4302.26719613782
0.9912109375	0.002593994140625	4302.48844813726
0.986785888671875	0.0022247314453125	4302.7097001367
0.98236083984375	0.0018988037109375	4302.93095213614
0.977935791015625	0.0016082763671875	4303.15220413558
0.9735107421875	0.00134765625	4303.37345613503
0.969085693359375	0.0011083984375	4303.59470813447
0.96466064453125	0.00089141845703125	4303.81596013391
0.960235595703125	0.0006915283203125	4304.03721213335
0.955810546875	0.00050811767578125	4304.25846413279
0.951385498046875	0.00033935546875	4304.47971613223
0.94696044921875	0.00018426513671875	4304.70096813167
0.942535400390625	4.1168212890625E-05	4304.92222013112
0.9381103515625	-9.06982421875E-05	4305.14347213056
0.933685302734375	-0.000214202880859375	4305.36472413
0.92926025390625	-0.000324676513671875	4305.58597612944
0.924835205078125	-0.000427154541015625	4305.80722812888
0.92041015625	-0.000521087646484375	4306.02848012832
0.915985107421875	-0.000606781005859375	4306.24973212776
0.91156005859375	-0.00068511962890625	4306.47098412721
0.907135009765625	-0.0007568359375	4306.69223612665
0.9027099609375	-0.0008221435546875	4306.91348812609
0.898284912109375	-0.00088134765625	4307.13474012553
0.89385986328125	-0.00093597412109375	4307.35599212497
0.889434814453125	-0.00098541259765625	4307.57724412441
0.885009765625	-0.0010302734375	4307.79849612385
0.880584716796875	-0.0010711669921875	4308.0197481233
0.87615966796875	-0.0011077880859375	4308.24100012274
0.871734619140625	-0.001141357421875	4308.46225212218
0.8673095703125	-0.0011724853515625	4308.68350412162
0.862884521484375	-0.001199951171875	4308.90475612106
0.85845947265625	-0.00122467041015625	4309.1260081205
0.854034423828125	-0.00124755859375	4309.34726011994
0.849609375	-0.00126861572265625	4309.56851211939
0.845184326171875	-0.0012884521484375	4309.78976411883
0.84075927734375	-0.00130645751953125	4310.01101611827
0.836334228515625	-0.00132293701171875	4310.23226811771
0.8319091796875	-0.00133758544921875	4310.45352011715
0.827484130859375	-0.001351318359375	4310.67477211659
0.82305908203125	-0.00136474609375	4310.89602411603
0.818634033203125	-0.0013763427734375	4311.11727611547
0.814208984375	-0.001387939453125	4311.33852811492
0.809783935546875	-0.0013983154296875	4311.55978011436
0.80535888671875	-0.00140838623046875	4311.7810321138
0.800933837890625	-0.0014178466796875	4312.00228411324
0.7965087890625	-0.001427001953125	4312.22353611268
0.792083740234375	-0.00143585205078125	4312.44478811212
0.78765869140625	-0.00144378662109375	4312.66604011157
0.783233642578125	-0.0014520263671875	4312.88729211101
0.77880859375	-0.00145904541015625	4313.10854411045
0.774383544921875	-0.00146697998046875	4313.32979610989
0.76995849609375	-0.0014739990234375	4313.55104810933
0.765533447265625	-0.0014813232421875	4313.77230010877
0.7611083984375	-0.001488037109375	4313.99355210821
0.756683349609375	-0.001495361328125	4314.21480410765
0.75225830078125	-0.0015020751953125	4314.4360561071
0.747833251953125	-0.0015081787109375	4314.65730810654
0.743408203125	-0.001514892578125	4314.87856010598
0.738983154296875	-0.00152008056640625	4315.09981210542
0.73455810546875	-0.0015264892578125	4315.32106410486
0.730133056640625	-0.00153289794921875	4315.5423161043
0.7257080078125	-0.001539306640625	4315.76356810374
0.721282958984375	-0.00154510498046875	4315.98482010319
0.71685791015625	-0.001551513671875	4316.20607210263
0.712432861328125	-0.00155731201171875	4316.42732410207
0.7080078125	-0.00156341552734375	4316.64857610151
0.703582763671875	-0.00156951904296875	4316.86982810095
0.69915771484375	-0.00157501220703125	4317.09108010039
0.694732666015625	-0.00158111572265625	4317.31233209983
0.6903076171875	-0.00158721923828125	4317.53358409928
0.685882568359375	-0.0015936279296875	4317.75483609872
0.68145751953125	-0.0015985107421875	4317.97608809816
0.677032470703125	-0.0016046142578125	4318.1973400976
0.672607421875	-0.00161102294921875	4318.41859209704
0.668182373046875	-0.00161651611328125	4318.63984409648
0.66375732421875	-0.001622314453125	4318.86109609592
0.659332275390625	-0.00162811279296875	4319.08234809536
0.6549072265625	-0.00163421630859375	4319.30360009481
0.650482177734375	-0.00163970947265625	4319.52485209425
0.64605712890625	-0.0016455078125	4319.74610409369
0.641632080078125	-0.0016510009765625	4319.96735609313
0.63720703125	-0.00165679931640625	4320.18860809257
0.632781982421875	-0.0016619873046875	4320.40986009201
0.62835693359375	-0.00166748046875	4320.63111209146
0.623931884765625	-0.001676025390625	4320.8523640909
0.6195068359375	-0.0016815185546875	4321.07361609034
0.615081787109375	-0.00168609619140625	4321.29486808978
0.61065673828125	-0.00169158935546875	4321.51612008922
0.606231689453125	-0.00169647216796875	4321.73737208866
0.601806640625	-0.00170196533203125	4321.9586240881
0.597381591796875	-0.00170654296875	4322.17987608754
0.59295654296875	-0.0017120361328125	4322.40112808699
0.588531494140625	-0.00171722412109375	4322.62238008643
0.5841064453125	-0.00172027587890625	4322.84363208587
0.579681396484375	-0.00172607421875	4323.06488408531
0.57525634765625	-0.0017315673828125	4323.28613608475
0.570831298828125	-0.00173675537109375	4323.50738808419
0.56640625	-0.001741943359375	4323.72864008363
0.561981201171875	-0.0017462158203125	4323.94989208308
0.55755615234375	-0.001751708984375	4324.17114408252
0.553131103515625	-0.0017559814453125	4324.39239608196
0.5487060546875	-0.00176116943359375	4324.6136480814
0.544281005859375	-0.00176544189453125	4324.83490008084
0.53985595703125	-0.0017706298828125	4325.05615208028
0.535430908203125	-0.001776123046875	4325.27740407972
0.531005859375	-0.00178070068359375	4325.49865607917
0.526580810546875	-0.00178497314453125	4325.71990807861
0.52215576171875	-0.0017901611328125	4325.94116007805
0.517730712890625	-0.00179473876953125	4326.16241207749
0.5133056640625	-0.00179962158203125	4326.38366407693
0.508880615234375	-0.00180389404296875	4326.60491607637
0.50445556640625	-0.00180908203125	4326.82616807581
0.500030517578125	-0.0018133544921875	4327.04742007526
0.49560546875	-0.00181854248046875	4327.2686720747
0.491180419921875	-0.0018231201171875	4327.48992407414
0.48675537109375	-0.0018267822265625	4327.71117607358
0.482330322265625	-0.001832275390625	4327.93242807302
0.4779052734375	-0.001837158203125	4328.15368007246
0.473480224609375	-0.00184112548828125	4328.3749320719
0.46905517578125	-0.001845703125	4328.59618407135
0.464630126953125	-0.00184906005859375	4328.81743607079
0.460205078125	-0.00185394287109375	4329.03868807023
0.455780029296875	-0.00185821533203125	4329.25994006967
0.45135498046875	-0.00186279296875	4329.48119206911
0.446929931640625	-0.00186737060546875	4329.70244406855
0.4425048828125	-0.00187164306640625	4329.92369606799
0.438079833984375	-0.00187652587890625	4330.14494806743
0.43365478515625	-0.00188018798828125	4330.36620006688
0.429229736328125	-0.0018841552734375	4330.58745206632
0.4248046875	-0.0018878173828125	4330.80870406576
0.420379638671875	-0.00189178466796875	4331.0299560652
0.41595458984375	-0.001895751953125	4331.25120806464
0.411529541015625	-0.0018994140625	4331.47246006408
0.4071044921875	-0.001904296875	4331.69371206352
0.402679443359375	-0.00190887451171875	4331.91496406297
0.39825439453125	-0.00191314697265625	4332.13621606241
0.393829345703125	-0.00191741943359375	4332.35746806185
0.389404296875	-0.00192169189453125	4332.57872006129
0.384979248046875	-0.00192657470703125	4332.79997206073
0.38055419921875	-0.00193115234375	4333.02122406017
0.376129150390625	-0.0019366455078125	4333.24247605961
0.3717041015625	-0.00194091796875	4333.46372805906
0.367279052734375	-0.00194610595703125	4333.6849800585
0.36285400390625	-0.0019512939453125	4333.90623205794
0.358428955078125	-0.00195526123046875	4334.12748405738
0.35400390625	-0.00196136474609375	4334.34873605682
0.349578857421875	-0.00196380615234375	4334.56998805626
0.34515380859375	-0.00196990966796875	4334.7912400557
0.340728759765625	-0.00197540283203125	4335.01249205515
0.3363037109375	-0.00198028564453125	4335.23374405459
0.331878662109375	-0.00198638916015625	4335.45499605403
0.32745361328125	-0.001990966796875	4335.67624805347
0.323028564453125	-0.00199737548828125	4335.89750005291
0.318603515625	-0.0020025634765625	4336.11875205235
0.314178466796875	-0.002008056640625	4336.34000405179
0.30975341796875	-0.0020159912109375	4336.56125605124
0.305328369140625	-0.00201995849609375	4336.78250805068
0.3009033203125	-0.0020263671875	4337.00376005012
0.296478271484375	-0.00203094482421875	4337.22501204956
0.29205322265625	-0.00203704833984375	4337.446264049
0.287628173828125	-0.00204254150390625	4337.66751604844
0.283203125	-0.00204833984375	4337.88876804788
0.278778076171875	-0.00205474853515625	4338.11002004732
0.27435302734375	-0.0020599365234375	4338.33127204677
0.269927978515625	-0.00206634521484375	4338.55252404621
0.2655029296875	-0.00207305908203125	4338.77377604565
0.261077880859375	-0.0020794677734375	4338.99502804509
0.25665283203125	-0.0020867919921875	4339.21628004453
0.252227783203125	-0.00209228515625	4339.43753204397
0.247802734375	-0.00209991455078125	4339.65878404341
0.243377685546875	-0.0021063232421875	4339.88003604286
0.23895263671875	-0.0021136474609375	4340.1012880423
0.234527587890625	-0.00212127685546875	4340.32254004174
0.2301025390625	-0.00212677001953125	4340.54379204118
0.225677490234375	-0.00213531494140625	4340.76504404062
0.22125244140625	-0.00214202880859375	4340.98629604006
0.216827392578125	-0.0021502685546875	4341.2075480395
0.21240234375	-0.0021575927734375	4341.42880003895
0.207977294921875	-0.00216522216796875	4341.65005203839
0.20355224609375	-0.00217437744140625	4341.87130403783
0.199127197265625	-0.0021826171875	4342.09255603727
0.1947021484375	-0.00219085693359375	4342.31380803671
0.190277099609375	-0.00219879150390625	4342.53506003615
0.18585205078125	-0.00220733642578125	4342.75631203559
0.181427001953125	-0.00221649169921875	4342.97756403504
0.177001953125	-0.00222503662109375	4343.19881603448
0.172576904296875	-0.0022344970703125	4343.42006803392
0.16815185546875	-0.00224334716796875	4343.64132003336
0.163726806640625	-0.00225311279296875	4343.8625720328
0.1593017578125	-0.0022625732421875	4344.08382403224
0.154876708984375	-0.002271728515625	4344.30507603168
0.15045166015625	-0.00228240966796875	4344.52632803113
0.146026611328125	-0.00229156494140625	4344.74758003057
0.1416015625	-0.00230194091796875	4344.96883203001
0.137176513671875	-0.00231170654296875	4345.19008402945
0.13275146484375	-0.00232177734375	4345.41133602889
0.128326416015625	-0.0023333740234375	4345.63258802833
0.1239013671875	-0.0023431396484375	4345.85384002777
0.119476318359375	-0.002354736328125	4346.07509202721
0.11505126953125	-0.00236419677734375	4346.29634402666
0.110626220703125	-0.00237579345703125	4346.5175960261
0.106201171875	-0.00238800048828125	4346.73884802554
0.101776123046875	-0.00239837646484375	4346.96010002498
0.09735107421875	-0.00241119384765625	4347.18135202442
0.092926025390625	-0.00242279052734375	4347.40260402386
0.0885009765625	-0.00243560791015625	4347.62385602331
0.084075927734375	-0.00244842529296875	4347.84510802275
0.07965087890625	-0.00246063232421875	4348.06636002219
0.075225830078125	-0.0024737548828125	4348.28761202163
0.07080078125	-0.00248626708984375	4348.50886402107
0.066375732421875	-0.00250030517578125	4348.73011602051
0.06195068359375	-0.002513427734375	4348.95136801995
0.057525634765625	-0.00252685546875	4349.17262001939
0.0531005859375	-0.00254119873046875	4349.39387201884
0.048675537109375	-0.0025543212890625	4349.61512401828
0.04425048828125	-0.00256988525390625	4349.83637601772
0.039825439453125	-0.00258453369140625	4350.05762801716
0.035400390625	-0.002598876953125	4350.2788800166
0.030975341796875	-0.00261474609375	4350.50013201604
0.02655029296875	-0.00263031005859375	4350.72138401548
0.022125244140625	-0.002646484375	4350.94263601493
0.0177001953125	-0.0026611328125	4351.16388801437
0.013275146484375	-0.00267852783203125	4351.38514001381
0.00885009765625	-0.00269561767578125	4351.60639201325
0.004425048828125	-0.002711181640625	4351.82764401269
0	-0.0027301025390625	4352.04889601213
0.004425048828125	-0.0021234130859375	4352.27014801157
0.00885009765625	-0.0016094970703125	4352.49140001102
0.013275146484375	-0.00116485595703125	4352.71265201046
0.0177001953125	-0.0007781982421875	4352.9339040099
0.022125244140625	-0.000439697265625	4353.15515600934
0.02655029296875	-0.00014154052734375	4353.37640800878
0.030975341796875	0.00012091064453125	4353.59766000822
0.035400390625	0.000352752685546875	4353.81891200766
0.039825439453125	0.0005584716796875	4354.0401640071
0.04425048828125	0.00074310302734375	4354.26141600655
0.048675537109375	0.000906982421875	4354.48266800599
0.0531005859375	0.001048583984375	4354.70392000543
0.057525634765625	0.00117095947265625	4354.92517200487
0.06195068359375	0.001280517578125	4355.14642400431
0.066375732421875	0.00137786865234375	4355.36767600375
0.07080078125	0.001463623046875	4355.5889280032
0.075225830078125	0.00154022216796875	4355.81018000264
0.07965087890625	0.0016046142578125	4356.03143200208
0.084075927734375	0.00166259765625	4356.25268400152
0.0885009765625	0.00171539306640625	4356.47393600096
0.092926025390625	0.00176239013671875	4356.6951880004
0.09735107421875	0.00180419921875	4356.91643999984
0.101776123046875	0.00184051513671875	4357.13769199928
0.106201171875	0.00187255859375	4357.35894399873
0.110626220703125	0.00189910888671875	4357.58019599817
0.11505126953125	0.00192230224609375	4357.80144799761
0.119476318359375	0.00194061279296875	4358.02269999705
0.1239013671875	0.001956787109375	4358.24395199649
0.128326416015625	0.001971435546875	4358.46520399593
0.13275146484375	0.00198211669921875	4358.68645599537
0.137176513671875	0.00199188232421875	4358.90770799482
0.1416015625	0.00199920654296875	4359.12895999426
0.146026611328125	0.00200469970703125	4359.3502119937
0.15045166015625	0.0020098876953125	4359.57146399314
0.154876708984375	0.0020123291015625	4359.79271599258
0.1593017578125	0.00201446533203125	4360.01396799202
0.163726806640625	0.0020172119140625	4360.23521999146
0.16815185546875	0.0020159912109375	4360.45647199091
0.172576904296875	0.00201385498046875	4360.67772399035
0.177001953125	0.002010498046875	4360.89897598979
0.181427001953125	0.0020074462890625	4361.12022798923
0.18585205078125	0.0020025634765625	4361.34147998867
0.190277099609375	0.001998291015625	4361.56273198811
0.1947021484375	0.0019940185546875	4361.78398398755
0.199127197265625	0.00198822021484375	4362.005235987
0.20355224609375	0.00198272705078125	4362.22648798644
0.207977294921875	0.001976318359375	4362.44773998588
0.21240234375	0.001973876953125	4362.66899198532
0.216827392578125	0.00196746826171875	4362.89024398476
0.22125244140625	0.00196014404296875	4363.1114959842
0.225677490234375	0.00195281982421875	4363.33274798364
0.2301025390625	0.00194610595703125	4363.55399998309
0.234527587890625	0.0019384765625	4363.77525198253
0.23895263671875	0.00193206787109375	4363.99650398197
0.243377685546875	0.00192474365234375	4364.21775598141
0.247802734375	0.0019183349609375	4364.43900798085
0.252227783203125	0.0019110107421875	4364.66025998029
0.25665283203125	0.001904296875	4364.88151197973
0.261077880859375	0.00189788818359375	4365.10276397917
0.2655029296875	0.0018914794921875	4365.32401597862
0.269927978515625	0.00188568115234375	4365.54526797806
0.27435302734375	0.001878662109375	4365.7665199775
0.278778076171875	0.00187255859375	4365.98777197694
0.283203125	0.0018658447265625	4366.20902397638
0.287628173828125	0.00186004638671875	4366.43027597582
0.29205322265625	0.0018536376953125	4366.65152797526
0.296478271484375	0.001846923828125	4366.87277997471
0.3009033203125	0.0018414306640625	4367.09403197415
0.305328369140625	0.00183502197265625	4367.31528397359
0.30975341796875	0.001829833984375	4367.53653597303
0.314178466796875	0.001826171875	4367.75778797247
0.318603515625	0.0018194580078125	4367.97903997191
0.323028564453125	0.00181427001953125	4368.20029197135
0.32745361328125	0.0018084716796875	4368.4215439708
0.331878662109375	0.001802978515625	4368.64279597024
0.3363037109375	0.0017974853515625	4368.86404796968
0.340728759765625	0.00179229736328125	4369.08529996912
0.34515380859375	0.00178741455078125	4369.30655196856
0.349578857421875	0.0017822265625	4369.527803968
0.35400390625	0.00177581787109375	4369.74905596744
0.358428955078125	0.00177154541015625	4369.97030796689
0.36285400390625	0.001767578125	4370.19155996633
0.367279052734375	0.0017633056640625	4370.41281196577
0.3717041015625	0.00175872802734375	4370.63406396521
0.376129150390625	0.0017547607421875	4370.85531596465
0.38055419921875	0.00175048828125	4371.07656796409
0.384979248046875	0.00174774169921875	4371.29781996353
0.389404296875	0.00174346923828125	4371.51907196298
0.393829345703125	0.0017388916015625	4371.74032396242
0.39825439453125	0.00173614501953125	4371.96157596186
0.402679443359375	0.00173248291015625	4372.1828279613
0.4071044921875	0.00173004150390625	4372.40407996074
0.411529541015625	0.00172698974609375	4372.62533196018
0.41595458984375	0.0017242431640625	4372.84658395962
0.420379638671875	0.00172210693359375	4373.06783595906
0.4248046875	0.00171875	4373.28908795851
0.429229736328125	0.0017169189453125	4373.51033995795
0.43365478515625	0.00171417236328125	4373.73159195739
0.438079833984375	0.00171234130859375	4373.95284395683
0.4425048828125	0.001710205078125	4374.17409595627
0.446929931640625	0.00170806884765625	4374.39534795571
0.45135498046875	0.0017059326171875	4374.61659995515
0.455780029296875	0.00170379638671875	4374.8378519546
0.460205078125	0.0017022705078125	4375.05910395404
0.464630126953125	0.0017010498046875	4375.28035595348
0.46905517578125	0.00169921875	4375.50160795292
0.473480224609375	0.0016986083984375	4375.72285995236
0.4779052734375	0.00169677734375	4375.9441119518
0.482330322265625	0.00169586181640625	4376.16536395124
0.48675537109375	0.00169525146484375	4376.38661595069
0.491180419921875	0.0016943359375	4376.60786795013
0.49560546875	0.0016937255859375	4376.82911994957
0.500030517578125	0.0016925048828125	4377.05037194901
0.50445556640625	0.00169281005859375	4377.27162394845
0.508880615234375	0.00169219970703125	4377.49287594789
0.5133056640625	0.0016925048828125	4377.71412794733
0.517730712890625	0.00169219970703125	4377.93537994678
0.52215576171875	0.00169219970703125	4378.15663194622
0.526580810546875	0.001693115234375	4378.37788394566
0.531005859375	0.00169342041015625	4378.5991359451
0.535430908203125	0.00169342041015625	4378.82038794454
0.53985595703125	0.00169403076171875	4379.04163994398
0.544281005859375	0.00169464111328125	4379.26289194342
0.5487060546875	0.0016949462890625	4379.48414394287
0.553131103515625	0.001695556640625	4379.70539594231
0.55755615234375	0.00169677734375	4379.92664794175
0.561981201171875	0.001697998046875	4380.14789994119
0.56640625	0.00169921875	4380.36915194063
0.570831298828125	0.00170135498046875	4380.59040394007
0.57525634765625	0.0017022705078125	4380.81165593951
0.579681396484375	0.0017047119140625	4381.03290793895
0.5841064453125	0.0017059326171875	4381.2541599384
0.588531494140625	0.00170654296875	4381.47541193784
0.59295654296875	0.001708984375	4381.69666393728
0.597381591796875	0.0017108154296875	4381.91791593672
0.601806640625	0.0017132568359375	4382.13916793616
0.606231689453125	0.00171539306640625	4382.3604199356
0.61065673828125	0.00171844482421875	4382.58167193505
0.615081787109375	0.00172119140625	4382.80292393449
0.6195068359375	0.0017236328125	4383.02417593393
0.623931884765625	0.0017266845703125	4383.24542793337
0.62835693359375	0.001732177734375	4383.46667993281
0.632781982421875	0.00173492431640625	4383.68793193225
0.63720703125	0.0017376708984375	4383.90918393169
0.641632080078125	0.00174072265625	4384.13043593113
0.64605712890625	0.00174407958984375	4384.35168793058
0.650482177734375	0.001746826171875	4384.57293993002
0.6549072265625	0.00175079345703125	4384.79419192946
0.659332275390625	0.001754150390625	4385.0154439289
0.66375732421875	0.0017584228515625	4385.23669592834
0.668182373046875	0.0017626953125	4385.45794792778
0.672607421875	0.0017657470703125	4385.67919992722
0.677032470703125	0.00177093505859375	4385.90045192667
0.68145751953125	0.00177520751953125	4386.12170392611
0.685882568359375	0.00178009033203125	4386.34295592555
0.6903076171875	0.0017852783203125	4386.56420792499
0.694732666015625	0.0017901611328125	4386.78545992443
0.69915771484375	0.00179534912109375	4387.00671192387
0.703582763671875	0.00179962158203125	4387.22796392331
0.7080078125	0.001805419921875	4387.44921592276
0.712432861328125	0.00181121826171875	4387.6704679222
0.71685791015625	0.00181671142578125	4387.89171992164
0.721282958984375	0.0018231201171875	4388.11297192108
0.7257080078125	0.00182891845703125	4388.33422392052
0.730133056640625	0.00183563232421875	4388.55547591996
0.73455810546875	0.001842041015625	4388.7767279194
0.738983154296875	0.00184814453125	4388.99797991884
0.743408203125	0.001854248046875	4389.21923191829
0.747833251953125	0.0018609619140625	4389.44048391773
0.75225830078125	0.00186859130859375	4389.66173591717
0.756683349609375	0.00187713623046875	4389.88298791661
0.7611083984375	0.0018841552734375	4390.10423991605
0.765533447265625	0.00189300537109375	4390.32549191549
0.76995849609375	0.001900634765625	4390.54674391494
0.774383544921875	0.0019097900390625	4390.76799591438
0.77880859375	0.0019183349609375	4390.98924791382
0.783233642578125	0.00192718505859375	4391.21049991326
0.78765869140625	0.001937255859375	4391.4317519127
0.792083740234375	0.00194671630859375	4391.65300391214
0.7965087890625	0.0019573974609375	4391.87425591158
0.800933837890625	0.00196807861328125	4392.09550791102
0.80535888671875	0.0019793701171875	4392.31675991047
0.809783935546875	0.001990966796875	4392.53801190991
0.814208984375	0.002001953125	4392.75926390935
0.818634033203125	0.0020147705078125	4392.98051590879
0.82305908203125	0.0020263671875	4393.20176790823
0.827484130859375	0.00204010009765625	4393.42301990767
0.8319091796875	0.00205413818359375	4393.64427190711
0.836334228515625	0.0020684814453125	4393.86552390656
0.84075927734375	0.0020843505859375	4394.086775906
0.845184326171875	0.00209869384765625	4394.30802790544
0.849609375	0.002115478515625	4394.52927990488
0.854034423828125	0.00213226318359375	4394.75053190432
0.85845947265625	0.00214935302734375	4394.97178390376
0.862884521484375	0.00216827392578125	4395.1930359032
0.8673095703125	0.0021868896484375	4395.41428790265
0.871734619140625	0.00220794677734375	4395.63553990209
0.87615966796875	0.002227783203125	4395.85679190153
0.880584716796875	0.0022503662109375	4396.07804390097
0.885009765625	0.002274169921875	4396.29929590041
0.889434814453125	0.0022967529296875	4396.52054789985
0.89385986328125	0.002322998046875	4396.74179989929
0.898284912109375	0.0023480224609375	4396.96305189874
0.9027099609375	0.00237457275390625	4397.18430389818
0.907135009765625	0.00240509033203125	4397.40555589762
0.91156005859375	0.00243408203125	4397.62680789706
0.915985107421875	0.00246673583984375	4397.8480598965
0.92041015625	0.002498779296875	4398.06931189594
0.924835205078125	0.00253387451171875	4398.29056389538
0.92926025390625	0.00257080078125	4398.51181589483
0.933685302734375	0.00260833740234375	4398.73306789427
0.9381103515625	0.00265228271484375	4398.95431989371
0.942535400390625	0.00269287109375	4399.17557189315
0.94696044921875	0.002738037109375	4399.39682389259
0.951385498046875	0.00278472900390625	4399.61807589203
0.955810546875	0.00283203125	4399.83932789147
0.960235595703125	0.0028863525390625	4400.06057989091
0.96466064453125	0.002940673828125	4400.28183189036
0.969085693359375	0.0029998779296875	4400.5030838898
0.9735107421875	0.00306060791015625	4400.72433588924
0.977935791015625	0.0031243896484375	4400.94558788868
0.98236083984375	0.0031927490234375	4401.16683988812
0.986785888671875	0.00326446533203125	4401.38809188756
0.9912109375	0.0033416748046875	4401.609343887
0.995635986328125	0.0034210205078125	4401.83059588645
1.00006103515625	0.003507080078125	4402.05184788589
0.995635986328125	0.00299102783203125	4402.27309988533
0.9912109375	0.0025634765625	4402.49435188477
0.986785888671875	0.0021954345703125	4402.71560388421
0.98236083984375	0.0018701171875	4402.93685588365
0.977935791015625	0.00158203125	4403.15810788309
0.9735107421875	0.0013226318359375	4403.37935988254
0.969085693359375	0.001085205078125	4403.60061188198
0.96466064453125	0.00086944580078125	4403.82186388142
0.960235595703125	0.0006707763671875	4404.04311588086
0.955810546875	0.000489105224609375	4404.2643678803
0.951385498046875	0.00032196044921875	4404.48561987974
0.94696044921875	0.00016778564453125	4404.70687187918
0.942535400390625	2.60955810546875E-05	4404.92812387863
0.9381103515625	-0.00010430908203125	4405.14937587807
0.933685302734375	-0.00022637939453125	4405.37062787751
0.92926025390625	-0.00033624267578125	4405.59187987695
0.924835205078125	-0.0004371337890625	4405.81313187639
0.92041015625	-0.000529876708984375	4406.03438387583
0.915985107421875	-0.00061431884765625	4406.25563587527
0.91156005859375	-0.000692138671875	4406.47688787472
0.907135009765625	-0.0007623291015625	4406.69813987416
0.9027099609375	-0.00082672119140625	4406.9193918736
0.898284912109375	-0.00088531494140625	4407.14064387304
0.89385986328125	-0.00093902587890625	4407.36189587248
0.889434814453125	-0.000987548828125	4407.58314787192
0.885009765625	-0.00103118896484375	4407.80439987136
0.880584716796875	-0.00107147216796875	4408.0256518708
0.87615966796875	-0.001107177734375	4408.24690387025
0.871734619140625	-0.00114044189453125	4408.46815586969
0.8673095703125	-0.00117034912109375	4408.68940786913
0.862884521484375	-0.001197509765625	4408.91065986857
0.85845947265625	-0.001221923828125	4409.13191186801
0.854034423828125	-0.00124359130859375	4409.35316386745
0.849609375	-0.0012652587890625	4409.57441586689
0.845184326171875	-0.00128448486328125	4409.79566786634
0.84075927734375	-0.00130126953125	4410.01691986578
0.836334228515625	-0.00131744384765625	4410.23817186522
0.8319091796875	-0.00133209228515625	4410.45942386466
0.827484130859375	-0.00134552001953125	4410.6806758641
0.82305908203125	-0.0013580322265625	4410.90192786354
0.818634033203125	-0.00136932373046875	4411.12317986298
0.814208984375	-0.0013812255859375	4411.34443186243
0.809783935546875	-0.00139007568359375	4411.56568386187
0.80535888671875	-0.0014007568359375	4411.78693586131
0.800933837890625	-0.00141021728515625	4412.00818786075
0.7965087890625	-0.00141876220703125	4412.22943986019
0.792083740234375	-0.0014276123046875	4412.45069185963
0.78765869140625	-0.00143524169921875	4412.67194385907
0.783233642578125	-0.0014434814453125	4412.89319585852
0.77880859375	-0.00145050048828125	4413.11444785796
0.774383544921875	-0.0014581298828125	4413.3356998574
0.76995849609375	-0.00146484375	4413.55695185684
0.765533447265625	-0.00147125244140625	4413.77820385628
0.7611083984375	-0.00147918701171875	4413.99945585572
0.756683349609375	-0.00148468017578125	4414.22070785516
0.75225830078125	-0.00149169921875	4414.44195985461
0.747833251953125	-0.001497802734375	4414.66321185405
0.743408203125	-0.00150421142578125	4414.88446385349
0.738983154296875	-0.0015093994140625	4415.10571585293
0.73455810546875	-0.00151580810546875	4415.32696785237
0.730133056640625	-0.001522216796875	4415.54821985181
0.7257080078125	-0.00152801513671875	4415.76947185125
0.721282958984375	-0.00153411865234375	4415.99072385069
0.71685791015625	-0.0015411376953125	4416.21197585014
0.712432861328125	-0.001546630859375	4416.43322784958
0.7080078125	-0.0015533447265625	4416.65447984902
0.703582763671875	-0.001558837890625	4416.87573184846
0.69915771484375	-0.00156402587890625	4417.0969838479
0.694732666015625	-0.00156982421875	4417.31823584734
0.6903076171875	-0.0015753173828125	4417.53948784679
0.685882568359375	-0.00158172607421875	4417.76073984623
0.68145751953125	-0.0015869140625	4417.98199184567
0.677032470703125	-0.001593017578125	4418.20324384511
0.672607421875	-0.00159881591796875	4418.42449584455
0.668182373046875	-0.0016046142578125	4418.64574784399
0.66375732421875	-0.001610107421875	4418.86699984343
0.659332275390625	-0.0016156005859375	4419.08825184287
0.6549072265625	-0.00162200927734375	4419.30950384232
0.650482177734375	-0.00162689208984375	4419.53075584176
0.64605712890625	-0.00163299560546875	4419.7520078412
0.641632080078125	-0.00163848876953125	4419.97325984064
0.63720703125	-0.00164398193359375	4420.19451184008
0.632781982421875	-0.00164947509765625	4420.41576383952
0.62835693359375	-0.0016552734375	4420.63701583896
0.623931884765625	-0.00166351318359375	4420.85826783841
0.6195068359375	-0.00166839599609375	4421.07951983785
0.615081787109375	-0.001673583984375	4421.30077183729
0.61065673828125	-0.00167877197265625	4421.52202383673
0.606231689453125	-0.00168304443359375	4421.74327583617
0.601806640625	-0.00168914794921875	4421.96452783561
0.597381591796875	-0.00169342041015625	4422.18577983505
0.59295654296875	-0.00169769287109375	4422.4070318345
0.588531494140625	-0.0017041015625	4422.62828383394
0.5841064453125	-0.00170745849609375	4422.84953583338
0.579681396484375	-0.0017132568359375	4423.07078783282
0.57525634765625	-0.0017181396484375	4423.29203983226
0.570831298828125	-0.00172332763671875	4423.5132918317
0.56640625	-0.00172821044921875	4423.73454383114
0.561981201171875	-0.0017327880859375	4423.95579583058
0.55755615234375	-0.00173797607421875	4424.17704783003
0.553131103515625	-0.0017425537109375	4424.39829982947
0.5487060546875	-0.0017474365234375	4424.61955182891
0.544281005859375	-0.001751708984375	4424.84080382835
0.53985595703125	-0.001756591796875	4425.06205582779
0.535430908203125	-0.001761474609375	4425.28330782723
0.531005859375	-0.001766357421875	4425.50455982668
0.526580810546875	-0.00177093505859375	4425.72581182612
0.52215576171875	-0.001776123046875	4425.94706382556
0.517730712890625	-0.001781005859375	4426.168315825
0.5133056640625	-0.0017852783203125	4426.38956782444
0.508880615234375	-0.00179046630859375	4426.61081982388
0.50445556640625	-0.0017950439453125	4426.83207182332
0.500030517578125	-0.0017999267578125	4427.05332382276
0.49560546875	-0.00180389404296875	4427.27457582221
0.491180419921875	-0.00180938720703125	4427.49582782165
0.48675537109375	-0.00181304931640625	4427.71707982109
0.482330322265625	-0.001817626953125	4427.93833182053
0.4779052734375	-0.0018218994140625	4428.15958381997
0.473480224609375	-0.00182586669921875	4428.38083581941
0.46905517578125	-0.0018310546875	4428.60208781885
0.464630126953125	-0.00183441162109375	4428.8233398183
0.460205078125	-0.00183929443359375	4429.04459181774
0.455780029296875	-0.00184326171875	4429.26584381718
0.45135498046875	-0.00184814453125	4429.48709581662
0.446929931640625	-0.00185302734375	4429.70834781606
0.4425048828125	-0.0018572998046875	4429.9295998155
0.438079833984375	-0.001861572265625	4430.15085181494
0.43365478515625	-0.00186492919921875	4430.37210381439
0.429229736328125	-0.001868896484375	4430.59335581383
0.4248046875	-0.00187225341796875	4430.81460781327
0.420379638671875	-0.0018756103515625	4431.03585981271
0.41595458984375	-0.0018798828125	4431.25711181215
0.411529541015625	-0.00188446044921875	4431.47836381159
0.4071044921875	-0.00188873291015625	4431.69961581103
0.402679443359375	-0.00189300537109375	4431.92086781048
0.39825439453125	-0.0018975830078125	4432.14211980992
0.393829345703125	-0.0019024658203125	4432.36337180936
0.389404296875	-0.0019061279296875	4432.5846238088
0.384979248046875	-0.00191131591796875	4432.80587580824
0.38055419921875	-0.00191619873046875	4433.02712780768
0.376129150390625	-0.0019207763671875	4433.24837980712
0.3717041015625	-0.00192596435546875	4433.46963180657
0.367279052734375	-0.00193023681640625	4433.69088380601
0.36285400390625	-0.00193634033203125	4433.91213580545
0.358428955078125	-0.00194000244140625	4434.13338780489
0.35400390625	-0.00194610595703125	4434.35463980433
0.349578857421875	-0.00194915771484375	4434.57589180377
0.34515380859375	-0.00195465087890625	4434.79714380321
0.340728759765625	-0.00196044921875	4435.01839580265
0.3363037109375	-0.00196533203125	4435.2396478021
0.331878662109375	-0.0019708251953125	4435.46089980154
0.32745361328125	-0.00197662353515625	4435.68215180098
0.323028564453125	-0.0019818115234375	4435.90340380042
0.318603515625	-0.00198699951171875	4436.12465579986
0.314178466796875	-0.00199249267578125	4436.3459077993
0.30975341796875	-0.002000732421875	4436.56715979874
0.305328369140625	-0.002005615234375	4436.78841179819
0.3009033203125	-0.002010498046875	4437.00966379763
0.296478271484375	-0.0020172119140625	4437.23091579707
0.29205322265625	-0.002022705078125	4437.45216779651
0.287628173828125	-0.0020281982421875	4437.67341979595
0.283203125	-0.00203369140625	4437.89467179539
0.278778076171875	-0.00204010009765625	4438.11592379483
0.27435302734375	-0.00204620361328125	4438.33717579428
0.269927978515625	-0.002052001953125	4438.55842779372
0.2655029296875	-0.00205902099609375	4438.77967979316
0.261077880859375	-0.00206390380859375	4439.0009317926
0.25665283203125	-0.00207183837890625	4439.22218379204
0.252227783203125	-0.00207855224609375	4439.44343579148
0.247802734375	-0.00208526611328125	4439.66468779092
0.243377685546875	-0.00209228515625	4439.88593979037
0.23895263671875	-0.002098388671875	4440.10719178981
0.234527587890625	-0.00210601806640625	4440.32844378925
0.2301025390625	-0.0021124267578125	4440.54969578869
0.225677490234375	-0.00211944580078125	4440.77094778813
0.22125244140625	-0.00212799072265625	4440.99219978757
0.216827392578125	-0.0021356201171875	4441.21345178701
0.21240234375	-0.00214385986328125	4441.43470378646
0.207977294921875	-0.00215240478515625	4441.6559557859
0.20355224609375	-0.00215972900390625	4441.87720778534
0.199127197265625	-0.00216827392578125	4442.09845978478
0.1947021484375	-0.002176513671875	4442.31971178422
0.190277099609375	-0.00218536376953125	4442.54096378366
0.18585205078125	-0.0021942138671875	4442.7622157831
0.181427001953125	-0.002203369140625	4442.98346778254
0.177001953125	-0.0022125244140625	4443.20471978199
0.172576904296875	-0.00222137451171875	4443.42597178143
0.16815185546875	-0.0022314453125	4443.64722378087
0.163726806640625	-0.002239990234375	4443.86847578031
0.1593017578125	-0.0022503662109375	4444.08972777975
0.154876708984375	-0.002259521484375	4444.31097977919
0.15045166015625	-0.0022686767578125	4444.53223177863
0.146026611328125	-0.0022796630859375	4444.75348377808
0.1416015625	-0.0022894287109375	4444.97473577752
0.137176513671875	-0.002301025390625	4445.19598777696
0.13275146484375	-0.00231048583984375	4445.4172397764
0.128326416015625	-0.00232147216796875	4445.63849177584
0.1239013671875	-0.00233245849609375	4445.85974377528
0.119476318359375	-0.00234283447265625	4446.08099577472
0.11505126953125	-0.0023529052734375	4446.30224777417
0.110626220703125	-0.002364501953125	4446.52349977361
0.106201171875	-0.00237579345703125	4446.74475177305
0.101776123046875	-0.002388916015625	4446.96600377249
0.09735107421875	-0.00240020751953125	4447.18725577193
0.092926025390625	-0.0024127197265625	4447.40850777137
0.0885009765625	-0.00242431640625	4447.62975977081
0.084075927734375	-0.00243743896484375	4447.85101177026
0.07965087890625	-0.0024505615234375	4448.0722637697
0.075225830078125	-0.0024627685546875	4448.29351576914
0.07080078125	-0.0024755859375	4448.51476776858
0.066375732421875	-0.002489013671875	4448.73601976802
0.06195068359375	-0.00250335693359375	4448.95727176746
0.057525634765625	-0.00251708984375	4449.1785237669
0.0531005859375	-0.0025311279296875	4449.39977576635
0.048675537109375	-0.00254608154296875	4449.62102776579
0.04425048828125	-0.002559814453125	4449.84227976523
0.039825439453125	-0.00257568359375	4450.06353176467
0.035400390625	-0.00259033203125	4450.28478376411
0.030975341796875	-0.00260528564453125	4450.50603576355
0.02655029296875	-0.0026214599609375	4450.72728776299
0.022125244140625	-0.0026373291015625	4450.94853976243
0.0177001953125	-0.00265411376953125	4451.16979176188
0.013275146484375	-0.00266998291015625	4451.39104376132
0.00885009765625	-0.002686767578125	4451.61229576076
0.004425048828125	-0.00270477294921875	4451.8335477602
0	-0.00272216796875	4452.05479975964
0.004425048828125	-0.00211639404296875	4452.27605175908
0.00885009765625	-0.0016009521484375	4452.49730375853
0.013275146484375	-0.00115692138671875	4452.71855575797
0.0177001953125	-0.00076995849609375	4452.93980775741
0.022125244140625	-0.000431396484375	4453.16105975685
0.02655029296875	-0.000133880615234375	4453.38231175629
0.030975341796875	0.00012890625	4453.60356375573
0.035400390625	0.00036077880859375	4453.82481575517
0.039825439453125	0.00056671142578125	4454.04606775461
0.04425048828125	0.00075103759765625	4454.26731975406
0.048675537109375	0.0009149169921875	4454.4885717535
0.0531005859375	0.0010552978515625	4454.70982375294
0.057525634765625	0.00117889404296875	4454.93107575238
0.06195068359375	0.0012872314453125	4455.15232775182
0.066375732421875	0.0013848876953125	4455.37357975126
0.07080078125	0.0014703369140625	4455.5948317507
0.075225830078125	0.00154571533203125	4455.81608375015
0.07965087890625	0.0016107177734375	4456.03733574959
0.084075927734375	0.0016668701171875	4456.25858774903
0.0885009765625	0.001719970703125	4456.47983974847
0.092926025390625	0.0017669677734375	4456.70109174791
0.09735107421875	0.00180908203125	4456.92234374735
0.101776123046875	0.00184539794921875	4457.14359574679
0.106201171875	0.0018756103515625	4457.36484774624
0.110626220703125	0.00190216064453125	4457.58609974568
0.11505126953125	0.001925048828125	4457.80735174512
0.119476318359375	0.00194305419921875	4458.02860374456
0.1239013671875	0.00196014404296875	4458.249855744
0.128326416015625	0.00197265625	4458.47110774344
0.13275146484375	0.00198516845703125	4458.69235974288
0.137176513671875	0.00199371337890625	4458.91361174232
0.1416015625	0.00200103759765625	4459.13486374177
0.146026611328125	0.0020068359375	4459.35611574121
0.15045166015625	0.00201019287109375	4459.57736774065
0.154876708984375	0.00201416015625	4459.79861974009
0.1593017578125	0.00201416015625	4460.01987173953
0.163726806640625	0.00201690673828125	4460.24112373897
0.16815185546875	0.00201629638671875	4460.46237573842
0.172576904296875	0.002012939453125	4460.68362773786
0.177001953125	0.002010498046875	4460.9048797373
0.181427001953125	0.00200592041015625	4461.12613173674
0.18585205078125	0.002001953125	4461.34738373618
0.190277099609375	0.00199676513671875	4461.56863573562
0.1947021484375	0.00199188232421875	4461.78988773506
0.199127197265625	0.00198699951171875	4462.0111397345
0.20355224609375	0.00198028564453125	4462.23239173395
0.207977294921875	0.0019757080078125	4462.45364373339
0.21240234375	0.00197174072265625	4462.67489573283
0.216827392578125	0.00196563720703125	4462.89614773227
0.22125244140625	0.00195831298828125	4463.11739973171
0.225677490234375	0.00195068359375	4463.33865173115
0.2301025390625	0.00194488525390625	4463.55990373059
0.234527587890625	0.00193603515625	4463.78115573004
0.23895263671875	0.0019287109375	4464.00240772948
0.243377685546875	0.00192169189453125	4464.22365972892
0.247802734375	0.0019134521484375	4464.44491172836
0.252227783203125	0.00190826416015625	4464.6661637278
0.25665283203125	0.001900634765625	4464.88741572724
0.261077880859375	0.00189453125	4465.10866772668
0.2655029296875	0.00188812255859375	4465.32991972613
0.269927978515625	0.00188140869140625	4465.55117172557
0.27435302734375	0.00187530517578125	4465.77242372501
0.278778076171875	0.0018682861328125	4465.99367572445
0.283203125	0.00186248779296875	4466.21492772389
0.287628173828125	0.00185546875	4466.43617972333
0.29205322265625	0.00184906005859375	4466.65743172277
0.296478271484375	0.00184295654296875	4466.87868372222
0.3009033203125	0.0018359375	4467.09993572166
0.305328369140625	0.0018304443359375	4467.3211877211
0.30975341796875	0.00182464599609375	4467.54243972054
0.314178466796875	0.00182098388671875	4467.76369171998
0.318603515625	0.00181488037109375	4467.98494371942
0.323028564453125	0.00180877685546875	4468.20619571886
0.32745361328125	0.0018035888671875	4468.42744771831
0.331878662109375	0.0017974853515625	4468.64869971775
0.3363037109375	0.0017919921875	4468.86995171719
0.340728759765625	0.001787109375	4469.09120371663
0.34515380859375	0.00178131103515625	4469.31245571607
0.349578857421875	0.0017767333984375	4469.53370771551
0.35400390625	0.00177001953125	4469.75495971495
0.358428955078125	0.0017657470703125	4469.97621171439
0.36285400390625	0.00176116943359375	4470.19746371384
0.367279052734375	0.001756591796875	4470.41871571328
0.3717041015625	0.0017529296875	4470.63996771272
0.376129150390625	0.001748046875	4470.86121971216
0.38055419921875	0.0017449951171875	4471.0824717116
0.384979248046875	0.00174072265625	4471.30372371104
0.389404296875	0.00173675537109375	4471.52497571048
0.393829345703125	0.00173248291015625	4471.74622770993
0.39825439453125	0.0017291259765625	4471.96747970937
0.402679443359375	0.00172698974609375	4472.18873170881
0.4071044921875	0.00172332763671875	4472.40998370825
0.411529541015625	0.00172027587890625	4472.63123570769
0.41595458984375	0.001717529296875	4472.85248770713
0.420379638671875	0.00171417236328125	4473.07373970657
0.4248046875	0.00171234130859375	4473.29499170602
0.429229736328125	0.00170928955078125	4473.51624370546
0.43365478515625	0.0017071533203125	4473.7374957049
0.438079833984375	0.0017047119140625	4473.95874770434
0.4425048828125	0.00170257568359375	4474.17999970378
0.446929931640625	0.001700439453125	4474.40125170322
0.45135498046875	0.001697998046875	4474.62250370266
0.455780029296875	0.00169647216796875	4474.84375570211
0.460205078125	0.0016943359375	4475.06500770155
0.464630126953125	0.00169281005859375	4475.28625970099
0.46905517578125	0.00169158935546875	4475.50751170043
0.473480224609375	0.001689453125	4475.72876369987
0.4779052734375	0.0016888427734375	4475.95001569931
0.482330322265625	0.00168701171875	4476.17126769875
0.48675537109375	0.00168609619140625	4476.3925196982
0.491180419921875	0.00168548583984375	4476.61377169764
0.49560546875	0.0016845703125	4476.83502369708
0.500030517578125	0.0016845703125	4477.05627569652
0.50445556640625	0.00168365478515625	4477.27752769596
0.508880615234375	0.001683349609375	4477.4987796954
0.5133056640625	0.00168304443359375	4477.72003169484
0.517730712890625	0.0016827392578125	4477.94128369428
0.52215576171875	0.00168365478515625	4478.16253569373
0.526580810546875	0.00168304443359375	4478.38378769317
0.531005859375	0.00168365478515625	4478.60503969261
0.535430908203125	0.0016839599609375	4478.82629169205
0.53985595703125	0.00168365478515625	4479.04754369149
0.544281005859375	0.00168487548828125	4479.26879569093
0.5487060546875	0.00168426513671875	4479.49004769037
0.553131103515625	0.0016851806640625	4479.71129968982
0.55755615234375	0.0016864013671875	4479.93255168926
0.561981201171875	0.00168731689453125	4480.1538036887
0.56640625	0.001688232421875	4480.37505568814
0.570831298828125	0.00168975830078125	4480.59630768758
0.57525634765625	0.0016912841796875	4480.81755968702
0.579681396484375	0.00169219970703125	4481.03881168646
0.5841064453125	0.00169403076171875	4481.26006368591
0.588531494140625	0.00169464111328125	4481.48131568535
0.59295654296875	0.0016961669921875	4481.70256768479
0.597381591796875	0.00169891357421875	4481.92381968423
0.601806640625	0.00170074462890625	4482.14507168367
0.606231689453125	0.00170318603515625	4482.36632368311
0.61065673828125	0.00170562744140625	4482.58757568255
0.615081787109375	0.00170806884765625	4482.808827682
0.6195068359375	0.00171051025390625	4483.03007968144
0.623931884765625	0.0017132568359375	4483.25133168088
0.62835693359375	0.00171905517578125	4483.47258368032
0.632781982421875	0.00172149658203125	4483.69383567976
0.63720703125	0.0017236328125	4483.9150876792
0.641632080078125	0.00172698974609375	4484.13633967864
0.64605712890625	0.001729736328125	4484.35759167809
0.650482177734375	0.0017327880859375	4484.57884367753
0.6549072265625	0.00173583984375	4484.80009567697
0.659332275390625	0.001739501953125	4485.02134767641
0.66375732421875	0.00174407958984375	4485.24259967585
0.668182373046875	0.0017474365234375	4485.46385167529
0.672607421875	0.001751708984375	4485.68510367473
0.677032470703125	0.00175537109375	4485.90635567417
0.68145751953125	0.00175933837890625	4486.12760767362
0.685882568359375	0.00176422119140625	4486.34885967306
0.6903076171875	0.00176849365234375	4486.5701116725
0.694732666015625	0.00177398681640625	4486.79136367194
0.69915771484375	0.001778564453125	4487.01261567138
0.703582763671875	0.00178253173828125	4487.23386767082
0.7080078125	0.0017889404296875	4487.45511967027
0.712432861328125	0.0017938232421875	4487.67637166971
0.71685791015625	0.0017999267578125	4487.89762366915
0.721282958984375	0.001805419921875	4488.11887566859
0.7257080078125	0.00181121826171875	4488.34012766803
0.730133056640625	0.00181732177734375	4488.56137966747
0.73455810546875	0.00182281494140625	4488.78263166691
0.738983154296875	0.00183013916015625	4489.00388366635
0.743408203125	0.0018353271484375	4489.2251356658
0.747833251953125	0.0018426513671875	4489.44638766524
0.75225830078125	0.0018499755859375	4489.66763966468
0.756683349609375	0.00185699462890625	4489.88889166412
0.7611083984375	0.001865234375	4490.11014366356
0.765533447265625	0.00187255859375	4490.331395663
0.76995849609375	0.001881103515625	4490.55264766244
0.774383544921875	0.0018890380859375	4490.77389966189
0.77880859375	0.00189788818359375	4490.99515166133
0.783233642578125	0.00190704345703125	4491.21640366077
0.78765869140625	0.00191619873046875	4491.43765566021
0.792083740234375	0.00192626953125	4491.65890765965
0.7965087890625	0.00193603515625	4491.88015965909
0.800933837890625	0.0019464111328125	4492.10141165853
0.80535888671875	0.0019573974609375	4492.32266365798
0.809783935546875	0.0019683837890625	4492.54391565742
0.814208984375	0.00198028564453125	4492.76516765686
0.818634033203125	0.0019921875	4492.9864196563
0.82305908203125	0.00200469970703125	4493.20767165574
0.827484130859375	0.0020184326171875	4493.42892365518
0.8319091796875	0.00203094482421875	4493.65017565462
0.836334228515625	0.00204559326171875	4493.87142765406
0.84075927734375	0.00206024169921875	4494.09267965351
0.845184326171875	0.00207550048828125	4494.31393165295
0.849609375	0.00209136962890625	4494.53518365239
0.854034423828125	0.00210784912109375	4494.75643565183
0.85845947265625	0.0021258544921875	4494.97768765127
0.862884521484375	0.00214263916015625	4495.19893965071
0.8673095703125	0.002161865234375	4495.42019165016
0.871734619140625	0.0021820068359375	4495.6414436496
0.87615966796875	0.00220184326171875	4495.86269564904
0.880584716796875	0.00222442626953125	4496.08394764848
0.885009765625	0.00224639892578125	4496.30519964792
0.889434814453125	0.0022705078125	4496.52645164736
0.89385986328125	0.00229522705078125	4496.7477036468
0.898284912109375	0.00232147216796875	4496.96895564624
0.9027099609375	0.00234832763671875	4497.19020764569
0.907135009765625	0.00237579345703125	4497.41145964513
0.91156005859375	0.0024066162109375	4497.63271164457
0.915985107421875	0.0024371337890625	4497.85396364401
0.92041015625	0.002469482421875	4498.07521564345
0.924835205078125	0.00250457763671875	4498.29646764289
0.92926025390625	0.00253997802734375	4498.51771964233
0.933685302734375	0.00257843017578125	4498.73897164178
0.9381103515625	0.00261993408203125	4498.96022364122
0.942535400390625	0.0026617431640625	4499.18147564066
0.94696044921875	0.002706298828125	4499.4027276401
0.951385498046875	0.0027520751953125	4499.62397963954
0.955810546875	0.00280181884765625	4499.84523163898
0.960235595703125	0.0028533935546875	4500.06648363842
0.96466064453125	0.0029083251953125	4500.28773563787
0.969085693359375	0.00296630859375	4500.50898763731
0.9735107421875	0.0030267333984375	4500.73023963675
0.977935791015625	0.00309051513671875	4500.95149163619
0.98236083984375	0.0031585693359375	4501.17274363563
0.986785888671875	0.003231201171875	4501.39399563507
0.9912109375	0.00330780029296875	4501.61524763451
