Potential applied (V)	WE(1).Current (A)	Time (s)
0.004425048828125	-0.082379150390625	4644.67494227332
0.00885009765625	-0.075616455078125	4644.71919227321
0.013275146484375	-0.0703460693359375	4644.7634422731
0.0177001953125	-0.065753173828125	4644.80769227299
0.022125244140625	-0.06153564453125	4644.85194227288
0.02655029296875	-0.057806396484375	4644.89619227276
0.030975341796875	-0.0544219970703125	4644.94044227265
0.035400390625	-0.051324462890625	4644.98469227254
0.039825439453125	-0.0484710693359375	4645.02894227243
0.04425048828125	-0.0458526611328125	4645.07319227232
0.048675537109375	-0.0434051513671875	4645.11744227221
0.0531005859375	-0.0411407470703125	4645.16169227209
0.057525634765625	-0.03900146484375	4645.20594227198
0.06195068359375	-0.0369781494140625	4645.25019227187
0.066375732421875	-0.0350799560546875	4645.29444227176
0.07080078125	-0.0332855224609375	4645.33869227165
0.075225830078125	-0.0315826416015625	4645.38294227154
0.07965087890625	-0.029962158203125	4645.42719227142
0.084075927734375	-0.028436279296875	4645.47144227131
0.0885009765625	-0.026983642578125	4645.5156922712
0.092926025390625	-0.0256072998046875	4645.55994227109
0.09735107421875	-0.0243011474609375	4645.60419227098
0.101776123046875	-0.02305908203125	4645.64844227087
0.106201171875	-0.0218658447265625	4645.69269227075
0.110626220703125	-0.020721435546875	4645.73694227064
0.11505126953125	-0.0196319580078125	4645.78119227053
0.119476318359375	-0.018585205078125	4645.82544227042
0.1239013671875	-0.0175811767578125	4645.86969227031
0.128326416015625	-0.016619873046875	4645.91394227019
0.13275146484375	-0.0156951904296875	4645.95819227008
0.137176513671875	-0.0148162841796875	4646.00244226997
0.1416015625	-0.01397705078125	4646.04669226986
0.146026611328125	-0.0131622314453125	4646.09094226975
0.15045166015625	-0.012384033203125	4646.13519226964
0.154876708984375	-0.0116363525390625	4646.17944226952
0.1593017578125	-0.010919189453125	4646.22369226941
0.163726806640625	-0.0102203369140625	4646.2679422693
0.16815185546875	-0.009552001953125	4646.31219226919
0.172576904296875	-0.008905029296875	4646.35644226908
0.177001953125	-0.008282470703125	4646.40069226897
0.181427001953125	-0.0076812744140625	4646.44494226885
0.18585205078125	-0.0071044921875	4646.48919226874
0.190277099609375	-0.006549072265625	4646.53344226863
0.1947021484375	-0.006011962890625	4646.57769226852
0.199127197265625	-0.0054931640625	4646.62194226841
0.20355224609375	-0.0049957275390625	4646.6661922683
0.207977294921875	-0.00451751708984375	4646.71044226818
0.21240234375	-0.004052734375	4646.75469226807
0.216827392578125	-0.00360382080078125	4646.79894226796
0.22125244140625	-0.00316986083984375	4646.84319226785
0.225677490234375	-0.002762451171875	4646.88744226774
0.2301025390625	-0.0023565673828125	4646.93169226763
0.234527587890625	-0.00196563720703125	4646.97594226751
0.23895263671875	-0.00158660888671875	4647.0201922674
0.243377685546875	-0.0012213134765625	4647.06444226729
0.247802734375	-0.000867919921875	4647.10869226718
0.252227783203125	-0.0005267333984375	4647.15294226707
0.25665283203125	-0.00019708251953125	4647.19719226695
0.261077880859375	0.000121734619140625	4647.24144226684
0.2655029296875	0.000430023193359375	4647.28569226673
0.269927978515625	0.00072906494140625	4647.32994226662
0.27435302734375	0.0010174560546875	4647.37419226651
0.278778076171875	0.00129608154296875	4647.4184422664
0.283203125	0.00156494140625	4647.46269226628
0.287628173828125	0.00182464599609375	4647.50694226617
0.29205322265625	0.00207611083984375	4647.55119226606
0.296478271484375	0.00232086181640625	4647.59544226595
0.3009033203125	0.002554931640625	4647.63969226584
0.305328369140625	0.0027801513671875	4647.68394226573
0.30975341796875	0.00299591064453125	4647.72819226561
0.314178466796875	0.00320831298828125	4647.7724422655
0.318603515625	0.00340911865234375	4647.81669226539
0.323028564453125	0.00360382080078125	4647.86094226528
0.32745361328125	0.00379119873046875	4647.90519226517
0.331878662109375	0.00397216796875	4647.94944226506
0.3363037109375	0.00414794921875	4647.99369226494
0.340728759765625	0.0043145751953125	4648.03794226483
0.34515380859375	0.00447723388671875	4648.08219226472
0.349578857421875	0.004632568359375	4648.12644226461
0.35400390625	0.00478118896484375	4648.1706922645
0.358428955078125	0.0049267578125	4648.21494226439
0.36285400390625	0.00506683349609375	4648.25919226427
0.367279052734375	0.00520599365234375	4648.30344226416
0.3717041015625	0.00534027099609375	4648.34769226405
0.376129150390625	0.005465087890625	4648.39194226394
0.38055419921875	0.00558349609375	4648.43619226383
0.384979248046875	0.00569610595703125	4648.48044226372
0.389404296875	0.005804443359375	4648.5246922636
0.393829345703125	0.00590728759765625	4648.56894226349
0.39825439453125	0.00600616455078125	4648.61319226338
0.402679443359375	0.0060943603515625	4648.65744226327
0.4071044921875	0.0061859130859375	4648.70169226316
0.411529541015625	0.0062744140625	4648.74594226304
0.41595458984375	0.006365966796875	4648.79019226293
0.420379638671875	0.006451416015625	4648.83444226282
0.4248046875	0.0065338134765625	4648.87869226271
0.429229736328125	0.0066131591796875	4648.9229422626
0.43365478515625	0.0066864013671875	4648.96719226249
0.438079833984375	0.006756591796875	4649.01144226237
0.4425048828125	0.0068206787109375	4649.05569226226
0.446929931640625	0.006884765625	4649.09994226215
0.45135498046875	0.00694580078125	4649.14419226204
0.455780029296875	0.007000732421875	4649.18844226193
0.460205078125	0.0070526123046875	4649.23269226182
0.464630126953125	0.0071044921875	4649.2769422617
0.46905517578125	0.0071533203125	4649.32119226159
0.473480224609375	0.0072052001953125	4649.36544226148
0.4779052734375	0.0072509765625	4649.40969226137
0.482330322265625	0.0072967529296875	4649.45394226126
0.48675537109375	0.0073486328125	4649.49819226115
0.491180419921875	0.007391357421875	4649.54244226103
0.49560546875	0.007427978515625	4649.58669226092
0.500030517578125	0.007464599609375	4649.63094226081
0.50445556640625	0.007501220703125	4649.6751922607
0.508880615234375	0.00753173828125	4649.71944226059
0.5133056640625	0.0075592041015625	4649.76369226048
0.517730712890625	0.00758056640625	4649.80794226036
0.52215576171875	0.0076080322265625	4649.85219226025
0.526580810546875	0.0076416015625	4649.89644226014
0.531005859375	0.0076751708984375	4649.94069226003
0.535430908203125	0.007708740234375	4649.98494225992
0.53985595703125	0.007733154296875	4650.0291922598
0.544281005859375	0.0077545166015625	4650.07344225969
0.5487060546875	0.0077728271484375	4650.11769225958
0.553131103515625	0.0077880859375	4650.16194225947
0.55755615234375	0.007806396484375	4650.20619225936
0.561981201171875	0.0078216552734375	4650.25044225925
0.56640625	0.0078338623046875	4650.29469225913
0.570831298828125	0.00784912109375	4650.33894225902
0.57525634765625	0.007861328125	4650.38319225891
0.579681396484375	0.0078765869140625	4650.4274422588
0.5841064453125	0.007891845703125	4650.47169225869
0.588531494140625	0.007904052734375	4650.51594225858
0.59295654296875	0.007916259765625	4650.56019225846
0.597381591796875	0.0079254150390625	4650.60444225835
0.601806640625	0.007940673828125	4650.64869225824
0.606231689453125	0.00794677734375	4650.69294225813
0.61065673828125	0.007952880859375	4650.73719225802
0.615081787109375	0.007958984375	4650.78144225791
0.6195068359375	0.007965087890625	4650.82569225779
0.623931884765625	0.00797119140625	4650.86994225768
0.62835693359375	0.0079833984375	4650.91419225757
0.632781982421875	0.0079925537109375	4650.95844225746
0.63720703125	0.0079986572265625	4651.00269225735
0.641632080078125	0.008001708984375	4651.04694225724
0.64605712890625	0.0080078125	4651.09119225712
0.650482177734375	0.0080108642578125	4651.13544225701
0.6549072265625	0.0080169677734375	4651.1796922569
0.659332275390625	0.00802001953125	4651.22394225679
0.66375732421875	0.0080230712890625	4651.26819225668
0.668182373046875	0.008026123046875	4651.31244225657
0.672607421875	0.008026123046875	4651.35669225645
0.677032470703125	0.0080291748046875	4651.40094225634
0.68145751953125	0.0080352783203125	4651.44519225623
0.685882568359375	0.008038330078125	4651.48944225612
0.6903076171875	0.00804443359375	4651.53369225601
0.694732666015625	0.0080474853515625	4651.57794225589
0.69915771484375	0.0080535888671875	4651.62219225578
0.703582763671875	0.008050537109375	4651.66644225567
0.7080078125	0.008056640625	4651.71069225556
0.712432861328125	0.008056640625	4651.75494225545
0.71685791015625	0.008056640625	4651.79919225534
0.721282958984375	0.008056640625	4651.84344225522
0.7257080078125	0.008056640625	4651.88769225511
0.730133056640625	0.0080596923828125	4651.931942255
0.73455810546875	0.0080596923828125	4651.97619225489
0.738983154296875	0.008062744140625	4652.02044225478
0.743408203125	0.0080657958984375	4652.06469225467
0.747833251953125	0.00806884765625	4652.10894225455
0.75225830078125	0.008074951171875	4652.15319225444
0.756683349609375	0.0080780029296875	4652.19744225433
0.7611083984375	0.0080810546875	4652.24169225422
0.765533447265625	0.0080810546875	4652.28594225411
0.76995849609375	0.0080841064453125	4652.330192254
0.774383544921875	0.008087158203125	4652.37444225388
0.77880859375	0.008087158203125	4652.41869225377
0.783233642578125	0.0080902099609375	4652.46294225366
0.78765869140625	0.00809326171875	4652.50719225355
0.792083740234375	0.008099365234375	4652.55144225344
0.7965087890625	0.00810546875	4652.59569225333
0.800933837890625	0.008111572265625	4652.63994225321
0.80535888671875	0.0081146240234375	4652.6841922531
0.809783935546875	0.0081207275390625	4652.72844225299
0.814208984375	0.008123779296875	4652.77269225288
0.818634033203125	0.0081298828125	4652.81694225277
0.82305908203125	0.008135986328125	4652.86119225265
0.827484130859375	0.0081390380859375	4652.90544225254
0.8319091796875	0.0081451416015625	4652.94969225243
0.836334228515625	0.008154296875	4652.99394225232
0.84075927734375	0.008160400390625	4653.03819225221
0.845184326171875	0.0081695556640625	4653.0824422521
0.849609375	0.0081756591796875	4653.12669225198
0.854034423828125	0.0081878662109375	4653.17094225187
0.85845947265625	0.008197021484375	4653.21519225176
0.862884521484375	0.0082061767578125	4653.25944225165
0.8673095703125	0.0082183837890625	4653.30369225154
0.871734619140625	0.0082275390625	4653.34794225143
0.87615966796875	0.00823974609375	4653.39219225131
0.880584716796875	0.008251953125	4653.4364422512
0.885009765625	0.00826416015625	4653.48069225109
0.889434814453125	0.0082794189453125	4653.52494225098
0.89385986328125	0.008294677734375	4653.56919225087
0.898284912109375	0.0083099365234375	4653.61344225076
0.9027099609375	0.0083251953125	4653.65769225064
0.907135009765625	0.0083465576171875	4653.70194225053
0.91156005859375	0.0083648681640625	4653.74619225042
0.915985107421875	0.00838623046875	4653.79044225031
0.92041015625	0.0084075927734375	4653.8346922502
0.924835205078125	0.008428955078125	4653.87894225008
0.92926025390625	0.0084503173828125	4653.92319224997
0.933685302734375	0.0084747314453125	4653.96744224986
0.9381103515625	0.008502197265625	4654.01169224975
0.942535400390625	0.008526611328125	4654.05594224964
0.94696044921875	0.00855712890625	4654.10019224953
0.951385498046875	0.0085845947265625	4654.14444224942
0.955810546875	0.0086151123046875	4654.1886922493
0.960235595703125	0.0086517333984375	4654.23294224919
0.96466064453125	0.0086883544921875	4654.27719224908
0.969085693359375	0.0087249755859375	4654.32144224897
0.9735107421875	0.0087615966796875	4654.36569224886
0.977935791015625	0.0087982177734375	4654.40994224874
0.98236083984375	0.008837890625	4654.45419224863
0.986785888671875	0.0088836669921875	4654.49844224852
0.9912109375	0.008929443359375	4654.54269224841
0.995635986328125	0.0089752197265625	4654.5869422483
1.00006103515625	0.009027099609375	4654.63119224819
0.995635986328125	0.0083221435546875	4654.67544224807
0.9912109375	0.0076751708984375	4654.71969224796
0.986785888671875	0.007061767578125	4654.76394224785
0.98236083984375	0.0064849853515625	4654.80819224774
0.977935791015625	0.005938720703125	4654.85244224763
0.9735107421875	0.0054168701171875	4654.89669224752
0.969085693359375	0.004918212890625	4654.9409422474
0.96466064453125	0.00444122314453125	4654.98519224729
0.960235595703125	0.0039837646484375	4655.02944224718
0.955810546875	0.00354736328125	4655.07369224707
0.951385498046875	0.0031268310546875	4655.11794224696
0.94696044921875	0.002725830078125	4655.16219224685
0.942535400390625	0.00233673095703125	4655.20644224673
0.9381103515625	0.001962890625	4655.25069224662
0.933685302734375	0.0016009521484375	4655.29494224651
0.92926025390625	0.0012548828125	4655.3391922464
0.924835205078125	0.0009210205078125	4655.38344224629
0.92041015625	0.0005987548828125	4655.42769224617
0.915985107421875	0.0002890625	4655.47194224606
0.91156005859375	-1.05621337890625E-05	4655.51619224595
0.907135009765625	-0.000298431396484375	4655.56044224584
0.9027099609375	-0.00057647705078125	4655.60469224573
0.898284912109375	-0.00084442138671875	4655.64894224562
0.89385986328125	-0.0011029052734375	4655.6931922455
0.889434814453125	-0.0013525390625	4655.73744224539
0.885009765625	-0.001593017578125	4655.78169224528
0.880584716796875	-0.0018255615234375	4655.82594224517
0.87615966796875	-0.002049560546875	4655.87019224506
0.871734619140625	-0.00226593017578125	4655.91444224495
0.8673095703125	-0.00247344970703125	4655.95869224483
0.862884521484375	-0.00267333984375	4656.00294224472
0.85845947265625	-0.002864990234375	4656.04719224461
0.854034423828125	-0.00305023193359375	4656.0914422445
0.849609375	-0.00322845458984375	4656.13569224439
0.845184326171875	-0.0033984375	4656.17994224428
0.84075927734375	-0.003563232421875	4656.22419224416
0.836334228515625	-0.00372161865234375	4656.26844224405
0.8319091796875	-0.00387542724609375	4656.31269224394
0.827484130859375	-0.004022216796875	4656.35694224383
0.82305908203125	-0.00416473388671875	4656.40119224372
0.818634033203125	-0.00430084228515625	4656.44544224361
0.814208984375	-0.0044305419921875	4656.48969224349
0.809783935546875	-0.00455535888671875	4656.53394224338
0.80535888671875	-0.0046746826171875	4656.57819224327
0.800933837890625	-0.00478973388671875	4656.62244224316
0.7965087890625	-0.0048992919921875	4656.66669224305
0.792083740234375	-0.0050048828125	4656.71094224293
0.78765869140625	-0.00510467529296875	4656.75519224282
0.783233642578125	-0.00520294189453125	4656.79944224271
0.77880859375	-0.00529693603515625	4656.8436922426
0.774383544921875	-0.0053875732421875	4656.88794224249
0.76995849609375	-0.0054742431640625	4656.93219224238
0.765533447265625	-0.00555816650390625	4656.97644224226
0.7611083984375	-0.0056390380859375	4657.02069224215
0.756683349609375	-0.005714111328125	4657.06494224204
0.75225830078125	-0.00578704833984375	4657.10919224193
0.747833251953125	-0.00585784912109375	4657.15344224182
0.743408203125	-0.0059228515625	4657.19769224171
0.738983154296875	-0.00598663330078125	4657.24194224159
0.73455810546875	-0.0060491943359375	4657.28619224148
0.730133056640625	-0.00609130859375	4657.33044224137
0.7257080078125	-0.0061431884765625	4657.37469224126
0.721282958984375	-0.0062042236328125	4657.41894224115
0.71685791015625	-0.0062591552734375	4657.46319224104
0.712432861328125	-0.00631103515625	4657.50744224092
0.7080078125	-0.006365966796875	4657.55169224081
0.703582763671875	-0.0064117431640625	4657.5959422407
0.69915771484375	-0.00645751953125	4657.64019224059
0.694732666015625	-0.0065032958984375	4657.68444224048
0.6903076171875	-0.0065460205078125	4657.72869224037
0.685882568359375	-0.0065887451171875	4657.77294224025
0.68145751953125	-0.00662841796875	4657.81719224014
0.677032470703125	-0.006671142578125	4657.86144224003
0.672607421875	-0.0067169189453125	4657.90569223992
0.668182373046875	-0.006756591796875	4657.94994223981
0.66375732421875	-0.0067962646484375	4657.9941922397
0.659332275390625	-0.0068328857421875	4658.03844223958
0.6549072265625	-0.0068695068359375	4658.08269223947
0.650482177734375	-0.0069061279296875	4658.12694223936
0.64605712890625	-0.006939697265625	4658.17119223925
0.641632080078125	-0.0069732666015625	4658.21544223914
0.63720703125	-0.0070068359375	4658.25969223902
0.632781982421875	-0.007037353515625	4658.30394223891
0.62835693359375	-0.0070709228515625	4658.3481922388
0.623931884765625	-0.0071044921875	4658.39244223869
0.6195068359375	-0.0071380615234375	4658.43669223858
0.615081787109375	-0.0071685791015625	4658.48094223847
0.61065673828125	-0.0072021484375	4658.52519223835
0.606231689453125	-0.007232666015625	4658.56944223824
0.601806640625	-0.00726318359375	4658.61369223813
0.597381591796875	-0.0072906494140625	4658.65794223802
0.59295654296875	-0.0073211669921875	4658.70219223791
0.588531494140625	-0.0073455810546875	4658.7464422378
0.5841064453125	-0.007366943359375	4658.79069223768
0.579681396484375	-0.0073699951171875	4658.83494223757
0.57525634765625	-0.0074005126953125	4658.87919223746
0.570831298828125	-0.007427978515625	4658.92344223735
0.56640625	-0.00745849609375	4658.96769223724
0.561981201171875	-0.0074859619140625	4659.01194223713
0.55755615234375	-0.007513427734375	4659.05619223701
0.553131103515625	-0.007537841796875	4659.1004422369
0.5487060546875	-0.007562255859375	4659.14469223679
0.544281005859375	-0.0075836181640625	4659.18894223668
0.53985595703125	-0.0076080322265625	4659.23319223657
0.535430908203125	-0.0076324462890625	4659.27744223646
0.531005859375	-0.0076568603515625	4659.32169223634
0.526580810546875	-0.00767822265625	4659.36594223623
0.52215576171875	-0.0076995849609375	4659.41019223612
0.517730712890625	-0.0077239990234375	4659.45444223601
0.5133056640625	-0.007745361328125	4659.4986922359
0.508880615234375	-0.007769775390625	4659.54294223578
0.50445556640625	-0.0077911376953125	4659.58719223567
0.500030517578125	-0.0078155517578125	4659.63144223556
0.49560546875	-0.0078369140625	4659.67569223545
0.491180419921875	-0.0078582763671875	4659.71994223534
0.48675537109375	-0.0078826904296875	4659.76419223523
0.482330322265625	-0.0079010009765625	4659.80844223511
0.4779052734375	-0.0079254150390625	4659.852692235
0.473480224609375	-0.00794677734375	4659.89694223489
0.46905517578125	-0.007965087890625	4659.94119223478
0.464630126953125	-0.0079864501953125	4659.98544223467
0.460205078125	-0.0080108642578125	4660.02969223456
0.455780029296875	-0.0080322265625	4660.07394223444
0.45135498046875	-0.008056640625	4660.11819223433
0.446929931640625	-0.0080780029296875	4660.16244223422
0.4425048828125	-0.008099365234375	4660.20669223411
0.438079833984375	-0.0081207275390625	4660.250942234
0.43365478515625	-0.00814208984375	4660.29519223389
0.429229736328125	-0.0081634521484375	4660.33944223377
0.4248046875	-0.0081817626953125	4660.38369223366
0.420379638671875	-0.008203125	4660.42794223355
0.41595458984375	-0.008221435546875	4660.47219223344
0.411529541015625	-0.0082427978515625	4660.51644223333
0.4071044921875	-0.00826416015625	4660.56069223322
0.402679443359375	-0.0082855224609375	4660.6049422331
0.39825439453125	-0.0083038330078125	4660.64919223299
0.393829345703125	-0.0083251953125	4660.69344223288
0.389404296875	-0.0083465576171875	4660.73769223277
0.384979248046875	-0.008367919921875	4660.78194223266
0.38055419921875	-0.00838623046875	4660.82619223255
0.376129150390625	-0.0084075927734375	4660.87044223243
0.3717041015625	-0.0084259033203125	4660.91469223232
0.367279052734375	-0.008447265625	4660.95894223221
0.36285400390625	-0.008465576171875	4661.0031922321
0.358428955078125	-0.00848388671875	4661.04744223199
0.35400390625	-0.0085052490234375	4661.09169223187
0.349578857421875	-0.0085235595703125	4661.13594223176
0.34515380859375	-0.008544921875	4661.18019223165
0.340728759765625	-0.0085662841796875	4661.22444223154
0.3363037109375	-0.008587646484375	4661.26869223143
0.331878662109375	-0.00860595703125	4661.31294223132
0.32745361328125	-0.0086273193359375	4661.3571922312
0.323028564453125	-0.008648681640625	4661.40144223109
0.318603515625	-0.0086669921875	4661.44569223098
0.314178466796875	-0.008685302734375	4661.48994223087
0.30975341796875	-0.008709716796875	4661.53419223076
0.305328369140625	-0.00872802734375	4661.57844223065
0.3009033203125	-0.0087493896484375	4661.62269223053
0.296478271484375	-0.008770751953125	4661.66694223042
0.29205322265625	-0.0087921142578125	4661.71119223031
0.287628173828125	-0.0088165283203125	4661.7554422302
0.283203125	-0.0088348388671875	4661.79969223009
0.278778076171875	-0.0088592529296875	4661.84394222998
0.27435302734375	-0.0088775634765625	4661.88819222986
0.269927978515625	-0.0089019775390625	4661.93244222975
0.2655029296875	-0.0089202880859375	4661.97669222964
0.261077880859375	-0.008941650390625	4662.02094222953
0.25665283203125	-0.0089630126953125	4662.06519222942
0.252227783203125	-0.0089874267578125	4662.10944222931
0.247802734375	-0.0090087890625	4662.15369222919
0.243377685546875	-0.0090301513671875	4662.19794222908
0.23895263671875	-0.0090545654296875	4662.24219222897
0.234527587890625	-0.00908203125	4662.28644222886
0.2301025390625	-0.0091033935546875	4662.33069222875
0.225677490234375	-0.0091278076171875	4662.37494222863
0.22125244140625	-0.009149169921875	4662.41919222852
0.216827392578125	-0.009173583984375	4662.46344222841
0.21240234375	-0.0091949462890625	4662.5076922283
0.207977294921875	-0.0092193603515625	4662.55194222819
0.20355224609375	-0.00924072265625	4662.59619222808
0.199127197265625	-0.00926513671875	4662.64044222796
0.1947021484375	-0.0092926025390625	4662.68469222785
0.190277099609375	-0.0093170166015625	4662.72894222774
0.18585205078125	-0.009344482421875	4662.77319222763
0.181427001953125	-0.009368896484375	4662.81744222752
0.177001953125	-0.0093963623046875	4662.86169222741
0.172576904296875	-0.009423828125	4662.90594222729
0.16815185546875	-0.0094482421875	4662.95019222718
0.163726806640625	-0.0094757080078125	4662.99444222707
0.1593017578125	-0.009503173828125	4663.03869222696
0.154876708984375	-0.009527587890625	4663.08294222685
0.15045166015625	-0.0095550537109375	4663.12719222674
0.146026611328125	-0.00958251953125	4663.17144222662
0.1416015625	-0.009613037109375	4663.21569222651
0.137176513671875	-0.0096405029296875	4663.2599422264
0.13275146484375	-0.009674072265625	4663.30419222629
0.128326416015625	-0.0097076416015625	4663.34844222618
0.1239013671875	-0.0097381591796875	4663.39269222607
0.119476318359375	-0.0097686767578125	4663.43694222595
0.11505126953125	-0.0097991943359375	4663.48119222584
0.110626220703125	-0.0098297119140625	4663.52544222573
0.106201171875	-0.00986328125	4663.56969222562
0.101776123046875	-0.009893798828125	4663.61394222551
0.09735107421875	-0.00992431640625	4663.6581922254
0.092926025390625	-0.0099578857421875	4663.70244222528
0.0885009765625	-0.009991455078125	4663.74669222517
0.084075927734375	-0.010028076171875	4663.79094222506
0.07965087890625	-0.0100677490234375	4663.83519222495
0.075225830078125	-0.010101318359375	4663.87944222484
0.07080078125	-0.010137939453125	4663.92369222472
0.066375732421875	-0.010174560546875	4663.96794222461
0.06195068359375	-0.010211181640625	4664.0121922245
0.057525634765625	-0.010247802734375	4664.05644222439
0.0531005859375	-0.0102874755859375	4664.10069222428
0.048675537109375	-0.0103240966796875	4664.14494222417
0.04425048828125	-0.01036376953125	4664.18919222405
0.039825439453125	-0.010400390625	4664.23344222394
0.035400390625	-0.0104400634765625	4664.27769222383
0.030975341796875	-0.010479736328125	4664.32194222372
0.02655029296875	-0.0105194091796875	4664.36619222361
0.022125244140625	-0.0105621337890625	4664.4104422235
0.0177001953125	-0.010601806640625	4664.45469222338
0.013275146484375	-0.01064453125	4664.49894222327
0.00885009765625	-0.010687255859375	4664.54319222316
0.004425048828125	-0.0107269287109375	4664.58744222305
0	-0.0107696533203125	4664.63169222294
0.004425048828125	-0.0100433349609375	4664.67594222283
0.00885009765625	-0.00936279296875	4664.72019222271
0.013275146484375	-0.0087127685546875	4664.7644422226
0.0177001953125	-0.00809326171875	4664.80869222249
0.022125244140625	-0.007501220703125	4664.85294222238
0.02655029296875	-0.0069305419921875	4664.89719222227
0.030975341796875	-0.0063812255859375	4664.94144222216
0.035400390625	-0.005853271484375	4664.98569222204
0.039825439453125	-0.0053436279296875	4665.02994222193
0.04425048828125	-0.00485260009765625	4665.07419222182
0.048675537109375	-0.00437591552734375	4665.11844222171
0.0531005859375	-0.0039154052734375	4665.1626922216
0.057525634765625	-0.0034698486328125	4665.20694222148
0.06195068359375	-0.00303924560546875	4665.25119222137
0.066375732421875	-0.002633056640625	4665.29544222126
0.07080078125	-0.002227783203125	4665.33969222115
0.075225830078125	-0.00183563232421875	4665.38394222104
0.07965087890625	-0.00145660400390625	4665.42819222093
0.084075927734375	-0.0010888671875	4665.47244222081
0.0885009765625	-0.0007318115234375	4665.5166922207
0.092926025390625	-0.000385772705078125	4665.56094222059
0.09735107421875	-4.96826171875E-05	4665.60519222048
0.101776123046875	0.000276031494140625	4665.64944222037
0.106201171875	0.00059295654296875	4665.69369222026
0.110626220703125	0.00090057373046875	4665.73794222014
0.11505126953125	0.00119903564453125	4665.78219222003
0.119476318359375	0.00148681640625	4665.82644221992
0.1239013671875	0.001767578125	4665.87069221981
0.128326416015625	0.00204071044921875	4665.9149422197
0.13275146484375	0.002308349609375	4665.95919221959
0.137176513671875	0.0025665283203125	4666.00344221947
0.1416015625	0.0028155517578125	4666.04769221936
0.146026611328125	0.00305419921875	4666.09194221925
0.15045166015625	0.00328521728515625	4666.13619221914
0.154876708984375	0.0035089111328125	4666.18044221903
0.1593017578125	0.0037249755859375	4666.22469221892
0.163726806640625	0.0039349365234375	4666.2689422188
0.16815185546875	0.00413909912109375	4666.31319221869
0.172576904296875	0.004337158203125	4666.35744221858
0.177001953125	0.00452850341796875	4666.40169221847
0.181427001953125	0.00471435546875	4666.44594221836
0.18585205078125	0.00489410400390625	4666.49019221825
0.190277099609375	0.005069580078125	4666.53444221813
0.1947021484375	0.00523895263671875	4666.57869221802
0.199127197265625	0.00540252685546875	4666.62294221791
0.20355224609375	0.00556304931640625	4666.6671922178
0.207977294921875	0.0057183837890625	4666.71144221769
0.21240234375	0.00586639404296875	4666.75569221757
0.216827392578125	0.00600830078125	4666.79994221746
0.22125244140625	0.006134033203125	4666.84419221735
0.225677490234375	0.0062652587890625	4666.88844221724
0.2301025390625	0.0063934326171875	4666.93269221713
0.234527587890625	0.006512451171875	4666.97694221702
0.23895263671875	0.0066314697265625	4667.0211922169
0.243377685546875	0.0067474365234375	4667.06544221679
0.247802734375	0.006854248046875	4667.10969221668
0.252227783203125	0.0069610595703125	4667.15394221657
0.25665283203125	0.007061767578125	4667.19819221646
0.261077880859375	0.0071563720703125	4667.24244221635
0.2655029296875	0.0072479248046875	4667.28669221623
0.269927978515625	0.00733642578125	4667.33094221612
0.27435302734375	0.0074188232421875	4667.37519221601
0.278778076171875	0.007501220703125	4667.4194422159
0.283203125	0.00758056640625	4667.46369221579
0.287628173828125	0.00765380859375	4667.50794221568
0.29205322265625	0.00772705078125	4667.55219221556
0.296478271484375	0.0077972412109375	4667.59644221545
0.3009033203125	0.007861328125	4667.64069221534
0.305328369140625	0.0079254150390625	4667.68494221523
0.30975341796875	0.0079925537109375	4667.72919221512
0.314178466796875	0.0080596923828125	4667.77344221501
0.318603515625	0.0081146240234375	4667.81769221489
0.323028564453125	0.00816650390625	4667.86194221478
0.32745361328125	0.00821533203125	4667.90619221467
0.331878662109375	0.008258056640625	4667.95044221456
0.3363037109375	0.00830078125	4667.99469221445
0.340728759765625	0.008343505859375	4668.03894221433
0.34515380859375	0.0083831787109375	4668.08319221422
0.349578857421875	0.0084197998046875	4668.12744221411
0.35400390625	0.008453369140625	4668.171692214
0.358428955078125	0.00848388671875	4668.21594221389
0.36285400390625	0.008514404296875	4668.26019221378
0.367279052734375	0.008538818359375	4668.30444221366
0.3717041015625	0.0085693359375	4668.34869221355
0.376129150390625	0.0085968017578125	4668.39294221344
0.38055419921875	0.008624267578125	4668.43719221333
0.384979248046875	0.0086456298828125	4668.48144221322
0.389404296875	0.008660888671875	4668.52569221311
0.393829345703125	0.0086761474609375	4668.56994221299
0.39825439453125	0.0086944580078125	4668.61419221288
0.402679443359375	0.0087127685546875	4668.65844221277
0.4071044921875	0.00872802734375	4668.70269221266
0.411529541015625	0.008740234375	4668.74694221255
0.41595458984375	0.008746337890625	4668.79119221243
0.420379638671875	0.00875244140625	4668.83544221232
0.4248046875	0.008758544921875	4668.87969221221
0.429229736328125	0.008770751953125	4668.9239422121
0.43365478515625	0.00877685546875	4668.96819221199
0.438079833984375	0.0087890625	4669.01244221188
0.4425048828125	0.0087982177734375	4669.05669221177
0.446929931640625	0.00880126953125	4669.10094221165
0.45135498046875	0.0088043212890625	4669.14519221154
0.455780029296875	0.008807373046875	4669.18944221143
0.460205078125	0.008807373046875	4669.23369221132
0.464630126953125	0.0088043212890625	4669.27794221121
0.46905517578125	0.0088043212890625	4669.3221922111
0.473480224609375	0.0088043212890625	4669.36644221098
0.4779052734375	0.00880126953125	4669.41069221087
0.482330322265625	0.0087982177734375	4669.45494221076
0.48675537109375	0.0087921142578125	4669.49919221065
0.491180419921875	0.0087890625	4669.54344221054
0.49560546875	0.008782958984375	4669.58769221042
0.500030517578125	0.0087799072265625	4669.63194221031
0.50445556640625	0.0087738037109375	4669.6761922102
0.508880615234375	0.008770751953125	4669.72044221009
0.5133056640625	0.0087646484375	4669.76469220998
0.517730712890625	0.008758544921875	4669.80894220987
0.52215576171875	0.0087493896484375	4669.85319220975
0.526580810546875	0.0087432861328125	4669.89744220964
0.531005859375	0.0087371826171875	4669.94169220953
0.535430908203125	0.00872802734375	4669.98594220942
0.53985595703125	0.0087188720703125	4670.03019220931
0.544281005859375	0.008709716796875	4670.0744422092
0.5487060546875	0.0087005615234375	4670.11869220908
0.553131103515625	0.00869140625	4670.16294220897
0.55755615234375	0.0086822509765625	4670.20719220886
0.561981201171875	0.0086761474609375	4670.25144220875
0.56640625	0.0086669921875	4670.29569220864
0.570831298828125	0.008660888671875	4670.33994220852
0.57525634765625	0.0086517333984375	4670.38419220841
0.579681396484375	0.008642578125	4670.4284422083
0.5841064453125	0.0086334228515625	4670.47269220819
0.588531494140625	0.0086212158203125	4670.51694220808
0.59295654296875	0.0086090087890625	4670.56119220797
0.597381591796875	0.0086029052734375	4670.60544220786
0.601806640625	0.0085906982421875	4670.64969220774
0.606231689453125	0.0085845947265625	4670.69394220763
0.61065673828125	0.008575439453125	4670.73819220752
0.615081787109375	0.0085693359375	4670.78244220741
0.6195068359375	0.0085601806640625	4670.8266922073
0.623931884765625	0.008551025390625	4670.87094220718
0.62835693359375	0.008551025390625	4670.91519220707
0.632781982421875	0.0085418701171875	4670.95944220696
0.63720703125	0.0085296630859375	4671.00369220685
0.641632080078125	0.0085235595703125	4671.04794220674
0.64605712890625	0.008514404296875	4671.09219220663
0.650482177734375	0.0085052490234375	4671.13644220651
0.6549072265625	0.00849609375	4671.1806922064
0.659332275390625	0.008489990234375	4671.22494220629
0.66375732421875	0.0084808349609375	4671.26919220618
0.668182373046875	0.0084747314453125	4671.31344220607
0.672607421875	0.0084686279296875	4671.35769220596
0.677032470703125	0.008465576171875	4671.40194220584
0.68145751953125	0.00845947265625	4671.44619220573
0.685882568359375	0.008453369140625	4671.49044220562
0.6903076171875	0.008447265625	4671.53469220551
0.694732666015625	0.008441162109375	4671.5789422054
0.69915771484375	0.0084320068359375	4671.62319220528
0.703582763671875	0.0084259033203125	4671.66744220517
0.7080078125	0.0084197998046875	4671.71169220506
0.712432861328125	0.008416748046875	4671.75594220495
0.71685791015625	0.00841064453125	4671.80019220484
0.721282958984375	0.0084075927734375	4671.84444220473
0.7257080078125	0.008404541015625	4671.88869220461
0.730133056640625	0.0084014892578125	4671.9329422045
0.73455810546875	0.0083984375	4671.97719220439
0.738983154296875	0.0083953857421875	4672.02144220428
0.743408203125	0.0083892822265625	4672.06569220417
0.747833251953125	0.00838623046875	4672.10994220406
0.75225830078125	0.0083831787109375	4672.15419220395
0.756683349609375	0.008380126953125	4672.19844220383
0.7611083984375	0.0083770751953125	4672.24269220372
0.765533447265625	0.008380126953125	4672.28694220361
0.76995849609375	0.0083770751953125	4672.3311922035
0.774383544921875	0.008380126953125	4672.37544220339
0.77880859375	0.0083770751953125	4672.41969220327
0.783233642578125	0.008380126953125	4672.46394220316
0.78765869140625	0.0083831787109375	4672.50819220305
0.792083740234375	0.0083831787109375	4672.55244220294
0.7965087890625	0.00838623046875	4672.59669220283
0.800933837890625	0.00838623046875	4672.64094220272
0.80535888671875	0.00838623046875	4672.6851922026
0.809783935546875	0.0083892822265625	4672.72944220249
0.814208984375	0.0083953857421875	4672.77369220238
0.818634033203125	0.0083984375	4672.81794220227
0.82305908203125	0.0084014892578125	4672.86219220216
0.827484130859375	0.008404541015625	4672.90644220205
0.8319091796875	0.00841064453125	4672.95069220193
0.836334228515625	0.0084197998046875	4672.99494220182
0.84075927734375	0.0084259033203125	4673.03919220171
0.845184326171875	0.00843505859375	4673.0834422016
0.849609375	0.0084442138671875	4673.12769220149
0.854034423828125	0.0084503173828125	4673.17194220137
0.85845947265625	0.00845947265625	4673.21619220126
0.862884521484375	0.0084686279296875	4673.26044220115
0.8673095703125	0.0084808349609375	4673.30469220104
0.871734619140625	0.0084930419921875	4673.34894220093
0.87615966796875	0.0085052490234375	4673.39319220082
0.880584716796875	0.0085174560546875	4673.4374422007
0.885009765625	0.00853271484375	4673.48169220059
0.889434814453125	0.008544921875	4673.52594220048
0.89385986328125	0.0085601806640625	4673.57019220037
0.898284912109375	0.0085784912109375	4673.61444220026
0.9027099609375	0.00859375	4673.65869220015
0.907135009765625	0.008612060546875	4673.70294220003
0.91156005859375	0.00863037109375	4673.74719219992
0.915985107421875	0.0086517333984375	4673.79144219981
0.92041015625	0.008673095703125	4673.8356921997
0.924835205078125	0.0086944580078125	4673.87994219959
0.92926025390625	0.0087188720703125	4673.92419219948
0.933685302734375	0.0087432861328125	4673.96844219936
0.9381103515625	0.0087677001953125	4674.01269219925
0.942535400390625	0.008795166015625	4674.05694219914
0.94696044921875	0.00882568359375	4674.10119219903
0.951385498046875	0.008856201171875	4674.14544219892
0.955810546875	0.00888671875	4674.18969219881
0.960235595703125	0.00892333984375	4674.23394219869
0.96466064453125	0.0089569091796875	4674.27819219858
0.969085693359375	0.0089935302734375	4674.32244219847
0.9735107421875	0.009033203125	4674.36669219836
0.977935791015625	0.00906982421875	4674.41094219825
0.98236083984375	0.0091094970703125	4674.45519219813
0.986785888671875	0.0091522216796875	4674.49944219802
0.9912109375	0.009197998046875	4674.54369219791
0.995635986328125	0.009246826171875	4674.5879421978
1.00006103515625	0.009295654296875	4674.63219219769
0.995635986328125	0.00859375	4674.67644219758
0.9912109375	0.0079437255859375	4674.72069219746
0.986785888671875	0.0073333740234375	4674.76494219735
0.98236083984375	0.0067535400390625	4674.80919219724
0.977935791015625	0.0062042236328125	4674.85344219713
0.9735107421875	0.005682373046875	4674.89769219702
0.969085693359375	0.005181884765625	4674.94194219691
0.96466064453125	0.00470550537109375	4674.98619219679
0.960235595703125	0.004248046875	4675.03044219668
0.955810546875	0.003809814453125	4675.07469219657
0.951385498046875	0.003387451171875	4675.11894219646
0.94696044921875	0.0029827880859375	4675.16319219635
0.942535400390625	0.00259368896484375	4675.20744219624
0.9381103515625	0.0022161865234375	4675.25169219612
0.933685302734375	0.00185028076171875	4675.29594219601
0.92926025390625	0.00149993896484375	4675.3401921959
0.924835205078125	0.00116241455078125	4675.38444219579
0.92041015625	0.0008367919921875	4675.42869219568
0.915985107421875	0.00052276611328125	4675.47294219557
0.91156005859375	0.000219451904296875	4675.51719219545
0.907135009765625	-7.281494140625E-05	4675.56144219534
0.9027099609375	-0.00035528564453125	4675.60569219523
0.898284912109375	-0.00062774658203125	4675.64994219512
0.89385986328125	-0.00089080810546875	4675.69419219501
0.889434814453125	-0.0011444091796875	4675.7384421949
0.885009765625	-0.00139007568359375	4675.78269219478
0.880584716796875	-0.00162628173828125	4675.82694219467
0.87615966796875	-0.00185455322265625	4675.87119219456
0.871734619140625	-0.00207427978515625	4675.91544219445
0.8673095703125	-0.00228607177734375	4675.95969219434
0.862884521484375	-0.0024908447265625	4676.00394219422
0.85845947265625	-0.002686767578125	4676.04819219411
0.854034423828125	-0.002877197265625	4676.092442194
0.849609375	-0.00305999755859375	4676.13669219389
0.845184326171875	-0.00323638916015625	4676.18094219378
0.84075927734375	-0.00340576171875	4676.22519219367
0.836334228515625	-0.0035699462890625	4676.26944219355
0.8319091796875	-0.0037261962890625	4676.31369219344
0.827484130859375	-0.00387786865234375	4676.35794219333
0.82305908203125	-0.004022216796875	4676.40219219322
0.818634033203125	-0.0041607666015625	4676.44644219311
0.814208984375	-0.00429473876953125	4676.490692193
0.809783935546875	-0.00442291259765625	4676.53494219288
0.80535888671875	-0.0045458984375	4676.57919219277
0.800933837890625	-0.00466461181640625	4676.62344219266
0.7965087890625	-0.004779052734375	4676.66769219255
0.792083740234375	-0.0048895263671875	4676.71194219244
0.78765869140625	-0.00499542236328125	4676.75619219233
0.783233642578125	-0.00509674072265625	4676.80044219221
0.77880859375	-0.00519287109375	4676.8446921921
0.774383544921875	-0.0052862548828125	4676.88894219199
0.76995849609375	-0.00537445068359375	4676.93319219188
0.765533447265625	-0.00545867919921875	4676.97744219177
0.7611083984375	-0.0055413818359375	4677.02169219166
0.756683349609375	-0.005618896484375	4677.06594219154
0.75225830078125	-0.00569580078125	4677.11019219143
0.747833251953125	-0.00576873779296875	4677.15444219132
0.743408203125	-0.00583953857421875	4677.19869219121
0.738983154296875	-0.00590576171875	4677.2429421911
0.73455810546875	-0.00597076416015625	4677.28719219098
0.730133056640625	-0.006033935546875	4677.33144219087
0.7257080078125	-0.006072998046875	4677.37569219076
0.721282958984375	-0.006134033203125	4677.41994219065
0.71685791015625	-0.0061920166015625	4677.46419219054
0.712432861328125	-0.006243896484375	4677.50844219043
0.7080078125	-0.0062957763671875	4677.55269219031
0.703582763671875	-0.0063446044921875	4677.5969421902
0.69915771484375	-0.0063934326171875	4677.64119219009
0.694732666015625	-0.0064422607421875	4677.68544218998
0.6903076171875	-0.006488037109375	4677.72969218987
0.685882568359375	-0.0065338134765625	4677.77394218976
0.68145751953125	-0.0065765380859375	4677.81819218964
0.677032470703125	-0.0066192626953125	4677.86244218953
0.672607421875	-0.006658935546875	4677.90669218942
0.668182373046875	-0.0066986083984375	4677.95094218931
0.66375732421875	-0.00673828125	4677.9951921892
0.659332275390625	-0.00677490234375	4678.03944218909
0.6549072265625	-0.0068084716796875	4678.08369218897
0.650482177734375	-0.0068450927734375	4678.12794218886
0.64605712890625	-0.006884765625	4678.17219218875
0.641632080078125	-0.00692138671875	4678.21644218864
0.63720703125	-0.0069549560546875	4678.26069218853
0.632781982421875	-0.006988525390625	4678.30494218842
0.62835693359375	-0.0070220947265625	4678.3491921883
0.623931884765625	-0.0070587158203125	4678.39344218819
0.6195068359375	-0.0070892333984375	4678.43769218808
0.615081787109375	-0.00711669921875	4678.48194218797
0.61065673828125	-0.0071502685546875	4678.52619218786
0.606231689453125	-0.007177734375	4678.57044218775
0.601806640625	-0.0072052001953125	4678.61469218763
0.597381591796875	-0.0072296142578125	4678.65894218752
0.59295654296875	-0.0072601318359375	4678.70319218741
0.588531494140625	-0.0072906494140625	4678.7474421873
0.5841064453125	-0.0073150634765625	4678.79169218719
0.579681396484375	-0.0073455810546875	4678.83594218707
0.57525634765625	-0.007373046875	4678.88019218696
0.570831298828125	-0.0074005126953125	4678.92444218685
0.56640625	-0.007427978515625	4678.96869218674
0.561981201171875	-0.0074554443359375	4679.01294218663
0.55755615234375	-0.0074798583984375	4679.05719218652
0.553131103515625	-0.0075042724609375	4679.1014421864
0.5487060546875	-0.0075286865234375	4679.14569218629
0.544281005859375	-0.0075531005859375	4679.18994218618
0.53985595703125	-0.0075775146484375	4679.23419218607
0.535430908203125	-0.0076019287109375	4679.27844218596
0.531005859375	-0.0076263427734375	4679.32269218585
0.526580810546875	-0.0076507568359375	4679.36694218573
0.52215576171875	-0.0076751708984375	4679.41119218562
0.517730712890625	-0.007696533203125	4679.45544218551
0.5133056640625	-0.0077178955078125	4679.4996921854
0.508880615234375	-0.0077392578125	4679.54394218529
0.50445556640625	-0.0077606201171875	4679.58819218518
0.500030517578125	-0.007781982421875	4679.63244218506
0.49560546875	-0.0078033447265625	4679.67669218495
0.491180419921875	-0.00782470703125	4679.72094218484
0.48675537109375	-0.007843017578125	4679.76519218473
0.482330322265625	-0.0078643798828125	4679.80944218462
0.4779052734375	-0.0078857421875	4679.85369218451
0.473480224609375	-0.00791015625	4679.89794218439
0.46905517578125	-0.0079315185546875	4679.94219218428
0.464630126953125	-0.0079498291015625	4679.98644218417
0.460205078125	-0.0079742431640625	4680.03069218406
0.455780029296875	-0.0079925537109375	4680.07494218395
0.45135498046875	-0.008013916015625	4680.11919218383
0.446929931640625	-0.0080352783203125	4680.16344218372
0.4425048828125	-0.0080535888671875	4680.20769218361
0.438079833984375	-0.008074951171875	4680.2519421835
0.43365478515625	-0.0080963134765625	4680.29619218339
0.429229736328125	-0.00811767578125	4680.34044218328
0.4248046875	-0.008135986328125	4680.38469218316
0.420379638671875	-0.0081573486328125	4680.42894218305
0.41595458984375	-0.0081787109375	4680.47319218294
0.411529541015625	-0.0082000732421875	4680.51744218283
0.4071044921875	-0.008221435546875	4680.56169218272
0.402679443359375	-0.00823974609375	4680.60594218261
0.39825439453125	-0.0082611083984375	4680.65019218249
0.393829345703125	-0.0082794189453125	4680.69444218238
0.389404296875	-0.0082977294921875	4680.73869218227
0.384979248046875	-0.00831298828125	4680.78294218216
0.38055419921875	-0.0083343505859375	4680.82719218205
0.376129150390625	-0.0083587646484375	4680.87144218194
0.3717041015625	-0.0083770751953125	4680.91569218182
0.367279052734375	-0.0083984375	4680.95994218171
0.36285400390625	-0.008416748046875	4681.0041921816
0.358428955078125	-0.0084381103515625	4681.04844218149
0.35400390625	-0.00845947265625	4681.09269218138
0.349578857421875	-0.008477783203125	4681.13694218127
0.34515380859375	-0.00849609375	4681.18119218115
0.340728759765625	-0.0085174560546875	4681.22544218104
0.3363037109375	-0.0085357666015625	4681.26969218093
0.331878662109375	-0.00855712890625	4681.31394218082
0.32745361328125	-0.008575439453125	4681.35819218071
0.323028564453125	-0.0085968017578125	4681.4024421806
0.318603515625	-0.0086181640625	4681.44669218048
0.314178466796875	-0.0086395263671875	4681.49094218037
0.30975341796875	-0.008660888671875	4681.53519218026
0.305328369140625	-0.0086822509765625	4681.57944218015
0.3009033203125	-0.00870361328125	4681.62369218004
0.296478271484375	-0.0087249755859375	4681.66794217992
0.29205322265625	-0.0087432861328125	4681.71219217981
0.287628173828125	-0.0087646484375	4681.7564421797
0.283203125	-0.0087860107421875	4681.80069217959
0.278778076171875	-0.0088043212890625	4681.84494217948
0.27435302734375	-0.00882568359375	4681.88919217937
0.269927978515625	-0.008843994140625	4681.93344217925
0.2655029296875	-0.008868408203125	4681.97769217914
0.261077880859375	-0.0088897705078125	4682.02194217903
0.25665283203125	-0.0089111328125	4682.06619217892
0.252227783203125	-0.0089324951171875	4682.11044217881
0.247802734375	-0.0089569091796875	4682.1546921787
0.243377685546875	-0.008978271484375	4682.19894217858
0.23895263671875	-0.0089996337890625	4682.24319217847
0.234527587890625	-0.0090240478515625	4682.28744217836
0.2301025390625	-0.0090423583984375	4682.33169217825
0.225677490234375	-0.0090667724609375	4682.37594217814
0.22125244140625	-0.0090911865234375	4682.42019217803
0.216827392578125	-0.009112548828125	4682.46444217791
0.21240234375	-0.009136962890625	4682.5086921778
0.207977294921875	-0.009161376953125	4682.55294217769
0.20355224609375	-0.009185791015625	4682.59719217758
0.199127197265625	-0.009210205078125	4682.64144217747
0.1947021484375	-0.0092376708984375	4682.68569217736
0.190277099609375	-0.009259033203125	4682.72994217724
0.18585205078125	-0.009283447265625	4682.77419217713
0.181427001953125	-0.0093109130859375	4682.81844217702
0.177001953125	-0.0093353271484375	4682.86269217691
0.172576904296875	-0.0093597412109375	4682.9069421768
0.16815185546875	-0.0093841552734375	4682.95119217668
0.163726806640625	-0.0094085693359375	4682.99544217657
0.1593017578125	-0.00943603515625	4683.03969217646
0.154876708984375	-0.0094635009765625	4683.08394217635
0.15045166015625	-0.009490966796875	4683.12819217624
0.146026611328125	-0.0095184326171875	4683.17244217613
0.1416015625	-0.0095489501953125	4683.21669217601
0.137176513671875	-0.009576416015625	4683.2609421759
0.13275146484375	-0.0096038818359375	4683.30519217579
0.128326416015625	-0.00963134765625	4683.34944217568
0.1239013671875	-0.0096588134765625	4683.39369217557
0.119476318359375	-0.0096893310546875	4683.43794217546
0.11505126953125	-0.009716796875	4683.48219217534
0.110626220703125	-0.009747314453125	4683.52644217523
0.106201171875	-0.0097808837890625	4683.57069217512
0.101776123046875	-0.009814453125	4683.61494217501
0.09735107421875	-0.009844970703125	4683.6591921749
0.092926025390625	-0.0098785400390625	4683.70344217479
0.0885009765625	-0.009912109375	4683.74769217467
0.084075927734375	-0.0099456787109375	4683.79194217456
0.07965087890625	-0.009979248046875	4683.83619217445
0.075225830078125	-0.010009765625	4683.88044217434
0.07080078125	-0.01004638671875	4683.92469217423
0.066375732421875	-0.0100799560546875	4683.96894217411
0.06195068359375	-0.0101165771484375	4684.013192174
0.057525634765625	-0.0101470947265625	4684.05744217389
0.0531005859375	-0.0101837158203125	4684.10169217378
0.048675537109375	-0.0102203369140625	4684.14594217367
0.04425048828125	-0.010260009765625	4684.19019217356
0.039825439453125	-0.010296630859375	4684.23444217345
0.035400390625	-0.0103363037109375	4684.27869217333
0.030975341796875	-0.0103729248046875	4684.32294217322
0.02655029296875	-0.01041259765625	4684.36719217311
0.022125244140625	-0.0104522705078125	4684.411442173
0.0177001953125	-0.010491943359375	4684.45569217289
0.013275146484375	-0.010528564453125	4684.49994217277
0.00885009765625	-0.0105712890625	4684.54419217266
0.004425048828125	-0.010614013671875	4684.58844217255
0	-0.0106536865234375	4684.63269217244
0.004425048828125	-0.0099273681640625	4684.67694217233
0.00885009765625	-0.0092498779296875	4684.72119217222
0.013275146484375	-0.008599853515625	4684.7654421721
0.0177001953125	-0.0079803466796875	4684.80969217199
0.022125244140625	-0.0073883056640625	4684.85394217188
0.02655029296875	-0.006817626953125	4684.89819217177
0.030975341796875	-0.006268310546875	4684.94244217166
0.035400390625	-0.0057403564453125	4684.98669217155
0.039825439453125	-0.005230712890625	4685.03094217143
0.04425048828125	-0.0047406005859375	4685.07519217132
0.048675537109375	-0.00426544189453125	4685.11944217121
0.0531005859375	-0.003807373046875	4685.1636921711
0.057525634765625	-0.003363037109375	4685.20794217099
0.06195068359375	-0.002933349609375	4685.25219217088
0.066375732421875	-0.002528076171875	4685.29644217076
0.07080078125	-0.00212432861328125	4685.34069217065
0.075225830078125	-0.0017333984375	4685.38494217054
0.07965087890625	-0.0013555908203125	4685.42919217043
0.084075927734375	-0.00098846435546875	4685.47344217032
0.0885009765625	-0.0006329345703125	4685.51769217021
0.092926025390625	-0.000287994384765625	4685.56194217009
0.09735107421875	4.65087890625E-05	4685.60619216998
0.101776123046875	0.000370880126953125	4685.65044216987
0.106201171875	0.0006866455078125	4685.69469216976
0.110626220703125	0.0009930419921875	4685.73894216965
0.11505126953125	0.001290283203125	4685.78319216953
0.119476318359375	0.00157623291015625	4685.82744216942
0.1239013671875	0.00185577392578125	4685.87169216931
0.128326416015625	0.002127685546875	4685.9159421692
0.13275146484375	0.00239349365234375	4685.96019216909
0.137176513671875	0.00264923095703125	4686.00444216898
0.1416015625	0.00289520263671875	4686.04869216886
0.146026611328125	0.00313262939453125	4686.09294216875
0.15045166015625	0.00336212158203125	4686.13719216864
0.154876708984375	0.00358428955078125	4686.18144216853
0.1593017578125	0.00379974365234375	4686.22569216842
0.163726806640625	0.00400970458984375	4686.26994216831
0.16815185546875	0.004212646484375	4686.31419216819
0.172576904296875	0.00441009521484375	4686.35844216808
0.177001953125	0.00460113525390625	4686.40269216797
0.181427001953125	0.00478515625	4686.44694216786
0.18585205078125	0.00496337890625	4686.49119216775
0.190277099609375	0.00513641357421875	4686.53544216764
0.1947021484375	0.005303955078125	4686.57969216752
0.199127197265625	0.00546600341796875	4686.62394216741
0.20355224609375	0.00562286376953125	4686.6681921673
0.207977294921875	0.0057763671875	4686.71244216719
0.21240234375	0.00592498779296875	4686.75669216708
0.216827392578125	0.00606689453125	4686.80094216696
0.22125244140625	0.006195068359375	4686.84519216685
0.225677490234375	0.0063262939453125	4686.88944216674
0.2301025390625	0.006451416015625	4686.93369216663
0.234527587890625	0.0065704345703125	4686.97794216652
0.23895263671875	0.0066864013671875	4687.02219216641
0.243377685546875	0.00679931640625	4687.0664421663
0.247802734375	0.0069061279296875	4687.11069216618
0.252227783203125	0.0070098876953125	4687.15494216607
0.25665283203125	0.0071075439453125	4687.19919216596
0.261077880859375	0.0072021484375	4687.24344216585
0.2655029296875	0.0072906494140625	4687.28769216574
0.269927978515625	0.007379150390625	4687.33194216562
0.27435302734375	0.0074615478515625	4687.37619216551
0.278778076171875	0.0075439453125	4687.4204421654
0.283203125	0.0076202392578125	4687.46469216529
0.287628173828125	0.007696533203125	4687.50894216518
0.29205322265625	0.007769775390625	4687.55319216507
0.296478271484375	0.0078338623046875	4687.59744216495
0.3009033203125	0.00789794921875	4687.64169216484
0.305328369140625	0.0079620361328125	4687.68594216473
0.30975341796875	0.0080291748046875	4687.73019216462
0.314178466796875	0.0080902099609375	4687.77444216451
0.318603515625	0.00814208984375	4687.8186921644
0.323028564453125	0.00819091796875	4687.86294216428
0.32745361328125	0.00823974609375	4687.90719216417
0.331878662109375	0.0082855224609375	4687.95144216406
0.3363037109375	0.0083282470703125	4687.99569216395
0.340728759765625	0.008367919921875	4688.03994216384
0.34515380859375	0.0084075927734375	4688.08419216373
0.349578857421875	0.008441162109375	4688.12844216361
0.35400390625	0.0084716796875	4688.1726921635
0.358428955078125	0.0084991455078125	4688.21694216339
0.36285400390625	0.0085296630859375	4688.26119216328
0.367279052734375	0.00855712890625	4688.30544216317
0.3717041015625	0.0085906982421875	4688.34969216305
0.376129150390625	0.0086181640625	4688.39394216294
0.38055419921875	0.0086395263671875	4688.43819216283
0.384979248046875	0.008660888671875	4688.48244216272
0.389404296875	0.00867919921875	4688.52669216261
0.393829345703125	0.00869140625	4688.5709421625
0.39825439453125	0.0087127685546875	4688.61519216238
0.402679443359375	0.00872802734375	4688.65944216227
0.4071044921875	0.0087371826171875	4688.70369216216
0.411529541015625	0.008746337890625	4688.74794216205
0.41595458984375	0.00875244140625	4688.79219216194
0.420379638671875	0.008758544921875	4688.83644216183
0.4248046875	0.008770751953125	4688.88069216171
0.429229736328125	0.0087799072265625	4688.9249421616
0.43365478515625	0.0087921142578125	4688.96919216149
0.438079833984375	0.0087982177734375	4689.01344216138
0.4425048828125	0.00880126953125	4689.05769216127
0.446929931640625	0.0088043212890625	4689.10194216116
0.45135498046875	0.008807373046875	4689.14619216104
0.455780029296875	0.0088104248046875	4689.19044216093
0.460205078125	0.008807373046875	4689.23469216082
0.464630126953125	0.008807373046875	4689.27894216071
0.46905517578125	0.0088043212890625	4689.3231921606
0.473480224609375	0.0088043212890625	4689.36744216049
0.4779052734375	0.0087982177734375	4689.41169216037
0.482330322265625	0.008795166015625	4689.45594216026
0.48675537109375	0.0087890625	4689.50019216015
0.491180419921875	0.0087860107421875	4689.54444216004
0.49560546875	0.008782958984375	4689.58869215993
0.500030517578125	0.00877685546875	4689.63294215981
0.50445556640625	0.008770751953125	4689.6771921597
0.508880615234375	0.0087646484375	4689.72144215959
0.5133056640625	0.008758544921875	4689.76569215948
0.517730712890625	0.0087493896484375	4689.80994215937
0.52215576171875	0.0087432861328125	4689.85419215926
0.526580810546875	0.008734130859375	4689.89844215914
0.531005859375	0.0087249755859375	4689.94269215903
0.535430908203125	0.0087158203125	4689.98694215892
0.53985595703125	0.008709716796875	4690.03119215881
0.544281005859375	0.00870361328125	4690.0754421587
0.5487060546875	0.00869140625	4690.11969215859
0.553131103515625	0.008685302734375	4690.16394215847
0.55755615234375	0.0086761474609375	4690.20819215836
0.561981201171875	0.0086639404296875	4690.25244215825
0.56640625	0.00865478515625	4690.29669215814
0.570831298828125	0.0086456298828125	4690.34094215803
0.57525634765625	0.008636474609375	4690.38519215792
0.579681396484375	0.0086273193359375	4690.4294421578
0.5841064453125	0.0086181640625	4690.47369215769
0.588531494140625	0.00860595703125	4690.51794215758
0.59295654296875	0.0085968017578125	4690.56219215747
0.597381591796875	0.008587646484375	4690.60644215736
0.601806640625	0.00858154296875	4690.65069215725
0.606231689453125	0.0085693359375	4690.69494215713
0.61065673828125	0.008563232421875	4690.73919215702
0.615081787109375	0.0085540771484375	4690.78344215691
0.6195068359375	0.008544921875	4690.8276921568
0.623931884765625	0.0085357666015625	4690.87194215669
0.62835693359375	0.0085296630859375	4690.91619215658
0.632781982421875	0.0085205078125	4690.96044215646
0.63720703125	0.0085113525390625	4691.00469215635
0.641632080078125	0.0085052490234375	4691.04894215624
0.64605712890625	0.00849609375	4691.09319215613
0.650482177734375	0.0084869384765625	4691.13744215602
0.6549072265625	0.008477783203125	4691.1816921559
0.659332275390625	0.0084716796875	4691.22594215579
0.66375732421875	0.008465576171875	4691.27019215568
0.668182373046875	0.00845947265625	4691.31444215557
0.672607421875	0.0084503173828125	4691.35869215546
0.677032470703125	0.008441162109375	4691.40294215535
0.68145751953125	0.00843505859375	4691.44719215523
0.685882568359375	0.008428955078125	4691.49144215512
0.6903076171875	0.0084197998046875	4691.53569215501
0.694732666015625	0.0084136962890625	4691.5799421549
0.69915771484375	0.0084075927734375	4691.62419215479
0.703582763671875	0.0084014892578125	4691.66844215468
0.7080078125	0.0083984375	4691.71269215456
0.712432861328125	0.008392333984375	4691.75694215445
0.71685791015625	0.00838623046875	4691.80119215434
0.721282958984375	0.0083831787109375	4691.84544215423
0.7257080078125	0.0083770751953125	4691.88969215412
0.730133056640625	0.0083740234375	4691.93394215401
0.73455810546875	0.0083709716796875	4691.97819215389
0.738983154296875	0.0083648681640625	4692.02244215378
0.743408203125	0.00836181640625	4692.06669215367
0.747833251953125	0.0083587646484375	4692.11094215356
0.75225830078125	0.008355712890625	4692.15519215345
0.756683349609375	0.0083526611328125	4692.19944215334
0.7611083984375	0.0083526611328125	4692.24369215322
0.765533447265625	0.008349609375	4692.28794215311
0.76995849609375	0.008349609375	4692.332192153
0.774383544921875	0.008349609375	4692.37644215289
0.77880859375	0.008349609375	4692.42069215278
0.783233642578125	0.008349609375	4692.46494215266
0.78765869140625	0.008349609375	4692.50919215255
0.792083740234375	0.008349609375	4692.55344215244
0.7965087890625	0.008349609375	4692.59769215233
0.800933837890625	0.0083526611328125	4692.64194215222
0.80535888671875	0.0083526611328125	4692.68619215211
0.809783935546875	0.0083587646484375	4692.73044215199
0.814208984375	0.0083587646484375	4692.77469215188
0.818634033203125	0.0083648681640625	4692.81894215177
0.82305908203125	0.008367919921875	4692.86319215166
0.827484130859375	0.0083740234375	4692.90744215155
0.8319091796875	0.008380126953125	4692.95169215144
0.836334228515625	0.00838623046875	4692.99594215132
0.84075927734375	0.0083892822265625	4693.04019215121
0.845184326171875	0.0083984375	4693.0844421511
0.849609375	0.008404541015625	4693.12869215099
0.854034423828125	0.0084136962890625	4693.17294215088
0.85845947265625	0.0084228515625	4693.21719215077
0.862884521484375	0.0084320068359375	4693.26144215065
0.8673095703125	0.008441162109375	4693.30569215054
0.871734619140625	0.008453369140625	4693.34994215043
0.87615966796875	0.008465576171875	4693.39419215032
0.880584716796875	0.008477783203125	4693.43844215021
0.885009765625	0.0084930419921875	4693.4826921501
0.889434814453125	0.0085052490234375	4693.52694214998
0.89385986328125	0.0085205078125	4693.57119214987
0.898284912109375	0.008538818359375	4693.61544214976
0.9027099609375	0.0085540771484375	4693.65969214965
0.907135009765625	0.0085723876953125	4693.70394214954
0.91156005859375	0.008587646484375	4693.74819214943
0.915985107421875	0.00860595703125	4693.79244214931
0.92041015625	0.00863037109375	4693.8366921492
0.924835205078125	0.0086517333984375	4693.88094214909
0.92926025390625	0.0086761474609375	4693.92519214898
0.933685302734375	0.00870361328125	4693.96944214887
0.9381103515625	0.0087310791015625	4694.01369214875
0.942535400390625	0.008758544921875	4694.05794214864
0.94696044921875	0.0087890625	4694.10219214853
0.951385498046875	0.0088165283203125	4694.14644214842
0.955810546875	0.00885009765625	4694.19069214831
0.960235595703125	0.0088836669921875	4694.2349421482
0.96466064453125	0.008917236328125	4694.27919214808
0.969085693359375	0.008953857421875	4694.32344214797
0.9735107421875	0.0089935302734375	4694.36769214786
0.977935791015625	0.0090301513671875	4694.41194214775
0.98236083984375	0.009075927734375	4694.45619214764
0.986785888671875	0.0091217041015625	4694.50044214753
0.9912109375	0.00916748046875	4694.54469214741
0.995635986328125	0.0092132568359375	4694.5889421473
1.00006103515625	0.00926513671875	4694.63319214719
0.995635986328125	0.008563232421875	4694.67744214708
0.9912109375	0.0079132080078125	4694.72169214697
0.986785888671875	0.007305908203125	4694.76594214686
0.98236083984375	0.0067291259765625	4694.81019214674
0.977935791015625	0.0061798095703125	4694.85444214663
0.9735107421875	0.0056610107421875	4694.89869214652
0.969085693359375	0.0051605224609375	4694.94294214641
0.96466064453125	0.00468505859375	4694.9871921463
0.960235595703125	0.004227294921875	4695.03144214619
0.955810546875	0.00378936767578125	4695.07569214607
0.951385498046875	0.003367919921875	4695.11994214596
0.94696044921875	0.002962646484375	4695.16419214585
0.942535400390625	0.002574462890625	4695.20844214574
0.9381103515625	0.002198486328125	4695.25269214563
0.933685302734375	0.00183319091796875	4695.29694214551
0.92926025390625	0.001484375	4695.3411921454
0.924835205078125	0.00114776611328125	4695.38544214529
0.92041015625	0.00082305908203125	4695.42969214518
0.915985107421875	0.00050994873046875	4695.47394214507
0.91156005859375	0.000206939697265625	4695.51819214496
0.907135009765625	-8.465576171875E-05	4695.56244214484
0.9027099609375	-0.000366485595703125	4695.60669214473
0.898284912109375	-0.00063812255859375	4695.65094214462
0.89385986328125	-0.00090057373046875	4695.69519214451
0.889434814453125	-0.00115386962890625	4695.7394421444
0.885009765625	-0.0013983154296875	4695.78369214429
0.880584716796875	-0.00163421630859375	4695.82794214417
0.87615966796875	-0.00186126708984375	4695.87219214406
0.871734619140625	-0.0020806884765625	4695.91644214395
0.8673095703125	-0.0022930908203125	4695.96069214384
0.862884521484375	-0.00249664306640625	4696.00494214373
0.85845947265625	-0.00269256591796875	4696.04919214362
0.854034423828125	-0.00288238525390625	4696.0934421435
0.849609375	-0.00306549072265625	4696.13769214339
0.845184326171875	-0.003240966796875	4696.18194214328
0.84075927734375	-0.00341064453125	4696.22619214317
0.836334228515625	-0.003572998046875	4696.27044214306
0.8319091796875	-0.0037298583984375	4696.31469214295
0.827484130859375	-0.00387969970703125	4696.35894214283
0.82305908203125	-0.00402435302734375	4696.40319214272
0.818634033203125	-0.00416259765625	4696.44744214261
0.814208984375	-0.00429656982421875	4696.4916921425
0.809783935546875	-0.00442535400390625	4696.53594214239
0.80535888671875	-0.00454864501953125	4696.58019214228
0.800933837890625	-0.0046673583984375	4696.62444214216
0.7965087890625	-0.00478118896484375	4696.66869214205
0.792083740234375	-0.00489013671875	4696.71294214194
0.78765869140625	-0.00499481201171875	4696.75719214183
0.783233642578125	-0.00509552001953125	4696.80144214172
0.77880859375	-0.0051910400390625	4696.8456921416
0.774383544921875	-0.00528350830078125	4696.88994214149
0.76995849609375	-0.00537139892578125	4696.93419214138
0.765533447265625	-0.00545654296875	4696.97844214127
0.7611083984375	-0.00553863525390625	4697.02269214116
0.756683349609375	-0.00561798095703125	4697.06694214105
0.75225830078125	-0.005694580078125	4697.11119214093
0.747833251953125	-0.0057672119140625	4697.15544214082
0.743408203125	-0.00583740234375	4697.19969214071
0.738983154296875	-0.00590301513671875	4697.2439421406
0.73455810546875	-0.005968017578125	4697.28819214049
0.730133056640625	-0.0060302734375	4697.33244214038
0.7257080078125	-0.0060699462890625	4697.37669214026
0.721282958984375	-0.0061279296875	4697.42094214015
0.71685791015625	-0.006182861328125	4697.46519214004
0.712432861328125	-0.00623779296875	4697.50944213993
0.7080078125	-0.0062896728515625	4697.55369213982
0.703582763671875	-0.0063385009765625	4697.59794213971
0.69915771484375	-0.0063873291015625	4697.64219213959
0.694732666015625	-0.0064361572265625	4697.68644213948
0.6903076171875	-0.00648193359375	4697.73069213937
0.685882568359375	-0.006524658203125	4697.77494213926
0.68145751953125	-0.0065673828125	4697.81919213915
0.677032470703125	-0.006610107421875	4697.86344213904
0.672607421875	-0.0066497802734375	4697.90769213892
0.668182373046875	-0.006689453125	4697.95194213881
0.66375732421875	-0.00672607421875	4697.9961921387
0.659332275390625	-0.0067626953125	4698.04044213859
0.6549072265625	-0.00679931640625	4698.08469213848
0.650482177734375	-0.0068359375	4698.12894213836
0.64605712890625	-0.00687255859375	4698.17319213825
0.641632080078125	-0.0069091796875	4698.21744213814
0.63720703125	-0.0069427490234375	4698.26169213803
0.632781982421875	-0.006976318359375	4698.30594213792
0.62835693359375	-0.0070068359375	4698.35019213781
0.623931884765625	-0.00704345703125	4698.39444213769
0.6195068359375	-0.007073974609375	4698.43869213758
0.615081787109375	-0.0071044921875	4698.48294213747
0.61065673828125	-0.007135009765625	4698.52719213736
0.606231689453125	-0.0071624755859375	4698.57144213725
0.601806640625	-0.00718994140625	4698.61569213714
0.597381591796875	-0.0072174072265625	4698.65994213702
0.59295654296875	-0.007244873046875	4698.70419213691
0.588531494140625	-0.007275390625	4698.7484421368
0.5841064453125	-0.0072998046875	4698.79269213669
0.579681396484375	-0.007330322265625	4698.83694213658
0.57525634765625	-0.0073577880859375	4698.88119213646
0.570831298828125	-0.0073822021484375	4698.92544213635
0.56640625	-0.0074066162109375	4698.96969213624
0.561981201171875	-0.0074310302734375	4699.01394213613
0.55755615234375	-0.00745849609375	4699.05819213602
0.553131103515625	-0.00748291015625	4699.10244213591
0.5487060546875	-0.0075103759765625	4699.1466921358
0.544281005859375	-0.00753173828125	4699.19094213568
0.53985595703125	-0.0075592041015625	4699.23519213557
0.535430908203125	-0.0075836181640625	4699.27944213546
0.531005859375	-0.00760498046875	4699.32369213535
0.526580810546875	-0.00762939453125	4699.36794213524
0.52215576171875	-0.0076507568359375	4699.41219213513
0.517730712890625	-0.0076751708984375	4699.45644213501
0.5133056640625	-0.007696533203125	4699.5006921349
0.508880615234375	-0.0077178955078125	4699.54494213479
0.50445556640625	-0.0077392578125	4699.58919213468
0.500030517578125	-0.0077606201171875	4699.63344213457
0.49560546875	-0.007781982421875	4699.67769213445
0.491180419921875	-0.0078033447265625	4699.72194213434
0.48675537109375	-0.00782470703125	4699.76619213423
0.482330322265625	-0.007843017578125	4699.81044213412
0.4779052734375	-0.0078643798828125	4699.85469213401
0.473480224609375	-0.0078857421875	4699.8989421339
0.46905517578125	-0.00791015625	4699.94319213378
0.464630126953125	-0.007928466796875	4699.98744213367
0.460205078125	-0.0079498291015625	4700.03169213356
0.455780029296875	-0.00797119140625	4700.07594213345
0.45135498046875	-0.007989501953125	4700.12019213334
0.446929931640625	-0.0080108642578125	4700.16444213323
0.4425048828125	-0.0080322265625	4700.20869213311
0.438079833984375	-0.008050537109375	4700.252942133
0.43365478515625	-0.0080718994140625	4700.29719213289
0.429229736328125	-0.00809326171875	4700.34144213278
0.4248046875	-0.0081146240234375	4700.38569213267
0.420379638671875	-0.008135986328125	4700.42994213255
0.41595458984375	-0.0081573486328125	4700.47419213244
0.411529541015625	-0.0081756591796875	4700.51844213233
0.4071044921875	-0.008197021484375	4700.56269213222
0.402679443359375	-0.00821533203125	4700.60694213211
0.39825439453125	-0.008233642578125	4700.651192132
0.393829345703125	-0.0082550048828125	4700.69544213189
0.389404296875	-0.0082733154296875	4700.73969213177
0.384979248046875	-0.008294677734375	4700.78394213166
0.38055419921875	-0.00831298828125	4700.82819213155
0.376129150390625	-0.0083343505859375	4700.87244213144
0.3717041015625	-0.008355712890625	4700.91669213133
0.367279052734375	-0.0083770751953125	4700.96094213121
0.36285400390625	-0.008392333984375	4701.0051921311
0.358428955078125	-0.0084136962890625	4701.04944213099
0.35400390625	-0.0084320068359375	4701.09369213088
0.349578857421875	-0.008453369140625	4701.13794213077
0.34515380859375	-0.0084716796875	4701.18219213066
0.340728759765625	-0.008489990234375	4701.22644213054
0.3363037109375	-0.0085113525390625	4701.27069213043
0.331878662109375	-0.00853271484375	4701.31494213032
0.32745361328125	-0.008551025390625	4701.35919213021
0.323028564453125	-0.0085723876953125	4701.4034421301
0.318603515625	-0.0085906982421875	4701.44769212999
0.314178466796875	-0.008612060546875	4701.49194212987
0.30975341796875	-0.008636474609375	4701.53619212976
0.305328369140625	-0.00865478515625	4701.58044212965
0.3009033203125	-0.0086761474609375	4701.62469212954
0.296478271484375	-0.0086944580078125	4701.66894212943
0.29205322265625	-0.0087158203125	4701.71319212931
0.287628173828125	-0.0087371826171875	4701.7574421292
0.283203125	-0.008758544921875	4701.80169212909
0.278778076171875	-0.00877685546875	4701.84594212898
0.27435302734375	-0.0087982177734375	4701.89019212887
0.269927978515625	-0.008819580078125	4701.93444212876
0.2655029296875	-0.008843994140625	4701.97869212864
0.261077880859375	-0.0088653564453125	4702.02294212853
0.25665283203125	-0.00888671875	4702.06719212842
0.252227783203125	-0.0089080810546875	4702.11144212831
0.247802734375	-0.0089324951171875	4702.1556921282
0.243377685546875	-0.008953857421875	4702.19994212809
0.23895263671875	-0.0089752197265625	4702.24419212798
0.234527587890625	-0.0089996337890625	4702.28844212786
0.2301025390625	-0.00902099609375	4702.33269212775
0.225677490234375	-0.0090423583984375	4702.37694212764
0.22125244140625	-0.009063720703125	4702.42119212753
0.216827392578125	-0.009088134765625	4702.46544212742
0.21240234375	-0.009112548828125	4702.5096921273
0.207977294921875	-0.009136962890625	4702.55394212719
0.20355224609375	-0.009161376953125	4702.59819212708
0.199127197265625	-0.009185791015625	4702.64244212697
0.1947021484375	-0.009210205078125	4702.68669212686
0.190277099609375	-0.009234619140625	4702.73094212675
0.18585205078125	-0.009259033203125	4702.77519212663
0.181427001953125	-0.009283447265625	4702.81944212652
0.177001953125	-0.0093109130859375	4702.86369212641
0.172576904296875	-0.0093353271484375	4702.9079421263
0.16815185546875	-0.0093597412109375	4702.95219212619
0.163726806640625	-0.00938720703125	4702.99644212608
0.1593017578125	-0.00941162109375	4703.04069212596
0.154876708984375	-0.0094390869140625	4703.08494212585
0.15045166015625	-0.009466552734375	4703.12919212574
0.146026611328125	-0.0094940185546875	4703.17344212563
0.1416015625	-0.009521484375	4703.21769212552
0.137176513671875	-0.0095489501953125	4703.2619421254
0.13275146484375	-0.0095794677734375	4703.30619212529
0.128326416015625	-0.00960693359375	4703.35044212518
0.1239013671875	-0.009637451171875	4703.39469212507
0.119476318359375	-0.00966796875	4703.43894212496
0.11505126953125	-0.0096923828125	4703.48319212485
0.110626220703125	-0.0097259521484375	4703.52744212473
0.106201171875	-0.00975341796875	4703.57169212462
0.101776123046875	-0.0097869873046875	4703.61594212451
0.09735107421875	-0.009820556640625	4703.6601921244
0.092926025390625	-0.00985107421875	4703.70444212429
0.0885009765625	-0.0098846435546875	4703.74869212418
0.084075927734375	-0.009918212890625	4703.79294212406
0.07965087890625	-0.0099517822265625	4703.83719212395
0.075225830078125	-0.0099853515625	4703.88144212384
0.07080078125	-0.010015869140625	4703.92569212373
0.066375732421875	-0.010052490234375	4703.96994212362
0.06195068359375	-0.010089111328125	4704.01419212351
0.057525634765625	-0.0101226806640625	4704.05844212339
0.0531005859375	-0.0101593017578125	4704.10269212328
0.048675537109375	-0.0101959228515625	4704.14694212317
0.04425048828125	-0.010235595703125	4704.19119212306
0.039825439453125	-0.010272216796875	4704.23544212295
0.035400390625	-0.010308837890625	4704.27969212284
0.030975341796875	-0.0103485107421875	4704.32394212272
0.02655029296875	-0.0103851318359375	4704.36819212261
0.022125244140625	-0.0104248046875	4704.4124421225
0.0177001953125	-0.0104644775390625	4704.45669212239
0.013275146484375	-0.0105010986328125	4704.50094212228
0.00885009765625	-0.0105438232421875	4704.54519212216
0.004425048828125	-0.01058349609375	4704.58944212205
0	-0.010626220703125	4704.63369212194
0.004425048828125	-0.0099029541015625	4704.67794212183
0.00885009765625	-0.009222412109375	4704.72219212172
0.013275146484375	-0.008575439453125	4704.76644212161
0.0177001953125	-0.007952880859375	4704.81069212149
0.022125244140625	-0.0073638916015625	4704.85494212138
0.02655029296875	-0.006793212890625	4704.89919212127
0.030975341796875	-0.006243896484375	4704.94344212116
0.035400390625	-0.0057159423828125	4704.98769212105
0.039825439453125	-0.0052032470703125	4705.03194212094
0.04425048828125	-0.00471435546875	4705.07619212082
0.048675537109375	-0.004239501953125	4705.12044212071
0.0531005859375	-0.00378082275390625	4705.1646921206
0.057525634765625	-0.0033367919921875	4705.20894212049
0.06195068359375	-0.00290802001953125	4705.25319212038
0.066375732421875	-0.0025030517578125	4705.29744212027
0.07080078125	-0.00209991455078125	4705.34169212015
0.075225830078125	-0.00170928955078125	4705.38594212004
0.07965087890625	-0.001331787109375	4705.43019211993
0.084075927734375	-0.0009649658203125	4705.47444211982
0.0885009765625	-0.00061004638671875	4705.51869211971
0.092926025390625	-0.0002652587890625	4705.5629421196
0.09735107421875	6.9061279296875E-05	4705.60719211948
0.101776123046875	0.00039324951171875	4705.65144211937
0.106201171875	0.00070831298828125	4705.69569211926
0.110626220703125	0.001014404296875	4705.73994211915
0.11505126953125	0.0013116455078125	4705.78419211904
0.119476318359375	0.00159698486328125	4705.82844211893
0.1239013671875	0.001876220703125	4705.87269211881
0.128326416015625	0.00214874267578125	4705.9169421187
0.13275146484375	0.0024139404296875	4705.96119211859
0.137176513671875	0.00266876220703125	4706.00544211848
0.1416015625	0.00291351318359375	4706.04969211837
0.146026611328125	0.00315093994140625	4706.09394211825
0.15045166015625	0.0033795166015625	4706.13819211814
0.154876708984375	0.00360137939453125	4706.18244211803
0.1593017578125	0.00381744384765625	4706.22669211792
0.163726806640625	0.00402557373046875	4706.27094211781
0.16815185546875	0.0042291259765625	4706.3151921177
0.172576904296875	0.0044256591796875	4706.35944211758
0.177001953125	0.00461578369140625	4706.40369211747
0.181427001953125	0.004801025390625	4706.44794211736
0.18585205078125	0.00497833251953125	4706.49219211725
0.190277099609375	0.0051507568359375	4706.53644211714
0.1947021484375	0.00531829833984375	4706.58069211703
0.199127197265625	0.0054791259765625	4706.62494211691
0.20355224609375	0.00563690185546875	4706.6691921168
0.207977294921875	0.0057916259765625	4706.71344211669
0.21240234375	0.0059381103515625	4706.75769211658
0.216827392578125	0.00607818603515625	4706.80194211647
0.22125244140625	0.0062042236328125	4706.84619211636
0.225677490234375	0.00633544921875	4706.89044211624
0.2301025390625	0.0064605712890625	4706.93469211613
0.234527587890625	0.00657958984375	4706.97894211602
0.23895263671875	0.006695556640625	4707.02319211591
0.243377685546875	0.0068084716796875	4707.0674421158
0.247802734375	0.006915283203125	4707.11169211569
0.252227783203125	0.0070159912109375	4707.15594211557
0.25665283203125	0.0071136474609375	4707.20019211546
0.261077880859375	0.007208251953125	4707.24444211535
0.2655029296875	0.0072967529296875	4707.28869211524
0.269927978515625	0.00738525390625	4707.33294211513
0.27435302734375	0.007470703125	4707.37719211501
0.278778076171875	0.007550048828125	4707.4214421149
0.283203125	0.0076263427734375	4707.46569211479
0.287628173828125	0.00770263671875	4707.50994211468
0.29205322265625	0.0077728271484375	4707.55419211457
0.296478271484375	0.0078369140625	4707.59844211446
0.3009033203125	0.0079010009765625	4707.64269211434
0.305328369140625	0.0079620361328125	4707.68694211423
0.30975341796875	0.0080291748046875	4707.73119211412
0.314178466796875	0.00809326171875	4707.77544211401
0.318603515625	0.0081451416015625	4707.8196921139
0.323028564453125	0.0081939697265625	4707.86394211379
0.32745361328125	0.008245849609375	4707.90819211367
0.331878662109375	0.00828857421875	4707.95244211356
0.3363037109375	0.008331298828125	4707.99669211345
0.340728759765625	0.0083709716796875	4708.04094211334
0.34515380859375	0.0084075927734375	4708.08519211323
0.349578857421875	0.008441162109375	4708.12944211312
0.35400390625	0.0084716796875	4708.173692113
0.358428955078125	0.008502197265625	4708.21794211289
0.36285400390625	0.0085296630859375	4708.26219211278
0.367279052734375	0.0085601806640625	4708.30644211267
0.3717041015625	0.00859375	4708.35069211256
0.376129150390625	0.0086181640625	4708.39494211245
0.38055419921875	0.0086395263671875	4708.43919211233
0.384979248046875	0.008660888671875	4708.48344211222
0.389404296875	0.0086761474609375	4708.52769211211
0.393829345703125	0.00869140625	4708.571942112
0.39825439453125	0.008709716796875	4708.61619211189
0.402679443359375	0.0087249755859375	4708.66044211178
0.4071044921875	0.008734130859375	4708.70469211166
0.411529541015625	0.0087432861328125	4708.74894211155
0.41595458984375	0.0087493896484375	4708.79319211144
0.420379638671875	0.0087554931640625	4708.83744211133
0.4248046875	0.0087677001953125	4708.88169211122
0.429229736328125	0.00877685546875	4708.9259421111
0.43365478515625	0.0087890625	4708.97019211099
0.438079833984375	0.008795166015625	4709.01444211088
0.4425048828125	0.00880126953125	4709.05869211077
0.446929931640625	0.00880126953125	4709.10294211066
0.45135498046875	0.0088043212890625	4709.14719211055
0.455780029296875	0.0088043212890625	4709.19144211043
0.460205078125	0.00880126953125	4709.23569211032
0.464630126953125	0.00880126953125	4709.27994211021
0.46905517578125	0.0087982177734375	4709.3241921101
0.473480224609375	0.008795166015625	4709.36844210999
0.4779052734375	0.0087921142578125	4709.41269210988
0.482330322265625	0.0087860107421875	4709.45694210976
0.48675537109375	0.008782958984375	4709.50119210965
0.491180419921875	0.0087799072265625	4709.54544210954
0.49560546875	0.0087738037109375	4709.58969210943
0.500030517578125	0.0087677001953125	4709.63394210932
0.50445556640625	0.0087615966796875	4709.67819210921
0.508880615234375	0.0087554931640625	4709.72244210909
0.5133056640625	0.0087493896484375	4709.76669210898
0.517730712890625	0.008740234375	4709.81094210887
0.52215576171875	0.0087310791015625	4709.85519210876
0.526580810546875	0.008721923828125	4709.89944210865
0.531005859375	0.0087158203125	4709.94369210854
0.535430908203125	0.0087066650390625	4709.98794210842
0.53985595703125	0.008697509765625	4710.03219210831
0.544281005859375	0.00869140625	4710.0764421082
0.5487060546875	0.00867919921875	4710.12069210809
0.553131103515625	0.0086700439453125	4710.16494210798
0.55755615234375	0.008660888671875	4710.20919210786
0.561981201171875	0.0086517333984375	4710.25344210775
0.56640625	0.008642578125	4710.29769210764
0.570831298828125	0.00863037109375	4710.34194210753
0.57525634765625	0.0086212158203125	4710.38619210742
0.579681396484375	0.008612060546875	4710.43044210731
0.5841064453125	0.0086029052734375	4710.47469210719
0.588531494140625	0.0085906982421875	4710.51894210708
0.59295654296875	0.00858154296875	4710.56319210697
0.597381591796875	0.0085723876953125	4710.60744210686
0.601806640625	0.008563232421875	4710.65169210675
0.606231689453125	0.0085540771484375	4710.69594210664
0.61065673828125	0.008544921875	4710.74019210652
0.615081787109375	0.0085357666015625	4710.78444210641
0.6195068359375	0.008526611328125	4710.8286921063
0.623931884765625	0.0085174560546875	4710.87294210619
0.62835693359375	0.008514404296875	4710.91719210608
0.632781982421875	0.008502197265625	4710.96144210597
0.63720703125	0.008489990234375	4711.00569210585
0.641632080078125	0.00848388671875	4711.04994210574
0.64605712890625	0.0084747314453125	4711.09419210563
0.650482177734375	0.008465576171875	4711.13844210552
0.6549072265625	0.00845947265625	4711.18269210541
0.659332275390625	0.0084503173828125	4711.2269421053
0.66375732421875	0.0084442138671875	4711.27119210518
0.668182373046875	0.00843505859375	4711.31544210507
0.672607421875	0.008428955078125	4711.35969210496
0.677032470703125	0.0084197998046875	4711.40394210485
0.68145751953125	0.0084136962890625	4711.44819210474
0.685882568359375	0.008404541015625	4711.49244210463
0.6903076171875	0.0083953857421875	4711.53669210451
0.694732666015625	0.00838623046875	4711.5809421044
0.69915771484375	0.0083831787109375	4711.62519210429
0.703582763671875	0.0083770751953125	4711.66944210418
0.7080078125	0.0083709716796875	4711.71369210407
0.712432861328125	0.008367919921875	4711.75794210395
0.71685791015625	0.00836181640625	4711.80219210384
0.721282958984375	0.0083587646484375	4711.84644210373
0.7257080078125	0.008355712890625	4711.89069210362
0.730133056640625	0.008349609375	4711.93494210351
0.73455810546875	0.0083465576171875	4711.9791921034
0.738983154296875	0.0083404541015625	4712.02344210328
0.743408203125	0.0083343505859375	4712.06769210317
0.747833251953125	0.008331298828125	4712.11194210306
0.75225830078125	0.0083282470703125	4712.15619210295
0.756683349609375	0.0083282470703125	4712.20044210284
0.7611083984375	0.0083282470703125	4712.24469210273
0.765533447265625	0.0083251953125	4712.28894210261
0.76995849609375	0.0083221435546875	4712.3331921025
0.774383544921875	0.0083221435546875	4712.37744210239
0.77880859375	0.0083221435546875	4712.42169210228
0.783233642578125	0.0083221435546875	4712.46594210217
0.78765869140625	0.008319091796875	4712.51019210206
0.792083740234375	0.008319091796875	4712.55444210194
0.7965087890625	0.008319091796875	4712.59869210183
0.800933837890625	0.0083221435546875	4712.64294210172
0.80535888671875	0.008319091796875	4712.68719210161
0.809783935546875	0.0083251953125	4712.7314421015
0.814208984375	0.008331298828125	4712.77569210139
0.818634033203125	0.0083343505859375	4712.81994210127
0.82305908203125	0.00833740234375	4712.86419210116
0.827484130859375	0.0083404541015625	4712.90844210105
0.8319091796875	0.0083465576171875	4712.95269210094
0.836334228515625	0.0083526611328125	4712.99694210083
0.84075927734375	0.0083587646484375	4713.04119210071
0.845184326171875	0.0083648681640625	4713.0854421006
0.849609375	0.0083709716796875	4713.12969210049
0.854034423828125	0.008380126953125	4713.17394210038
0.85845947265625	0.00838623046875	4713.21819210027
0.862884521484375	0.0083953857421875	4713.26244210016
0.8673095703125	0.0084075927734375	4713.30669210004
0.871734619140625	0.0084197998046875	4713.35094209993
0.87615966796875	0.0084320068359375	4713.39519209982
0.880584716796875	0.0084442138671875	4713.43944209971
0.885009765625	0.0084564208984375	4713.4836920996
0.889434814453125	0.0084716796875	4713.52794209949
0.89385986328125	0.0084869384765625	4713.57219209937
0.898284912109375	0.008502197265625	4713.61644209926
0.9027099609375	0.0085174560546875	4713.66069209915
0.907135009765625	0.0085357666015625	4713.70494209904
0.91156005859375	0.00855712890625	4713.74919209893
0.915985107421875	0.008575439453125	4713.79344209882
0.92041015625	0.0085968017578125	4713.8376920987
0.924835205078125	0.0086212158203125	4713.88194209859
0.92926025390625	0.008642578125	4713.92619209848
0.933685302734375	0.0086669921875	4713.97044209837
0.9381103515625	0.008697509765625	4714.01469209826
0.942535400390625	0.0087249755859375	4714.05894209815
0.94696044921875	0.0087554931640625	4714.10319209803
0.951385498046875	0.008782958984375	4714.14744209792
0.955810546875	0.0088134765625	4714.19169209781
0.960235595703125	0.0088470458984375	4714.2359420977
0.96466064453125	0.008880615234375	4714.28019209759
0.969085693359375	0.008917236328125	4714.32444209748
0.9735107421875	0.008953857421875	4714.36869209736
0.977935791015625	0.00899658203125	4714.41294209725
0.98236083984375	0.009039306640625	4714.45719209714
0.986785888671875	0.0090850830078125	4714.50144209703
0.9912109375	0.0091339111328125	4714.54569209692
