Time (s)	WE(1).Potential (V)
1929.99868212722	0.7391357421875
1930.9986821247	0.6439208984375
1931.99868212217	0.55084228515625
1932.99868211965	0.45880126953125
1933.99868211712	0.3671875
1934.9986821146	0.277435302734375
1935.99868211207	0.19012451171875
1936.99868210955	0.106658935546875
1937.99868210702	0.0279632568359375
1938.9986821045	-0.0456390380859375
1939.99868210197	-0.11407470703125
1940.99868209945	-0.177886962890625
1941.99868209692	-0.237030029296875
