Potential applied (V)	WE(1).Current (A)	Time (s)
0.004425048828125	-0.0876617431640625	4716.24185409263
0.00885009765625	-0.0823394775390625	4716.26397909258
0.013275146484375	-0.07821044921875	4716.28610409252
0.0177001953125	-0.0747894287109375	4716.30822909247
0.022125244140625	-0.0717803955078125	4716.33035409241
0.02655029296875	-0.0688507080078125	4716.35247909235
0.030975341796875	-0.0665618896484375	4716.3746040923
0.035400390625	-0.0640167236328125	4716.39672909224
0.039825439453125	-0.0617523193359375	4716.41885409219
0.04425048828125	-0.0594573974609375	4716.44097909213
0.048675537109375	-0.0574462890625	4716.46310409208
0.0531005859375	-0.0553802490234375	4716.48522909202
0.057525634765625	-0.05352783203125	4716.50735409196
0.06195068359375	-0.051678466796875	4716.52947909191
0.066375732421875	-0.0499542236328125	4716.55160409185
0.07080078125	-0.048297119140625	4716.5737290918
0.075225830078125	-0.0466766357421875	4716.59585409174
0.07965087890625	-0.045159912109375	4716.61797909168
0.084075927734375	-0.0436370849609375	4716.64010409163
0.0885009765625	-0.042254638671875	4716.66222909157
0.092926025390625	-0.04083251953125	4716.68435409152
0.09735107421875	-0.0395416259765625	4716.70647909146
0.101776123046875	-0.0382293701171875	4716.72860409141
0.106201171875	-0.0370086669921875	4716.75072909135
0.110626220703125	-0.0357757568359375	4716.77285409129
0.11505126953125	-0.0346221923828125	4716.79497909124
0.119476318359375	-0.0334716796875	4716.81710409118
0.1239013671875	-0.032373046875	4716.83922909113
0.128326416015625	-0.031304931640625	4716.86135409107
0.13275146484375	-0.0302398681640625	4716.88347909101
0.137176513671875	-0.0292510986328125	4716.90560409096
0.1416015625	-0.028216552734375	4716.9277290909
0.146026611328125	-0.0272979736328125	4716.94985409085
0.15045166015625	-0.0263214111328125	4716.97197909079
0.154876708984375	-0.0254547119140625	4716.99410409073
0.1593017578125	-0.024530029296875	4717.01622909068
0.163726806640625	-0.0237060546875	4717.03835409062
0.16815185546875	-0.02283935546875	4717.06047909057
0.172576904296875	-0.0220458984375	4717.08260409051
0.177001953125	-0.0212310791015625	4717.10472909046
0.181427001953125	-0.020458984375	4717.1268540904
0.18585205078125	-0.0196929931640625	4717.14897909034
0.190277099609375	-0.0189422607421875	4717.17110409029
0.1947021484375	-0.0182281494140625	4717.19322909023
0.199127197265625	-0.0175048828125	4717.21535409018
0.20355224609375	-0.016827392578125	4717.23747909012
0.207977294921875	-0.0161376953125	4717.25960409006
0.21240234375	-0.0154876708984375	4717.28172909001
0.216827392578125	-0.0148284912109375	4717.30385408995
0.22125244140625	-0.014208984375	4717.3259790899
0.225677490234375	-0.0135833740234375	4717.34810408984
0.2301025390625	-0.012982177734375	4717.37022908979
0.234527587890625	-0.01239013671875	4717.39235408973
0.23895263671875	-0.01180419921875	4717.41447908967
0.243377685546875	-0.01124267578125	4717.43660408962
0.247802734375	-0.0106842041015625	4717.45872908956
0.252227783203125	-0.01014404296875	4717.48085408951
0.25665283203125	-0.00960693359375	4717.50297908945
0.261077880859375	-0.0090911865234375	4717.52510408939
0.2655029296875	-0.008575439453125	4717.54722908934
0.269927978515625	-0.008074951171875	4717.56935408928
0.27435302734375	-0.007586669921875	4717.59147908923
0.278778076171875	-0.0071044921875	4717.61360408917
0.283203125	-0.0066375732421875	4717.63572908911
0.287628173828125	-0.0061737060546875	4717.65785408906
0.29205322265625	-0.0057220458984375	4717.679979089
0.296478271484375	-0.0052764892578125	4717.70210408895
0.3009033203125	-0.0048443603515625	4717.72422908889
0.305328369140625	-0.00441802978515625	4717.74635408884
0.30975341796875	-0.0040020751953125	4717.76847908878
0.314178466796875	-0.0035882568359375	4717.79060408872
0.318603515625	-0.0031890869140625	4717.81272908867
0.323028564453125	-0.00280609130859375	4717.83485408861
0.32745361328125	-0.002420654296875	4717.85697908856
0.331878662109375	-0.00204132080078125	4717.8791040885
0.3363037109375	-0.001669921875	4717.90122908844
0.340728759765625	-0.001304931640625	4717.92335408839
0.34515380859375	-0.0009478759765625	4717.94547908833
0.349578857421875	-0.0005975341796875	4717.96760408828
0.35400390625	-0.00025604248046875	4717.98972908822
0.358428955078125	8.184814453125E-05	4718.01185408816
0.36285400390625	0.00041192626953125	4718.03397908811
0.367279052734375	0.00073760986328125	4718.05610408805
0.3717041015625	0.0010552978515625	4718.078229088
0.376129150390625	0.00136962890625	4718.10035408794
0.38055419921875	0.00167694091796875	4718.12247908789
0.384979248046875	0.00197906494140625	4718.14460408783
0.389404296875	0.0022747802734375	4718.16672908777
0.393829345703125	0.00256103515625	4718.18885408772
0.39825439453125	0.0028436279296875	4718.21097908766
0.402679443359375	0.00312164306640625	4718.23310408761
0.4071044921875	0.00339813232421875	4718.25522908755
0.411529541015625	0.0036651611328125	4718.2773540875
0.41595458984375	0.00392822265625	4718.29947908744
0.420379638671875	0.00418304443359375	4718.32160408738
0.4248046875	0.00443572998046875	4718.34372908733
0.429229736328125	0.00468048095703125	4718.36585408727
0.43365478515625	0.0049224853515625	4718.38797908722
0.438079833984375	0.00515869140625	4718.41010408716
0.4425048828125	0.00539031982421875	4718.4322290871
0.446929931640625	0.00561676025390625	4718.45435408705
0.45135498046875	0.00583770751953125	4718.47647908699
0.455780029296875	0.00605804443359375	4718.49860408694
0.460205078125	0.006256103515625	4718.52072908688
0.464630126953125	0.0064697265625	4718.54285408682
0.46905517578125	0.006671142578125	4718.56497908677
0.473480224609375	0.0068756103515625	4718.58710408671
0.4779052734375	0.0070709228515625	4718.60922908666
0.482330322265625	0.0072662353515625	4718.6313540866
0.48675537109375	0.007452392578125	4718.65347908655
0.491180419921875	0.007635498046875	4718.67560408649
0.49560546875	0.007818603515625	4718.69772908643
0.500030517578125	0.0080047607421875	4718.71985408638
0.50445556640625	0.00819091796875	4718.74197908632
0.508880615234375	0.0083648681640625	4718.76410408627
0.5133056640625	0.00853271484375	4718.78622908621
0.517730712890625	0.008685302734375	4718.80835408615
0.52215576171875	0.0088409423828125	4718.8304790861
0.526580810546875	0.008990478515625	4718.85260408604
0.531005859375	0.009136962890625	4718.87472908599
0.535430908203125	0.0092803955078125	4718.89685408593
0.53985595703125	0.0094207763671875	4718.91897908587
0.544281005859375	0.0095611572265625	4718.94110408582
0.5487060546875	0.009698486328125	4718.96322908576
0.553131103515625	0.009832763671875	4718.98535408571
0.55755615234375	0.009967041015625	4719.00747908565
0.561981201171875	0.0100982666015625	4719.0296040856
0.56640625	0.0102264404296875	4719.05172908554
0.570831298828125	0.01036376953125	4719.07385408548
0.57525634765625	0.010479736328125	4719.09597908543
0.579681396484375	0.0106048583984375	4719.11810408537
0.5841064453125	0.0107147216796875	4719.14022908532
0.588531494140625	0.0108306884765625	4719.16235408526
0.59295654296875	0.0109375	4719.1844790852
0.597381591796875	0.0110443115234375	4719.20660408515
0.601806640625	0.0111480712890625	4719.22872908509
0.606231689453125	0.011248779296875	4719.25085408504
0.61065673828125	0.0113525390625	4719.27297908498
0.615081787109375	0.0114471435546875	4719.29510408493
0.6195068359375	0.0115447998046875	4719.31722908487
0.623931884765625	0.01163330078125	4719.33935408481
0.62835693359375	0.0117340087890625	4719.36147908476
0.632781982421875	0.0118133544921875	4719.3836040847
0.63720703125	0.011907958984375	4719.40572908465
0.641632080078125	0.011993408203125	4719.42785408459
0.64605712890625	0.0120819091796875	4719.44997908453
0.650482177734375	0.0121673583984375	4719.47210408448
0.6549072265625	0.0122467041015625	4719.49422908442
0.659332275390625	0.0123321533203125	4719.51635408437
0.66375732421875	0.0124114990234375	4719.53847908431
0.668182373046875	0.01248779296875	4719.56060408425
0.672607421875	0.012548828125	4719.5827290842
0.677032470703125	0.012615966796875	4719.60485408414
0.68145751953125	0.0126708984375	4719.62697908409
0.685882568359375	0.0127410888671875	4719.64910408403
0.6903076171875	0.012811279296875	4719.67122908398
0.694732666015625	0.012890625	4719.69335408392
0.69915771484375	0.0129638671875	4719.71547908386
0.703582763671875	0.013037109375	4719.73760408381
0.7080078125	0.013092041015625	4719.75972908375
0.712432861328125	0.0131561279296875	4719.7818540837
0.71685791015625	0.0132110595703125	4719.80397908364
0.721282958984375	0.013262939453125	4719.82610408358
0.7257080078125	0.01331787109375	4719.84822908353
0.730133056640625	0.01336669921875	4719.87035408347
0.73455810546875	0.013421630859375	4719.89247908342
0.738983154296875	0.01346435546875	4719.91460408336
0.743408203125	0.0135162353515625	4719.93672908331
0.747833251953125	0.0135589599609375	4719.95885408325
0.75225830078125	0.01361083984375	4719.98097908319
0.756683349609375	0.0136505126953125	4720.00310408314
0.7611083984375	0.0136993408203125	4720.02522908308
0.765533447265625	0.013739013671875	4720.04735408303
0.76995849609375	0.01378173828125	4720.06947908297
0.774383544921875	0.0138275146484375	4720.09160408291
0.77880859375	0.0138671875	4720.11372908286
0.783233642578125	0.0139068603515625	4720.1358540828
0.78765869140625	0.0139373779296875	4720.15797908275
0.792083740234375	0.013983154296875	4720.18010408269
0.7965087890625	0.0140106201171875	4720.20222908264
0.800933837890625	0.0140533447265625	4720.22435408258
0.80535888671875	0.0140777587890625	4720.24647908252
0.809783935546875	0.0141204833984375	4720.26860408247
0.814208984375	0.01414794921875	4720.29072908241
0.818634033203125	0.0141815185546875	4720.31285408236
0.82305908203125	0.0142120361328125	4720.3349790823
0.827484130859375	0.0142425537109375	4720.35710408224
0.8319091796875	0.014276123046875	4720.37922908219
0.836334228515625	0.0142974853515625	4720.40135408213
0.84075927734375	0.014337158203125	4720.42347908208
0.845184326171875	0.0143524169921875	4720.44560408202
0.849609375	0.01439208984375	4720.46772908196
0.854034423828125	0.014410400390625	4720.48985408191
0.85845947265625	0.0144439697265625	4720.51197908185
0.862884521484375	0.01446533203125	4720.5341040818
0.8673095703125	0.014495849609375	4720.55622908174
0.871734619140625	0.014520263671875	4720.57835408169
0.87615966796875	0.0145477294921875	4720.60047908163
0.880584716796875	0.0145751953125	4720.62260408157
0.885009765625	0.0145965576171875	4720.64472908152
0.889434814453125	0.0146270751953125	4720.66685408146
0.89385986328125	0.014642333984375	4720.68897908141
0.898284912109375	0.0146728515625	4720.71110408135
0.9027099609375	0.0146881103515625	4720.73322908129
0.907135009765625	0.014727783203125	4720.75535408124
0.91156005859375	0.014739990234375	4720.77747908118
0.915985107421875	0.014776611328125	4720.79960408113
0.92041015625	0.014794921875	4720.82172908107
0.924835205078125	0.014825439453125	4720.84385408101
0.92926025390625	0.0148468017578125	4720.86597908096
0.933685302734375	0.0148712158203125	4720.8881040809
0.9381103515625	0.01490478515625	4720.91022908085
0.942535400390625	0.0149200439453125	4720.93235408079
0.94696044921875	0.01495361328125	4720.95447908074
0.951385498046875	0.0149688720703125	4720.97660408068
0.955810546875	0.0150115966796875	4720.99872908062
0.960235595703125	0.0150238037109375	4721.02085408057
0.96466064453125	0.0150604248046875	4721.04297908051
0.969085693359375	0.0150848388671875	4721.06510408046
0.9735107421875	0.015118408203125	4721.0872290804
0.977935791015625	0.015142822265625	4721.10935408034
0.98236083984375	0.0151763916015625	4721.13147908029
0.986785888671875	0.0152099609375	4721.15360408023
0.9912109375	0.015234375	4721.17572908018
0.995635986328125	0.0152740478515625	4721.19785408012
1.00006103515625	0.0152984619140625	4721.21997908007
0.995635986328125	0.014544677734375	4721.24210408001
0.9912109375	0.013818359375	4721.26422907995
0.986785888671875	0.0131378173828125	4721.2863540799
0.98236083984375	0.0124664306640625	4721.30847907984
0.977935791015625	0.01182861328125	4721.33060407979
0.9735107421875	0.0112060546875	4721.35272907973
0.969085693359375	0.01060791015625	4721.37485407967
0.96466064453125	0.01002197265625	4721.39697907962
0.960235595703125	0.0094512939453125	4721.41910407956
0.955810546875	0.008905029296875	4721.44122907951
0.951385498046875	0.00836181640625	4721.46335407945
0.94696044921875	0.007843017578125	4721.4854790794
0.942535400390625	0.007330322265625	4721.50760407934
0.9381103515625	0.0068389892578125	4721.52972907928
0.933685302734375	0.00634765625	4721.55185407923
0.92926025390625	0.0058807373046875	4721.57397907917
0.924835205078125	0.005419921875	4721.59610407912
0.92041015625	0.00497100830078125	4721.61822907906
0.915985107421875	0.004532470703125	4721.640354079
0.91156005859375	0.004105224609375	4721.66247907895
0.907135009765625	0.0036871337890625	4721.68460407889
0.9027099609375	0.00327911376953125	4721.70672907884
0.898284912109375	0.0028851318359375	4721.72885407878
0.89385986328125	0.00249298095703125	4721.75097907872
0.889434814453125	0.00211273193359375	4721.77310407867
0.885009765625	0.00173919677734375	4721.79522907861
0.880584716796875	0.00137603759765625	4721.81735407856
0.87615966796875	0.001019287109375	4721.8394790785
0.871734619140625	0.00067138671875	4721.86160407845
0.8673095703125	0.00033056640625	4721.88372907839
0.862884521484375	-2.60314941406251E-06	4721.90585407833
0.85845947265625	-0.00032696533203125	4721.92797907828
0.854034423828125	-0.0006451416015625	4721.95010407822
0.849609375	-0.00095794677734375	4721.97222907817
0.845184326171875	-0.00126129150390625	4721.99435407811
0.84075927734375	-0.00156036376953125	4722.01647907805
0.836334228515625	-0.0018511962890625	4722.038604078
0.8319091796875	-0.0021380615234375	4722.06072907794
0.827484130859375	-0.00241485595703125	4722.08285407789
0.82305908203125	-0.002689208984375	4722.10497907783
0.818634033203125	-0.00295562744140625	4722.12710407778
0.814208984375	-0.0032171630859375	4722.14922907772
0.809783935546875	-0.00347137451171875	4722.17135407766
0.80535888671875	-0.003721923828125	4722.19347907761
0.800933837890625	-0.00396697998046875	4722.21560407755
0.7965087890625	-0.0042041015625	4722.2377290775
0.792083740234375	-0.0044390869140625	4722.25985407744
0.78765869140625	-0.00466552734375	4722.28197907738
0.783233642578125	-0.0048907470703125	4722.30410407733
0.77880859375	-0.00510589599609375	4722.32622907727
0.774383544921875	-0.0053228759765625	4722.34835407722
0.76995849609375	-0.005528564453125	4722.37047907716
0.765533447265625	-0.00573638916015625	4722.3926040771
0.7611083984375	-0.00593231201171875	4722.41472907705
0.756683349609375	-0.00613006591796875	4722.43685407699
0.75225830078125	-0.0062957763671875	4722.45897907694
0.747833251953125	-0.00648193359375	4722.48110407688
0.743408203125	-0.0066680908203125	4722.50322907683
0.738983154296875	-0.006842041015625	4722.52535407677
0.73455810546875	-0.00701904296875	4722.54747907671
0.730133056640625	-0.007183837890625	4722.56960407666
0.7257080078125	-0.007354736328125	4722.5917290766
0.721282958984375	-0.0075164794921875	4722.61385407655
0.71685791015625	-0.00767822265625	4722.63597907649
0.712432861328125	-0.0078277587890625	4722.65810407643
0.7080078125	-0.0079803466796875	4722.68022907638
0.703582763671875	-0.0081298828125	4722.70235407632
0.69915771484375	-0.0082763671875	4722.72447907627
0.694732666015625	-0.0084197998046875	4722.74660407621
0.6903076171875	-0.00855712890625	4722.76872907616
0.685882568359375	-0.008697509765625	4722.7908540761
0.68145751953125	-0.0088287353515625	4722.81297907604
0.677032470703125	-0.008966064453125	4722.83510407599
0.672607421875	-0.0090911865234375	4722.85722907593
0.668182373046875	-0.0092254638671875	4722.87935407588
0.66375732421875	-0.00933837890625	4722.90147907582
0.659332275390625	-0.0094635009765625	4722.92360407576
0.6549072265625	-0.0095794677734375	4722.94572907571
0.650482177734375	-0.009698486328125	4722.96785407565
0.64605712890625	-0.0098114013671875	4722.9899790756
0.641632080078125	-0.0099212646484375	4723.01210407554
0.63720703125	-0.0100311279296875	4723.03422907549
0.632781982421875	-0.0101348876953125	4723.05635407543
0.62835693359375	-0.0102447509765625	4723.07847907537
0.623931884765625	-0.010345458984375	4723.10060407532
0.6195068359375	-0.0104522705078125	4723.12272907526
0.615081787109375	-0.010546875	4723.14485407521
0.61065673828125	-0.0106475830078125	4723.16697907515
0.606231689453125	-0.010736083984375	4723.18910407509
0.601806640625	-0.01083984375	4723.21122907504
0.597381591796875	-0.0109344482421875	4723.23335407498
0.59295654296875	-0.0110260009765625	4723.25547907493
0.588531494140625	-0.0111175537109375	4723.27760407487
0.5841064453125	-0.0112060546875	4723.29972907481
0.579681396484375	-0.011297607421875	4723.32185407476
0.57525634765625	-0.011383056640625	4723.3439790747
0.570831298828125	-0.0114654541015625	4723.36610407465
0.56640625	-0.0115386962890625	4723.38822907459
0.561981201171875	-0.011627197265625	4723.41035407454
0.55755615234375	-0.011700439453125	4723.43247907448
0.553131103515625	-0.011785888671875	4723.45460407442
0.5487060546875	-0.011859130859375	4723.47672907437
0.544281005859375	-0.0119384765625	4723.49885407431
0.53985595703125	-0.0120147705078125	4723.52097907426
0.535430908203125	-0.012091064453125	4723.5431040742
0.531005859375	-0.0121673583984375	4723.56522907414
0.526580810546875	-0.012237548828125	4723.58735407409
0.52215576171875	-0.0123077392578125	4723.60947907403
0.517730712890625	-0.0123779296875	4723.63160407398
0.5133056640625	-0.012451171875	4723.65372907392
0.508880615234375	-0.0125152587890625	4723.67585407386
0.50445556640625	-0.0125885009765625	4723.69797907381
0.500030517578125	-0.012652587890625	4723.72010407375
0.49560546875	-0.0127227783203125	4723.7422290737
0.491180419921875	-0.0127899169921875	4723.76435407364
0.48675537109375	-0.0128570556640625	4723.78647907359
0.482330322265625	-0.0129241943359375	4723.80860407353
0.4779052734375	-0.0129852294921875	4723.83072907347
0.473480224609375	-0.01304931640625	4723.85285407342
0.46905517578125	-0.0131072998046875	4723.87497907336
0.464630126953125	-0.01317138671875	4723.89710407331
0.460205078125	-0.0132232666015625	4723.91922907325
0.455780029296875	-0.013287353515625	4723.94135407319
0.45135498046875	-0.0133392333984375	4723.96347907314
0.446929931640625	-0.0134033203125	4723.98560407308
0.4425048828125	-0.0134552001953125	4724.00772907303
0.438079833984375	-0.0135162353515625	4724.02985407297
0.43365478515625	-0.013568115234375	4724.05197907291
0.429229736328125	-0.013623046875	4724.07410407286
0.4248046875	-0.0136810302734375	4724.0962290728
0.420379638671875	-0.01373291015625	4724.11835407275
0.41595458984375	-0.0137908935546875	4724.14047907269
0.411529541015625	-0.0138397216796875	4724.16260407264
0.4071044921875	-0.0139007568359375	4724.18472907258
0.402679443359375	-0.0139404296875	4724.20685407252
0.39825439453125	-0.01400146484375	4724.22897907247
0.393829345703125	-0.014044189453125	4724.25110407241
0.389404296875	-0.01409912109375	4724.27322907236
0.384979248046875	-0.01414794921875	4724.2953540723
0.38055419921875	-0.0141998291015625	4724.31747907225
0.376129150390625	-0.014251708984375	4724.33960407219
0.3717041015625	-0.0142974853515625	4724.36172907213
0.367279052734375	-0.014349365234375	4724.38385407208
0.36285400390625	-0.0143951416015625	4724.40597907202
0.358428955078125	-0.014453125	4724.42810407197
0.35400390625	-0.0144927978515625	4724.45022907191
0.349578857421875	-0.014544677734375	4724.47235407185
0.34515380859375	-0.01458740234375	4724.4944790718
0.340728759765625	-0.014642333984375	4724.51660407174
0.3363037109375	-0.0146881103515625	4724.53872907169
0.331878662109375	-0.014739990234375	4724.56085407163
0.32745361328125	-0.0147796630859375	4724.58297907157
0.323028564453125	-0.014825439453125	4724.60510407152
0.318603515625	-0.014874267578125	4724.62722907146
0.314178466796875	-0.0149200439453125	4724.64935407141
0.30975341796875	-0.0149688720703125	4724.67147907135
0.305328369140625	-0.015008544921875	4724.6936040713
0.3009033203125	-0.0150604248046875	4724.71572907124
0.296478271484375	-0.0150970458984375	4724.73785407118
0.29205322265625	-0.01514892578125	4724.75997907113
0.287628173828125	-0.0151885986328125	4724.78210407107
0.283203125	-0.0152374267578125	4724.80422907102
0.278778076171875	-0.0152801513671875	4724.82635407096
0.27435302734375	-0.0153289794921875	4724.8484790709
0.269927978515625	-0.015374755859375	4724.87060407085
0.2655029296875	-0.0154144287109375	4724.89272907079
0.261077880859375	-0.015460205078125	4724.91485407074
0.25665283203125	-0.0155059814453125	4724.93697907068
0.252227783203125	-0.0155517578125	4724.95910407063
0.247802734375	-0.0155914306640625	4724.98122907057
0.243377685546875	-0.01563720703125	4725.00335407051
0.23895263671875	-0.0156707763671875	4725.02547907046
0.234527587890625	-0.0157257080078125	4725.0476040704
0.2301025390625	-0.0157623291015625	4725.06972907035
0.225677490234375	-0.0158111572265625	4725.09185407029
0.22125244140625	-0.015850830078125	4725.11397907023
0.216827392578125	-0.0158966064453125	4725.13610407018
0.21240234375	-0.0159423828125	4725.15822907012
0.207977294921875	-0.0159820556640625	4725.18035407007
0.20355224609375	-0.0160308837890625	4725.20247907001
0.199127197265625	-0.0160675048828125	4725.22460406995
0.1947021484375	-0.0161224365234375	4725.2467290699
0.190277099609375	-0.016156005859375	4725.26885406984
0.18585205078125	-0.0162078857421875	4725.29097906979
0.181427001953125	-0.0162445068359375	4725.31310406973
0.177001953125	-0.01629638671875	4725.33522906968
0.172576904296875	-0.0163360595703125	4725.35735406962
0.16815185546875	-0.0163848876953125	4725.37947906956
0.163726806640625	-0.0164276123046875	4725.40160406951
0.1593017578125	-0.0164764404296875	4725.42372906945
0.154876708984375	-0.0165191650390625	4725.4458540694
0.15045166015625	-0.0165618896484375	4725.46797906934
0.146026611328125	-0.0166107177734375	4725.49010406928
0.1416015625	-0.0166534423828125	4725.51222906923
0.137176513671875	-0.016705322265625	4725.53435406917
0.13275146484375	-0.0167449951171875	4725.55647906912
0.128326416015625	-0.016802978515625	4725.57860406906
0.1239013671875	-0.016845703125	4725.600729069
0.119476318359375	-0.01689453125	4725.62285406895
0.11505126953125	-0.016937255859375	4725.64497906889
0.110626220703125	-0.0169891357421875	4725.66710406884
0.106201171875	-0.017041015625	4725.68922906878
0.101776123046875	-0.0170867919921875	4725.71135406873
0.09735107421875	-0.0171356201171875	4725.73347906867
0.092926025390625	-0.0171783447265625	4725.75560406861
0.0885009765625	-0.017230224609375	4725.77772906856
0.084075927734375	-0.0172698974609375	4725.7998540685
0.07965087890625	-0.0173309326171875	4725.82197906845
0.075225830078125	-0.01737060546875	4725.84410406839
0.07080078125	-0.017431640625	4725.86622906834
0.066375732421875	-0.017474365234375	4725.88835406828
0.06195068359375	-0.017535400390625	4725.91047906822
0.057525634765625	-0.0175811767578125	4725.93260406817
0.0531005859375	-0.01763916015625	4725.95472906811
0.048675537109375	-0.0176910400390625	4725.97685406806
0.04425048828125	-0.01773681640625	4725.998979068
0.039825439453125	-0.0177947998046875	4726.02110406794
0.035400390625	-0.017840576171875	4726.04322906789
0.030975341796875	-0.0179046630859375	4726.06535406783
0.02655029296875	-0.0179443359375	4726.08747906778
0.022125244140625	-0.0180145263671875	4726.10960406772
0.0177001953125	-0.0180572509765625	4726.13172906766
0.013275146484375	-0.0181243896484375	4726.15385406761
0.00885009765625	-0.0181732177734375	4726.17597906755
0.004425048828125	-0.0182342529296875	4726.1981040675
0	-0.0182891845703125	4726.22022906744
0.004425048828125	-0.0175323486328125	4726.24235406739
0.00885009765625	-0.016827392578125	4726.26447906733
0.013275146484375	-0.01612548828125	4726.28660406727
0.0177001953125	-0.0154632568359375	4726.30872906722
0.022125244140625	-0.01480712890625	4726.33085406716
0.02655029296875	-0.0141754150390625	4726.35297906711
0.030975341796875	-0.0135528564453125	4726.37510406705
0.035400390625	-0.012957763671875	4726.39722906699
0.039825439453125	-0.01236572265625	4726.41935406694
0.04425048828125	-0.0117919921875	4726.44147906688
0.048675537109375	-0.011224365234375	4726.46360406683
0.0531005859375	-0.0106781005859375	4726.48572906677
0.057525634765625	-0.010137939453125	4726.50785406671
0.06195068359375	-0.00960693359375	4726.52997906666
0.066375732421875	-0.0090972900390625	4726.5521040666
0.07080078125	-0.0085845947265625	4726.57422906655
0.075225830078125	-0.00809326171875	4726.59635406649
0.07965087890625	-0.00760498046875	4726.61847906644
0.084075927734375	-0.00712890625	4726.64060406638
0.0885009765625	-0.006658935546875	4726.66272906632
0.092926025390625	-0.0062042236328125	4726.68485406627
0.09735107421875	-0.00574951171875	4726.70697906621
0.101776123046875	-0.00531005859375	4726.72910406616
0.106201171875	-0.00487518310546875	4726.7512290661
0.110626220703125	-0.00444854736328125	4726.77335406604
0.11505126953125	-0.004029541015625	4726.79547906599
0.119476318359375	-0.003619384765625	4726.81760406593
0.1239013671875	-0.0032159423828125	4726.83972906588
0.128326416015625	-0.0028289794921875	4726.86185406582
0.13275146484375	-0.00243927001953125	4726.88397906576
0.137176513671875	-0.0020538330078125	4726.90610406571
0.1416015625	-0.00167724609375	4726.92822906565
0.146026611328125	-0.0013055419921875	4726.9503540656
0.15045166015625	-0.00094207763671875	4726.97247906554
0.154876708984375	-0.00058319091796875	4726.99460406549
0.1593017578125	-0.00023175048828125	4727.01672906543
0.163726806640625	0.00011431884765625	4727.03885406537
0.16815185546875	0.000454376220703125	4727.06097906532
0.172576904296875	0.00078948974609375	4727.08310406526
0.177001953125	0.00111785888671875	4727.10522906521
0.181427001953125	0.00144317626953125	4727.12735406515
0.18585205078125	0.00176177978515625	4727.14947906509
0.190277099609375	0.00207672119140625	4727.17160406504
0.1947021484375	0.0023828125	4727.19372906498
0.199127197265625	0.00268646240234375	4727.21585406493
0.20355224609375	0.00298187255859375	4727.23797906487
0.207977294921875	0.0032757568359375	4727.26010406482
0.21240234375	0.00356475830078125	4727.28222906476
0.216827392578125	0.00384613037109375	4727.3043540647
0.22125244140625	0.00412445068359375	4727.32647906465
0.225677490234375	0.00439422607421875	4727.34860406459
0.2301025390625	0.0046630859375	4727.37072906454
0.234527587890625	0.00492034912109375	4727.39285406448
0.23895263671875	0.005179443359375	4727.41497906442
0.243377685546875	0.0054302978515625	4727.43710406437
0.247802734375	0.00567962646484375	4727.45922906431
0.252227783203125	0.00592254638671875	4727.48135406426
0.25665283203125	0.00616485595703125	4727.5034790642
0.261077880859375	0.00638427734375	4727.52560406415
0.2655029296875	0.0066192626953125	4727.54772906409
0.269927978515625	0.0068450927734375	4727.56985406403
0.27435302734375	0.0070648193359375	4727.59197906398
0.278778076171875	0.00728759765625	4727.61410406392
0.283203125	0.0074981689453125	4727.63622906387
0.287628173828125	0.00771484375	4727.65835406381
0.29205322265625	0.0079132080078125	4727.68047906375
0.296478271484375	0.0081207275390625	4727.7026040637
0.3009033203125	0.0083160400390625	4727.72472906364
0.305328369140625	0.0085205078125	4727.74685406359
0.30975341796875	0.0087127685546875	4727.76897906353
0.314178466796875	0.0089080810546875	4727.79110406348
0.318603515625	0.00909423828125	4727.81322906342
0.323028564453125	0.0092742919921875	4727.83535406336
0.32745361328125	0.0094482421875	4727.85747906331
0.331878662109375	0.009619140625	4727.87960406325
0.3363037109375	0.0097900390625	4727.9017290632
0.340728759765625	0.00994873046875	4727.92385406314
0.34515380859375	0.0101165771484375	4727.94597906308
0.349578857421875	0.0102691650390625	4727.96810406303
0.35400390625	0.0104278564453125	4727.99022906297
0.358428955078125	0.010577392578125	4728.01235406292
0.36285400390625	0.0107269287109375	4728.03447906286
0.367279052734375	0.010870361328125	4728.0566040628
0.3717041015625	0.0110107421875	4728.07872906275
0.376129150390625	0.0111480712890625	4728.10085406269
0.38055419921875	0.0112823486328125	4728.12297906264
0.384979248046875	0.011419677734375	4728.14510406258
0.389404296875	0.0115447998046875	4728.16722906253
0.393829345703125	0.0116729736328125	4728.18935406247
0.39825439453125	0.0117889404296875	4728.21147906241
0.402679443359375	0.0119171142578125	4728.23360406236
0.4071044921875	0.012030029296875	4728.2557290623
0.411529541015625	0.0121551513671875	4728.27785406225
0.41595458984375	0.0122711181640625	4728.29997906219
0.420379638671875	0.0123870849609375	4728.32210406213
0.4248046875	0.0124969482421875	4728.34422906208
0.429229736328125	0.0126129150390625	4728.36635406202
0.43365478515625	0.012725830078125	4728.38847906197
0.438079833984375	0.0128265380859375	4728.41060406191
0.4425048828125	0.0129302978515625	4728.43272906185
0.446929931640625	0.0130218505859375	4728.4548540618
0.45135498046875	0.01312255859375	4728.47697906174
0.455780029296875	0.0132110595703125	4728.49910406169
0.460205078125	0.0133026123046875	4728.52122906163
0.464630126953125	0.013385009765625	4728.54335406158
0.46905517578125	0.0134735107421875	4728.56547906152
0.473480224609375	0.0135498046875	4728.58760406146
0.4779052734375	0.01363525390625	4728.60972906141
0.482330322265625	0.0137054443359375	4728.63185406135
0.48675537109375	0.0137847900390625	4728.6539790613
0.491180419921875	0.0138580322265625	4728.67610406124
0.49560546875	0.0139251708984375	4728.69822906118
0.500030517578125	0.0140045166015625	4728.72035406113
0.50445556640625	0.01407470703125	4728.74247906107
0.508880615234375	0.0141510009765625	4728.76460406102
0.5133056640625	0.0142059326171875	4728.78672906096
0.517730712890625	0.0142791748046875	4728.80885406091
0.52215576171875	0.0143402099609375	4728.83097906085
0.526580810546875	0.0144073486328125	4728.85310406079
0.531005859375	0.0144683837890625	4728.87522906074
0.535430908203125	0.014520263671875	4728.89735406068
0.53985595703125	0.0145660400390625	4728.91947906063
0.544281005859375	0.0146087646484375	4728.94160406057
0.5487060546875	0.014654541015625	4728.96372906051
0.553131103515625	0.014697265625	4728.98585406046
0.55755615234375	0.0147613525390625	4729.0079790604
0.561981201171875	0.0148101806640625	4729.03010406035
0.56640625	0.0148773193359375	4729.05222906029
0.570831298828125	0.014923095703125	4729.07435406024
0.57525634765625	0.0149749755859375	4729.09647906018
0.579681396484375	0.015008544921875	4729.11860406012
0.5841064453125	0.01505126953125	4729.14072906007
0.588531494140625	0.0150848388671875	4729.16285406001
0.59295654296875	0.0151214599609375	4729.18497905996
0.597381591796875	0.0151580810546875	4729.2071040599
0.601806640625	0.015185546875	4729.22922905984
0.606231689453125	0.0152252197265625	4729.25135405979
0.61065673828125	0.0152496337890625	4729.27347905973
0.615081787109375	0.0152862548828125	4729.29560405968
0.6195068359375	0.015313720703125	4729.31772905962
0.623931884765625	0.01534423828125	4729.33985405956
0.62835693359375	0.0153717041015625	4729.36197905951
0.632781982421875	0.0154022216796875	4729.38410405945
0.63720703125	0.015423583984375	4729.4062290594
0.641632080078125	0.0154510498046875	4729.42835405934
0.64605712890625	0.015472412109375	4729.45047905929
0.650482177734375	0.01549072265625	4729.47260405923
0.6549072265625	0.01551513671875	4729.49472905917
0.659332275390625	0.0155303955078125	4729.51685405912
0.66375732421875	0.0155548095703125	4729.53897905906
0.668182373046875	0.0155670166015625	4729.56110405901
0.672607421875	0.015594482421875	4729.58322905895
0.677032470703125	0.015606689453125	4729.60535405889
0.68145751953125	0.015625	4729.62747905884
0.685882568359375	0.0156341552734375	4729.64960405878
0.6903076171875	0.0156524658203125	4729.67172905873
0.694732666015625	0.0156646728515625	4729.69385405867
0.69915771484375	0.0156768798828125	4729.71597905861
0.703582763671875	0.0156890869140625	4729.73810405856
0.7080078125	0.0156982421875	4729.7602290585
0.712432861328125	0.0157135009765625	4729.78235405845
0.71685791015625	0.015716552734375	4729.80447905839
0.721282958984375	0.0157379150390625	4729.82660405834
0.7257080078125	0.01573486328125	4729.84872905828
0.730133056640625	0.0157562255859375	4729.87085405822
0.73455810546875	0.0157562255859375	4729.89297905817
0.738983154296875	0.0157745361328125	4729.91510405811
0.743408203125	0.0157745361328125	4729.93722905806
0.747833251953125	0.0157867431640625	4729.959354058
0.75225830078125	0.0157928466796875	4729.98147905794
0.756683349609375	0.0157958984375	4730.00360405789
0.7611083984375	0.0158111572265625	4730.02572905783
0.765533447265625	0.01580810546875	4730.04785405778
0.76995849609375	0.0158172607421875	4730.06997905772
0.774383544921875	0.015814208984375	4730.09210405766
0.77880859375	0.0158294677734375	4730.11422905761
0.783233642578125	0.0158294677734375	4730.13635405755
0.78765869140625	0.015838623046875	4730.1584790575
0.792083740234375	0.015838623046875	4730.18060405744
0.7965087890625	0.0158477783203125	4730.20272905739
0.800933837890625	0.0158477783203125	4730.22485405733
0.80535888671875	0.01585693359375	4730.24697905727
0.809783935546875	0.015863037109375	4730.26910405722
0.814208984375	0.015863037109375	4730.29122905716
0.818634033203125	0.015869140625	4730.31335405711
0.82305908203125	0.015869140625	4730.33547905705
0.827484130859375	0.0158782958984375	4730.357604057
0.8319091796875	0.015875244140625	4730.37972905694
0.836334228515625	0.0158843994140625	4730.40185405688
0.84075927734375	0.0158782958984375	4730.42397905683
0.845184326171875	0.0158905029296875	4730.44610405677
0.849609375	0.015887451171875	4730.46822905672
0.854034423828125	0.0158966064453125	4730.49035405666
0.85845947265625	0.0158966064453125	4730.5124790566
0.862884521484375	0.0158966064453125	4730.53460405655
0.8673095703125	0.0159027099609375	4730.55672905649
0.871734619140625	0.0159027099609375	4730.57885405644
0.87615966796875	0.01591796875	4730.60097905638
0.880584716796875	0.0159149169921875	4730.62310405633
0.885009765625	0.015924072265625	4730.64522905627
0.889434814453125	0.015924072265625	4730.66735405621
0.89385986328125	0.015936279296875	4730.68947905616
0.898284912109375	0.015936279296875	4730.7116040561
0.9027099609375	0.0159454345703125	4730.73372905605
0.907135009765625	0.015948486328125	4730.75585405599
0.91156005859375	0.0159576416015625	4730.77797905593
0.915985107421875	0.0159637451171875	4730.80010405588
0.92041015625	0.015972900390625	4730.82222905582
0.924835205078125	0.0159820556640625	4730.84435405577
0.92926025390625	0.0159881591796875	4730.86647905571
0.933685302734375	0.0160003662109375	4730.88860405565
0.9381103515625	0.016009521484375	4730.9107290556
0.942535400390625	0.0160247802734375	4730.93285405554
0.94696044921875	0.0160308837890625	4730.95497905549
0.951385498046875	0.01605224609375	4730.97710405543
0.955810546875	0.016058349609375	4730.99922905538
0.960235595703125	0.016070556640625	4731.02135405532
0.96466064453125	0.0160858154296875	4731.04347905526
0.969085693359375	0.0160980224609375	4731.06560405521
0.9735107421875	0.0161163330078125	4731.08772905515
0.977935791015625	0.01612548828125	4731.1098540551
0.98236083984375	0.01614990234375	4731.13197905504
0.986785888671875	0.0161590576171875	4731.15410405498
0.9912109375	0.0161865234375	4731.17622905493
0.995635986328125	0.01619873046875	4731.19835405487
1.00006103515625	0.0162322998046875	4731.22047905482
0.995635986328125	0.0154541015625	4731.24260405476
0.9912109375	0.0147247314453125	4731.2647290547
0.986785888671875	0.0140228271484375	4731.28685405465
0.98236083984375	0.013348388671875	4731.30897905459
0.977935791015625	0.0126953125	4731.33110405454
0.9735107421875	0.012066650390625	4731.35322905448
0.969085693359375	0.0114532470703125	4731.37535405443
0.96466064453125	0.0108551025390625	4731.39747905437
0.960235595703125	0.0102813720703125	4731.41960405431
0.955810546875	0.0097137451171875	4731.44172905426
0.951385498046875	0.0091705322265625	4731.4638540542
0.94696044921875	0.0086334228515625	4731.48597905415
0.942535400390625	0.00811767578125	4731.50810405409
0.9381103515625	0.0076141357421875	4731.53022905403
0.933685302734375	0.00711669921875	4731.55235405398
0.92926025390625	0.006634521484375	4731.57447905392
0.924835205078125	0.0061676025390625	4731.59660405387
0.92041015625	0.005706787109375	4731.61872905381
0.915985107421875	0.0052581787109375	4731.64085405375
0.91156005859375	0.0048211669921875	4731.6629790537
0.907135009765625	0.0043927001953125	4731.68510405364
0.9027099609375	0.003975830078125	4731.70722905359
0.898284912109375	0.0035675048828125	4731.72935405353
0.89385986328125	0.00316986083984375	4731.75147905348
0.889434814453125	0.0027813720703125	4731.77360405342
0.885009765625	0.00239990234375	4731.79572905336
0.880584716796875	0.00202484130859375	4731.81785405331
0.87615966796875	0.00165924072265625	4731.83997905325
0.871734619140625	0.00130126953125	4731.8621040532
0.8673095703125	0.0009515380859375	4731.88422905314
0.862884521484375	0.00060943603515625	4731.90635405309
0.85845947265625	0.0002752685546875	4731.92847905303
0.854034423828125	-5.2978515625E-05	4731.95060405297
0.849609375	-0.00037310791015625	4731.97272905292
0.845184326171875	-0.000687255859375	4731.99485405286
0.84075927734375	-0.00099334716796875	4732.01697905281
0.836334228515625	-0.0012945556640625	4732.03910405275
0.8319091796875	-0.001588134765625	4732.06122905269
0.827484130859375	-0.00187591552734375	4732.08335405264
0.82305908203125	-0.0021575927734375	4732.10547905258
0.818634033203125	-0.002432861328125	4732.12760405253
0.814208984375	-0.0027032470703125	4732.14972905247
0.809783935546875	-0.00296630859375	4732.17185405241
0.80535888671875	-0.0032257080078125	4732.19397905236
0.800933837890625	-0.00347747802734375	4732.2161040523
0.7965087890625	-0.00372528076171875	4732.23822905225
0.792083740234375	-0.00396575927734375	4732.26035405219
0.78765869140625	-0.004202880859375	4732.28247905214
0.783233642578125	-0.0044342041015625	4732.30460405208
0.77880859375	-0.004661865234375	4732.32672905202
0.774383544921875	-0.0048822021484375	4732.34885405197
0.76995849609375	-0.00510040283203125	4732.37097905191
0.765533447265625	-0.0053131103515625	4732.39310405186
0.7611083984375	-0.0055181884765625	4732.4152290518
0.756683349609375	-0.0057220458984375	4732.43735405174
0.75225830078125	-0.00591796875	4732.45947905169
0.747833251953125	-0.006114501953125	4732.48160405163
0.743408203125	-0.0062774658203125	4732.50372905158
0.738983154296875	-0.006463623046875	4732.52585405152
0.73455810546875	-0.0066436767578125	4732.54797905146
0.730133056640625	-0.00682373046875	4732.57010405141
0.7257080078125	-0.00699462890625	4732.59222905135
0.721282958984375	-0.00716552734375	4732.6143540513
0.71685791015625	-0.007330322265625	4732.63647905124
0.712432861328125	-0.0074920654296875	4732.65860405119
0.7080078125	-0.00765380859375	4732.68072905113
0.703582763671875	-0.0078033447265625	4732.70285405107
0.69915771484375	-0.0079559326171875	4732.72497905102
0.694732666015625	-0.0081024169921875	4732.74710405096
0.6903076171875	-0.008251953125	4732.76922905091
0.685882568359375	-0.008392333984375	4732.79135405085
0.68145751953125	-0.00853271484375	4732.81347905079
0.677032470703125	-0.0086669921875	4732.83560405074
0.672607421875	-0.00880126953125	4732.85772905068
0.668182373046875	-0.0089324951171875	4732.87985405063
0.66375732421875	-0.009063720703125	4732.90197905057
0.659332275390625	-0.0091888427734375	4732.92410405051
0.6549072265625	-0.0093109130859375	4732.94622905046
0.650482177734375	-0.0094329833984375	4732.9683540504
0.64605712890625	-0.0095489501953125	4732.99047905035
0.641632080078125	-0.00966796875	4733.01260405029
0.63720703125	-0.0097808837890625	4733.03472905024
0.632781982421875	-0.009893798828125	4733.05685405018
0.62835693359375	-0.0100006103515625	4733.07897905012
0.623931884765625	-0.01011962890625	4733.10110405007
0.6195068359375	-0.0102203369140625	4733.12322905001
0.615081787109375	-0.0103271484375	4733.14535404996
0.61065673828125	-0.0104278564453125	4733.1674790499
0.606231689453125	-0.0105255126953125	4733.18960404985
0.601806640625	-0.0106231689453125	4733.21172904979
0.597381591796875	-0.0107177734375	4733.23385404973
0.59295654296875	-0.0108123779296875	4733.25597904968
0.588531494140625	-0.01090087890625	4733.27810404962
0.5841064453125	-0.0109893798828125	4733.30022904957
0.579681396484375	-0.0110748291015625	4733.32235404951
0.57525634765625	-0.0111572265625	4733.34447904945
0.570831298828125	-0.0112457275390625	4733.3666040494
0.56640625	-0.0113433837890625	4733.38872904934
0.561981201171875	-0.0114288330078125	4733.41085404929
0.55755615234375	-0.0115142822265625	4733.43297904923
0.553131103515625	-0.0115997314453125	4733.45510404918
0.5487060546875	-0.01168212890625	4733.47722904912
0.544281005859375	-0.0117584228515625	4733.49935404906
0.53985595703125	-0.0118316650390625	4733.52147904901
0.535430908203125	-0.011907958984375	4733.54360404895
0.531005859375	-0.011981201171875	4733.5657290489
0.526580810546875	-0.0120574951171875	4733.58785404884
0.52215576171875	-0.0121246337890625	4733.60997904878
0.517730712890625	-0.0122039794921875	4733.63210404873
0.5133056640625	-0.012274169921875	4733.65422904867
0.508880615234375	-0.012353515625	4733.67635404862
0.50445556640625	-0.0124237060546875	4733.69847904856
0.500030517578125	-0.0124908447265625	4733.7206040485
0.49560546875	-0.0125579833984375	4733.74272904845
0.491180419921875	-0.0126220703125	4733.76485404839
0.48675537109375	-0.0126922607421875	4733.78697904834
0.482330322265625	-0.0127532958984375	4733.80910404828
0.4779052734375	-0.0128204345703125	4733.83122904823
0.473480224609375	-0.0128875732421875	4733.85335404817
0.46905517578125	-0.0129547119140625	4733.87547904811
0.464630126953125	-0.013018798828125	4733.89760404806
0.460205078125	-0.0130859375	4733.919729048
0.455780029296875	-0.01314697265625	4733.94185404795
0.45135498046875	-0.0132080078125	4733.96397904789
0.446929931640625	-0.0132659912109375	4733.98610404783
0.4425048828125	-0.0133270263671875	4734.00822904778
0.438079833984375	-0.0133819580078125	4734.03035404772
0.43365478515625	-0.01343994140625	4734.05247904767
0.429229736328125	-0.0134979248046875	4734.07460404761
0.4248046875	-0.0135498046875	4734.09672904755
0.420379638671875	-0.0136077880859375	4734.1188540475
0.41595458984375	-0.01365966796875	4734.14097904744
0.411529541015625	-0.0137176513671875	4734.16310404739
0.4071044921875	-0.0137664794921875	4734.18522904733
0.402679443359375	-0.013824462890625	4734.20735404728
0.39825439453125	-0.013873291015625	4734.22947904722
0.393829345703125	-0.0139251708984375	4734.25160404716
0.389404296875	-0.01397705078125	4734.27372904711
0.384979248046875	-0.0140228271484375	4734.29585404705
0.38055419921875	-0.01407470703125	4734.317979047
0.376129150390625	-0.0141204833984375	4734.34010404694
0.3717041015625	-0.0141754150390625	4734.36222904688
0.367279052734375	-0.01422119140625	4734.38435404683
0.36285400390625	-0.014276123046875	4734.40647904677
0.358428955078125	-0.0143218994140625	4734.42860404672
0.35400390625	-0.014373779296875	4734.45072904666
0.349578857421875	-0.0144195556640625	4734.4728540466
0.34515380859375	-0.014471435546875	4734.49497904655
0.340728759765625	-0.0145172119140625	4734.51710404649
0.3363037109375	-0.0145660400390625	4734.53922904644
0.331878662109375	-0.0146148681640625	4734.56135404638
0.32745361328125	-0.01466064453125	4734.58347904633
0.323028564453125	-0.01470947265625	4734.60560404627
0.318603515625	-0.0147552490234375	4734.62772904621
0.314178466796875	-0.0148040771484375	4734.64985404616
0.30975341796875	-0.0148468017578125	4734.6719790461
0.305328369140625	-0.0148956298828125	4734.69410404605
0.3009033203125	-0.0149383544921875	4734.71622904599
0.296478271484375	-0.014984130859375	4734.73835404594
0.29205322265625	-0.0150299072265625	4734.76047904588
0.287628173828125	-0.0150726318359375	4734.78260404582
0.283203125	-0.0151214599609375	4734.80472904577
0.278778076171875	-0.0151641845703125	4734.82685404571
0.27435302734375	-0.0152099609375	4734.84897904566
0.269927978515625	-0.015252685546875	4734.8711040456
0.2655029296875	-0.015301513671875	4734.89322904554
0.261077880859375	-0.015338134765625	4734.91535404549
0.25665283203125	-0.0153839111328125	4734.93747904543
0.252227783203125	-0.0154266357421875	4734.95960404538
0.247802734375	-0.015472412109375	4734.98172904532
0.243377685546875	-0.0155181884765625	4735.00385404526
0.23895263671875	-0.0155609130859375	4735.02597904521
0.234527587890625	-0.0156036376953125	4735.04810404515
0.2301025390625	-0.0156463623046875	4735.0702290451
0.225677490234375	-0.0156890869140625	4735.09235404504
0.22125244140625	-0.0157318115234375	4735.11447904499
0.216827392578125	-0.0157745361328125	4735.13660404493
0.21240234375	-0.0158172607421875	4735.15872904487
0.207977294921875	-0.0158660888671875	4735.18085404482
0.20355224609375	-0.01590576171875	4735.20297904476
0.199127197265625	-0.015948486328125	4735.22510404471
0.1947021484375	-0.0159912109375	4735.24722904465
0.190277099609375	-0.0160369873046875	4735.26935404459
0.18585205078125	-0.01607666015625	4735.29147904454
0.181427001953125	-0.0161224365234375	4735.31360404448
0.177001953125	-0.016168212890625	4735.33572904443
0.172576904296875	-0.0162109375	4735.35785404437
0.16815185546875	-0.0162567138671875	4735.37997904431
0.163726806640625	-0.0162994384765625	4735.40210404426
0.1593017578125	-0.01634521484375	4735.4242290442
0.154876708984375	-0.0163818359375	4735.44635404415
0.15045166015625	-0.0164306640625	4735.46847904409
0.146026611328125	-0.0164703369140625	4735.49060404404
0.1416015625	-0.0165191650390625	4735.51272904398
0.137176513671875	-0.016558837890625	4735.53485404392
0.13275146484375	-0.016607666015625	4735.55697904387
0.128326416015625	-0.016650390625	4735.57910404381
0.1239013671875	-0.01669921875	4735.60122904376
0.119476318359375	-0.016748046875	4735.6233540437
0.11505126953125	-0.0167877197265625	4735.64547904364
0.110626220703125	-0.0168365478515625	4735.66760404359
0.106201171875	-0.01688232421875	4735.68972904353
0.101776123046875	-0.01693115234375	4735.71185404348
0.09735107421875	-0.016973876953125	4735.73397904342
0.092926025390625	-0.017022705078125	4735.75610404336
0.0885009765625	-0.0170654296875	4735.77822904331
0.084075927734375	-0.017120361328125	4735.80035404325
0.07965087890625	-0.0171661376953125	4735.8224790432
0.075225830078125	-0.0172119140625	4735.84460404314
0.07080078125	-0.0172576904296875	4735.86672904309
0.066375732421875	-0.017303466796875	4735.88885404303
0.06195068359375	-0.017352294921875	4735.91097904297
0.057525634765625	-0.0173980712890625	4735.93310404292
0.0531005859375	-0.017449951171875	4735.95522904286
0.048675537109375	-0.0174957275390625	4735.97735404281
0.04425048828125	-0.0175506591796875	4735.99947904275
0.039825439453125	-0.0175933837890625	4736.02160404269
0.035400390625	-0.0176544189453125	4736.04372904264
0.030975341796875	-0.0177032470703125	4736.06585404258
0.02655029296875	-0.0177581787109375	4736.08797904253
0.022125244140625	-0.0178070068359375	4736.11010404247
0.0177001953125	-0.0178619384765625	4736.13222904242
0.013275146484375	-0.017919921875	4736.15435404236
0.00885009765625	-0.01796875	4736.1764790423
0.004425048828125	-0.0180267333984375	4736.19860404225
0	-0.0180755615234375	4736.22072904219
0.004425048828125	-0.017327880859375	4736.24285404214
0.00885009765625	-0.0166046142578125	4736.26497904208
0.013275146484375	-0.0159149169921875	4736.28710404203
0.0177001953125	-0.0152435302734375	4736.30922904197
0.022125244140625	-0.014593505859375	4736.33135404191
0.02655029296875	-0.0139617919921875	4736.35347904186
0.030975341796875	-0.01334228515625	4736.3756040418
0.035400390625	-0.012738037109375	4736.39772904175
0.039825439453125	-0.012152099609375	4736.41985404169
0.04425048828125	-0.0115753173828125	4736.44197904163
0.048675537109375	-0.0110107421875	4736.46410404158
0.0531005859375	-0.0104644775390625	4736.48622904152
0.057525634765625	-0.00992431640625	4736.50835404147
0.06195068359375	-0.0093994140625	4736.53047904141
0.066375732421875	-0.008880615234375	4736.55260404135
0.07080078125	-0.0083770751953125	4736.5747290413
0.075225830078125	-0.007879638671875	4736.59685404124
0.07965087890625	-0.0073974609375	4736.61897904119
0.084075927734375	-0.00692138671875	4736.64110404113
0.0885009765625	-0.006451416015625	4736.66322904108
0.092926025390625	-0.0059967041015625	4736.68535404102
0.09735107421875	-0.0055419921875	4736.70747904096
0.101776123046875	-0.0051025390625	4736.72960404091
0.106201171875	-0.00467041015625	4736.75172904085
0.110626220703125	-0.00424407958984375	4736.7738540408
0.11505126953125	-0.00382659912109375	4736.79597904074
0.119476318359375	-0.003419189453125	4736.81810404068
0.1239013671875	-0.00301666259765625	4736.84022904063
0.128326416015625	-0.0026318359375	4736.86235404057
0.13275146484375	-0.00224151611328125	4736.88447904052
0.137176513671875	-0.00185943603515625	4736.90660404046
0.1416015625	-0.00148345947265625	4736.9287290404
0.146026611328125	-0.00111419677734375	4736.95085404035
0.15045166015625	-0.00075164794921875	4736.97297904029
0.154876708984375	-0.00039495849609375	4736.99510404024
0.1593017578125	-4.5166015625E-05	4737.01722904018
0.163726806640625	0.000298980712890625	4737.03935404013
0.16815185546875	0.0006378173828125	4737.06147904007
0.172576904296875	0.000970458984375	4737.08360404001
0.177001953125	0.001298828125	4737.10572903996
0.181427001953125	0.0016217041015625	4737.1278540399
0.18585205078125	0.0019403076171875	4737.14997903985
0.190277099609375	0.00225067138671875	4737.17210403979
0.1947021484375	0.00255615234375	4737.19422903973
0.199127197265625	0.00285552978515625	4737.21635403968
0.20355224609375	0.0031512451171875	4737.23847903962
0.207977294921875	0.00344390869140625	4737.26060403957
0.21240234375	0.00372955322265625	4737.28272903951
0.216827392578125	0.0040118408203125	4737.30485403945
0.22125244140625	0.00428375244140625	4737.3269790394
0.225677490234375	0.0045550537109375	4737.34910403934
0.2301025390625	0.00481842041015625	4737.37122903929
0.234527587890625	0.0050787353515625	4737.39335403923
0.23895263671875	0.00533203125	4737.41547903918
0.243377685546875	0.0055853271484375	4737.43760403912
0.247802734375	0.005830078125	4737.45972903906
0.252227783203125	0.0060723876953125	4737.48185403901
0.25665283203125	0.006298828125	4737.50397903895
0.261077880859375	0.00653076171875	4737.5261040389
0.2655029296875	0.0067657470703125	4737.54822903884
0.269927978515625	0.0069854736328125	4737.57035403878
0.27435302734375	0.0072113037109375	4737.59247903873
0.278778076171875	0.0074249267578125	4737.61460403867
0.283203125	0.0076416015625	4737.63672903862
0.287628173828125	0.007843017578125	4737.65885403856
0.29205322265625	0.008050537109375	4737.68097903851
0.296478271484375	0.0082489013671875	4737.70310403845
0.3009033203125	0.008453369140625	4737.72522903839
0.305328369140625	0.0086456298828125	4737.74735403834
0.30975341796875	0.0088409423828125	4737.76947903828
0.314178466796875	0.009033203125	4737.79160403823
0.318603515625	0.0092193603515625	4737.81372903817
0.323028564453125	0.0093963623046875	4737.83585403811
0.32745361328125	0.0095672607421875	4737.85797903806
0.331878662109375	0.0097442626953125	4737.880104038
0.3363037109375	0.009906005859375	4737.90222903795
0.340728759765625	0.0100738525390625	4737.92435403789
0.34515380859375	0.0102264404296875	4737.94647903784
0.349578857421875	0.0103912353515625	4737.96860403778
0.35400390625	0.0105377197265625	4737.99072903772
0.358428955078125	0.010693359375	4738.01285403767
0.36285400390625	0.0108367919921875	4738.03497903761
0.367279052734375	0.0109771728515625	4738.05710403756
0.3717041015625	0.01112060546875	4738.0792290375
0.376129150390625	0.0112518310546875	4738.10135403744
0.38055419921875	0.0113922119140625	4738.12347903739
0.384979248046875	0.0115142822265625	4738.14560403733
0.389404296875	0.011651611328125	4738.16772903728
0.393829345703125	0.011767578125	4738.18985403722
0.39825439453125	0.011895751953125	4738.21197903716
0.402679443359375	0.0120147705078125	4738.23410403711
0.4071044921875	0.0121337890625	4738.25622903705
0.411529541015625	0.0122528076171875	4738.278354037
0.41595458984375	0.0123687744140625	4738.30047903694
0.420379638671875	0.0124786376953125	4738.32260403689
0.4248046875	0.0125885009765625	4738.34472903683
0.429229736328125	0.0127044677734375	4738.36685403677
0.43365478515625	0.0128143310546875	4738.38897903672
0.438079833984375	0.0129150390625	4738.41110403666
0.4425048828125	0.0130096435546875	4738.43322903661
0.446929931640625	0.0131072998046875	4738.45535403655
0.45135498046875	0.0131988525390625	4738.47747903649
0.455780029296875	0.0132904052734375	4738.49960403644
0.460205078125	0.0133758544921875	4738.52172903638
0.464630126953125	0.01346435546875	4738.54385403633
0.46905517578125	0.013543701171875	4738.56597903627
0.473480224609375	0.0136260986328125	4738.58810403621
0.4779052734375	0.0137054443359375	4738.61022903616
0.482330322265625	0.0137786865234375	4738.6323540361
0.48675537109375	0.01385498046875	4738.65447903605
0.491180419921875	0.0139190673828125	4738.67660403599
0.49560546875	0.0139984130859375	4738.69872903594
0.500030517578125	0.014068603515625	4738.72085403588
0.50445556640625	0.0141448974609375	4738.74297903582
0.508880615234375	0.0142059326171875	4738.76510403577
0.5133056640625	0.0142730712890625	4738.78722903571
0.517730712890625	0.014337158203125	4738.80935403566
0.52215576171875	0.014404296875	4738.8314790356
0.526580810546875	0.0144622802734375	4738.85360403554
0.531005859375	0.0145111083984375	4738.87572903549
0.535430908203125	0.01456298828125	4738.89785403543
0.53985595703125	0.014599609375	4738.91997903538
0.544281005859375	0.0146514892578125	4738.94210403532
0.5487060546875	0.014697265625	4738.96422903527
0.553131103515625	0.01475830078125	4738.98635403521
0.55755615234375	0.014813232421875	4739.00847903515
0.561981201171875	0.0148773193359375	4739.0306040351
0.56640625	0.01492919921875	4739.05272903504
0.570831298828125	0.014971923828125	4739.07485403499
0.57525634765625	0.0150115966796875	4739.09697903493
0.579681396484375	0.01505126953125	4739.11910403487
0.5841064453125	0.015087890625	4739.14122903482
0.588531494140625	0.01512451171875	4739.16335403476
0.59295654296875	0.0151580810546875	4739.18547903471
0.597381591796875	0.015191650390625	4739.20760403465
0.601806640625	0.015228271484375	4739.2297290346
0.606231689453125	0.015252685546875	4739.25185403454
0.61065673828125	0.015289306640625	4739.27397903448
0.615081787109375	0.015313720703125	4739.29610403443
0.6195068359375	0.01534423828125	4739.31822903437
0.623931884765625	0.01536865234375	4739.34035403432
0.62835693359375	0.0154022216796875	4739.36247903426
0.632781982421875	0.0154266357421875	4739.3846040342
0.63720703125	0.0154510498046875	4739.40672903415
0.641632080078125	0.015472412109375	4739.42885403409
0.64605712890625	0.01549072265625	4739.45097903404
0.650482177734375	0.0155181884765625	4739.47310403398
0.6549072265625	0.015533447265625	4739.49522903393
0.659332275390625	0.0155548095703125	4739.51735403387
0.66375732421875	0.015570068359375	4739.53947903381
0.668182373046875	0.0155914306640625	4739.56160403376
0.672607421875	0.015606689453125	4739.5837290337
0.677032470703125	0.0156219482421875	4739.60585403365
0.68145751953125	0.0156402587890625	4739.62797903359
0.685882568359375	0.0156524658203125	4739.65010403353
0.6903076171875	0.015667724609375	4739.67222903348
0.694732666015625	0.0156768798828125	4739.69435403342
0.69915771484375	0.015692138671875	4739.71647903337
0.703582763671875	0.0157012939453125	4739.73860403331
0.7080078125	0.0157135009765625	4739.76072903325
0.712432861328125	0.0157257080078125	4739.7828540332
0.71685791015625	0.0157379150390625	4739.80497903314
0.721282958984375	0.0157440185546875	4739.82710403309
0.7257080078125	0.0157562255859375	4739.84922903303
0.730133056640625	0.0157623291015625	4739.87135403298
0.73455810546875	0.015771484375	4739.89347903292
0.738983154296875	0.0157806396484375	4739.91560403286
0.743408203125	0.0157867431640625	4739.93772903281
0.747833251953125	0.0157928466796875	4739.95985403275
0.75225830078125	0.0157958984375	4739.9819790327
0.756683349609375	0.0158050537109375	4740.00410403264
0.7611083984375	0.0158050537109375	4740.02622903258
0.765533447265625	0.0158172607421875	4740.04835403253
0.76995849609375	0.0158172607421875	4740.07047903247
0.774383544921875	0.015826416015625	4740.09260403242
0.77880859375	0.015826416015625	4740.11472903236
0.783233642578125	0.0158355712890625	4740.1368540323
0.78765869140625	0.0158355712890625	4740.15897903225
0.792083740234375	0.0158416748046875	4740.18110403219
0.7965087890625	0.0158447265625	4740.20322903214
0.800933837890625	0.015850830078125	4740.22535403208
0.80535888671875	0.0158538818359375	4740.24747903203
0.809783935546875	0.0158538818359375	4740.26960403197
0.814208984375	0.015863037109375	4740.29172903191
0.818634033203125	0.015863037109375	4740.31385403186
0.82305908203125	0.015869140625	4740.3359790318
0.827484130859375	0.015869140625	4740.35810403175
0.8319091796875	0.0158721923828125	4740.38022903169
0.836334228515625	0.0158782958984375	4740.40235403163
0.84075927734375	0.0158782958984375	4740.42447903158
0.845184326171875	0.01588134765625	4740.44660403152
0.849609375	0.0158843994140625	4740.46872903147
0.854034423828125	0.015887451171875	4740.49085403141
0.85845947265625	0.0158905029296875	4740.51297903135
0.862884521484375	0.0158905029296875	4740.5351040313
0.8673095703125	0.0158966064453125	4740.55722903124
0.871734619140625	0.015899658203125	4740.57935403119
0.87615966796875	0.0159027099609375	4740.60147903113
0.880584716796875	0.01590576171875	4740.62360403108
0.885009765625	0.0159088134765625	4740.64572903102
0.889434814453125	0.01591796875	4740.66785403096
0.89385986328125	0.0159210205078125	4740.68997903091
0.898284912109375	0.0159271240234375	4740.71210403085
0.9027099609375	0.01593017578125	4740.7342290308
0.907135009765625	0.0159393310546875	4740.75635403074
0.91156005859375	0.0159423828125	4740.77847903069
0.915985107421875	0.0159515380859375	4740.80060403063
0.92041015625	0.0159576416015625	4740.82272903057
0.924835205078125	0.015960693359375	4740.84485403052
0.92926025390625	0.0159698486328125	4740.86697903046
0.933685302734375	0.0159759521484375	4740.88910403041
0.9381103515625	0.0159881591796875	4740.91122903035
0.942535400390625	0.0159942626953125	4740.93335403029
0.94696044921875	0.0160125732421875	4740.95547903024
0.951385498046875	0.0160247802734375	4740.97760403018
0.955810546875	0.016033935546875	4740.99972903013
0.960235595703125	0.016046142578125	4741.02185403007
0.96466064453125	0.0160614013671875	4741.04397903001
0.969085693359375	0.01607666015625	4741.06610402996
0.9735107421875	0.0160919189453125	4741.0882290299
0.977935791015625	0.016107177734375	4741.11035402985
0.98236083984375	0.0161224365234375	4741.13247902979
0.986785888671875	0.016143798828125	4741.15460402974
0.9912109375	0.016162109375	4741.17672902968
0.995635986328125	0.0161865234375	4741.19885402962
1.00006103515625	0.0162078857421875	4741.22097902957
0.995635986328125	0.0154388427734375	4741.24310402951
0.9912109375	0.0147064208984375	4741.26522902946
0.986785888671875	0.014007568359375	4741.2873540294
0.98236083984375	0.013330078125	4741.30947902934
0.977935791015625	0.012677001953125	4741.33160402929
0.9735107421875	0.01204833984375	4741.35372902923
0.969085693359375	0.0114349365234375	4741.37585402918
0.96466064453125	0.010845947265625	4741.39797902912
0.960235595703125	0.0102630615234375	4741.42010402906
0.955810546875	0.00970458984375	4741.44222902901
0.951385498046875	0.0091583251953125	4741.46435402895
0.94696044921875	0.008624267578125	4741.4864790289
0.942535400390625	0.00810546875	4741.50860402884
0.9381103515625	0.0076019287109375	4741.53072902879
0.933685302734375	0.0071075439453125	4741.55285402873
0.92926025390625	0.0066253662109375	4741.57497902867
0.924835205078125	0.0061553955078125	4741.59710402862
0.92041015625	0.0056976318359375	4741.61922902856
0.915985107421875	0.0052490234375	4741.64135402851
0.91156005859375	0.0048114013671875	4741.66347902845
0.907135009765625	0.004385986328125	4741.68560402839
0.9027099609375	0.00396759033203125	4741.70772902834
0.898284912109375	0.00356170654296875	4741.72985402828
0.89385986328125	0.0031622314453125	4741.75197902823
0.889434814453125	0.00277679443359375	4741.77410402817
0.885009765625	0.002393798828125	4741.79622902812
0.880584716796875	0.002021484375	4741.81835402806
0.87615966796875	0.0016558837890625	4741.840479028
0.871734619140625	0.0012982177734375	4741.86260402795
0.8673095703125	0.0009490966796875	4741.88472902789
0.862884521484375	0.00060760498046875	4741.90685402784
0.85845947265625	0.0002735595703125	4741.92897902778
0.854034423828125	-5.377197265625E-05	4741.95110402772
0.849609375	-0.000374481201171875	4741.97322902767
0.845184326171875	-0.000687255859375	4741.99535402761
0.84075927734375	-0.0009942626953125	4742.01747902756
0.836334228515625	-0.00129425048828125	4742.0396040275
0.8319091796875	-0.00158843994140625	4742.06172902744
0.827484130859375	-0.0018756103515625	4742.08385402739
0.82305908203125	-0.00215728759765625	4742.10597902733
0.818634033203125	-0.002431640625	4742.12810402728
0.814208984375	-0.00270111083984375	4742.15022902722
0.809783935546875	-0.00296478271484375	4742.17235402717
0.80535888671875	-0.0032220458984375	4742.19447902711
0.800933837890625	-0.00347625732421875	4742.21660402705
0.7965087890625	-0.0037213134765625	4742.238729027
0.792083740234375	-0.00396514892578125	4742.26085402694
0.78765869140625	-0.00419921875	4742.28297902689
0.783233642578125	-0.00443206787109375	4742.30510402683
0.77880859375	-0.0046575927734375	4742.32722902678
0.774383544921875	-0.0048779296875	4742.34935402672
0.76995849609375	-0.00509613037109375	4742.37147902666
0.765533447265625	-0.005306396484375	4742.39360402661
0.7611083984375	-0.00551513671875	4742.41572902655
0.756683349609375	-0.0057171630859375	4742.4378540265
0.75225830078125	-0.005916748046875	4742.45997902644
0.747833251953125	-0.0061077880859375	4742.48210402638
0.743408203125	-0.0062744140625	4742.50422902633
0.738983154296875	-0.0064544677734375	4742.52635402627
0.73455810546875	-0.006640625	4742.54847902622
0.730133056640625	-0.006817626953125	4742.57060402616
0.7257080078125	-0.00699462890625	4742.5927290261
0.721282958984375	-0.007159423828125	4742.61485402605
0.71685791015625	-0.0073272705078125	4742.63697902599
0.712432861328125	-0.007489013671875	4742.65910402594
0.7080078125	-0.007647705078125	4742.68122902588
0.703582763671875	-0.0078033447265625	4742.70335402583
0.69915771484375	-0.0079498291015625	4742.72547902577
0.694732666015625	-0.0081024169921875	4742.74760402571
0.6903076171875	-0.0082427978515625	4742.76972902566
0.685882568359375	-0.0083892822265625	4742.7918540256
0.68145751953125	-0.008526611328125	4742.81397902555
0.677032470703125	-0.0086639404296875	4742.83610402549
0.672607421875	-0.008795166015625	4742.85822902543
0.668182373046875	-0.0089263916015625	4742.88035402538
0.66375732421875	-0.0090545654296875	4742.90247902532
0.659332275390625	-0.0091796875	4742.92460402527
0.6549072265625	-0.0093048095703125	4742.94672902521
0.650482177734375	-0.0094207763671875	4742.96885402515
0.64605712890625	-0.009539794921875	4742.9909790251
0.641632080078125	-0.00965576171875	4743.01310402504
0.63720703125	-0.0097747802734375	4743.03522902499
0.632781982421875	-0.009881591796875	4743.05735402493
0.62835693359375	-0.0099945068359375	4743.07947902488
0.623931884765625	-0.010101318359375	4743.10160402482
0.6195068359375	-0.010211181640625	4743.12372902476
0.615081787109375	-0.01031494140625	4743.14585402471
0.61065673828125	-0.0104156494140625	4743.16797902465
0.606231689453125	-0.0105133056640625	4743.1901040246
0.601806640625	-0.01060791015625	4743.21222902454
0.597381591796875	-0.0107086181640625	4743.23435402448
0.59295654296875	-0.0107940673828125	4743.25647902443
0.588531494140625	-0.0108917236328125	4743.27860402437
0.5841064453125	-0.0109710693359375	4743.30072902432
0.579681396484375	-0.0110626220703125	4743.32285402426
0.57525634765625	-0.0111480712890625	4743.3449790242
0.570831298828125	-0.0112335205078125	4743.36710402415
0.56640625	-0.0113128662109375	4743.38922902409
0.561981201171875	-0.011407470703125	4743.41135402404
0.55755615234375	-0.0114959716796875	4743.43347902398
0.553131103515625	-0.011578369140625	4743.45560402393
0.5487060546875	-0.0116607666015625	4743.47772902387
0.544281005859375	-0.011737060546875	4743.49985402381
0.53985595703125	-0.011822509765625	4743.52197902376
0.535430908203125	-0.0118927001953125	4743.5441040237
0.531005859375	-0.0119659423828125	4743.56622902365
0.526580810546875	-0.0120361328125	4743.58835402359
0.52215576171875	-0.012109375	4743.61047902353
0.517730712890625	-0.0121795654296875	4743.63260402348
0.5133056640625	-0.0122528076171875	4743.65472902342
0.508880615234375	-0.0123260498046875	4743.67685402337
0.50445556640625	-0.0123992919921875	4743.69897902331
0.500030517578125	-0.0124664306640625	4743.72110402326
0.49560546875	-0.0125335693359375	4743.7432290232
0.491180419921875	-0.012603759765625	4743.76535402314
0.48675537109375	-0.0126678466796875	4743.78747902309
0.482330322265625	-0.0127349853515625	4743.80960402303
0.4779052734375	-0.01279296875	4743.83172902298
0.473480224609375	-0.0128631591796875	4743.85385402292
0.46905517578125	-0.0129241943359375	4743.87597902286
0.464630126953125	-0.012994384765625	4743.89810402281
0.460205078125	-0.013055419921875	4743.92022902275
0.455780029296875	-0.01312255859375	4743.9423540227
0.45135498046875	-0.01318359375	4743.96447902264
0.446929931640625	-0.01324462890625	4743.98660402259
0.4425048828125	-0.0133026123046875	4744.00872902253
0.438079833984375	-0.0133575439453125	4744.03085402247
0.43365478515625	-0.0134185791015625	4744.05297902242
0.429229736328125	-0.0134674072265625	4744.07510402236
0.4248046875	-0.0135284423828125	4744.09722902231
0.420379638671875	-0.013580322265625	4744.11935402225
0.41595458984375	-0.013641357421875	4744.14147902219
0.411529541015625	-0.013690185546875	4744.16360402214
0.4071044921875	-0.0137451171875	4744.18572902208
0.402679443359375	-0.0137969970703125	4744.20785402203
0.39825439453125	-0.013848876953125	4744.22997902197
0.393829345703125	-0.01390380859375	4744.25210402191
0.389404296875	-0.0139495849609375	4744.27422902186
0.384979248046875	-0.0140045166015625	4744.2963540218
0.38055419921875	-0.01405029296875	4744.31847902175
0.376129150390625	-0.01409912109375	4744.34060402169
0.3717041015625	-0.01414794921875	4744.36272902164
0.367279052734375	-0.014202880859375	4744.38485402158
0.36285400390625	-0.0142486572265625	4744.40697902152
0.358428955078125	-0.014300537109375	4744.42910402147
0.35400390625	-0.0143463134765625	4744.45122902141
0.349578857421875	-0.0143951416015625	4744.47335402136
0.34515380859375	-0.0144439697265625	4744.4954790213
0.340728759765625	-0.01448974609375	4744.51760402124
0.3363037109375	-0.01453857421875	4744.53972902119
0.331878662109375	-0.01458740234375	4744.56185402113
0.32745361328125	-0.0146331787109375	4744.58397902108
0.323028564453125	-0.0146759033203125	4744.60610402102
0.318603515625	-0.0147247314453125	4744.62822902097
0.314178466796875	-0.0147705078125	4744.65035402091
0.30975341796875	-0.0148223876953125	4744.67247902085
0.305328369140625	-0.0148590087890625	4744.6946040208
0.3009033203125	-0.014910888671875	4744.71672902074
0.296478271484375	-0.0149505615234375	4744.73885402069
0.29205322265625	-0.0149993896484375	4744.76097902063
0.287628173828125	-0.0150421142578125	4744.78310402057
0.283203125	-0.015087890625	4744.80522902052
0.278778076171875	-0.0151336669921875	4744.82735402046
0.27435302734375	-0.0151763916015625	4744.84947902041
0.269927978515625	-0.0152252197265625	4744.87160402035
0.2655029296875	-0.015264892578125	4744.89372902029
0.261077880859375	-0.0153106689453125	4744.91585402024
0.25665283203125	-0.015350341796875	4744.93797902018
0.252227783203125	-0.015399169921875	4744.96010402013
0.247802734375	-0.0154388427734375	4744.98222902007
0.243377685546875	-0.0154876708984375	4745.00435402002
0.23895263671875	-0.0155303955078125	4745.02647901996
0.234527587890625	-0.015576171875	4745.0486040199
0.2301025390625	-0.0156158447265625	4745.07072901985
0.225677490234375	-0.015655517578125	4745.09285401979
0.22125244140625	-0.0157012939453125	4745.11497901974
0.216827392578125	-0.015740966796875	4745.13710401968
0.21240234375	-0.015789794921875	4745.15922901962
0.207977294921875	-0.0158294677734375	4745.18135401957
0.20355224609375	-0.0158721923828125	4745.20347901951
0.199127197265625	-0.0159149169921875	4745.22560401946
0.1947021484375	-0.015960693359375	4745.2477290194
0.190277099609375	-0.0160003662109375	4745.26985401935
0.18585205078125	-0.0160491943359375	4745.29197901929
0.181427001953125	-0.0160888671875	4745.31410401923
0.177001953125	-0.016131591796875	4745.33622901918
0.172576904296875	-0.01617431640625	4745.35835401912
0.16815185546875	-0.016217041015625	4745.38047901907
0.163726806640625	-0.016265869140625	4745.40260401901
0.1593017578125	-0.016302490234375	4745.42472901895
0.154876708984375	-0.016351318359375	4745.4468540189
0.15045166015625	-0.01639404296875	4745.46897901884
0.146026611328125	-0.016436767578125	4745.49110401879
0.1416015625	-0.0164825439453125	4745.51322901873
0.137176513671875	-0.0165283203125	4745.53535401868
0.13275146484375	-0.0165740966796875	4745.55747901862
0.128326416015625	-0.016619873046875	4745.57960401856
0.1239013671875	-0.0166595458984375	4745.60172901851
0.119476318359375	-0.016705322265625	4745.62385401845
0.11505126953125	-0.016748046875	4745.6459790184
0.110626220703125	-0.016796875	4745.66810401834
0.106201171875	-0.016845703125	4745.69022901828
0.101776123046875	-0.016888427734375	4745.71235401823
0.09735107421875	-0.016937255859375	4745.73447901817
0.092926025390625	-0.016986083984375	4745.75660401812
0.0885009765625	-0.017034912109375	4745.77872901806
0.084075927734375	-0.01707763671875	4745.800854018
0.07965087890625	-0.01712646484375	4745.82297901795
0.075225830078125	-0.017169189453125	4745.84510401789
0.07080078125	-0.0172149658203125	4745.86722901784
0.066375732421875	-0.0172637939453125	4745.88935401778
0.06195068359375	-0.0173126220703125	4745.91147901773
0.057525634765625	-0.0173614501953125	4745.93360401767
0.0531005859375	-0.0174102783203125	4745.95572901761
0.048675537109375	-0.0174591064453125	4745.97785401756
0.04425048828125	-0.0175048828125	4745.9999790175
0.039825439453125	-0.017559814453125	4746.02210401745
0.035400390625	-0.017608642578125	4746.04422901739
0.030975341796875	-0.0176605224609375	4746.06635401733
0.02655029296875	-0.01771240234375	4746.08847901728
0.022125244140625	-0.017767333984375	4746.11060401722
0.0177001953125	-0.017816162109375	4746.13272901717
0.013275146484375	-0.0178680419921875	4746.15485401711
0.00885009765625	-0.0179229736328125	4746.17697901705
0.004425048828125	-0.017974853515625	4746.199104017
0	-0.0180328369140625	4746.22122901694
0.004425048828125	-0.01727294921875	4746.24335401689
0.00885009765625	-0.0165618896484375	4746.26547901683
0.013275146484375	-0.0158660888671875	4746.28760401678
0.0177001953125	-0.01519775390625	4746.30972901672
0.022125244140625	-0.0145477294921875	4746.33185401666
0.02655029296875	-0.0139190673828125	4746.35397901661
0.030975341796875	-0.013299560546875	4746.37610401655
0.035400390625	-0.0126953125	4746.3982290165
0.039825439453125	-0.012109375	4746.42035401644
0.04425048828125	-0.01153564453125	4746.44247901638
0.048675537109375	-0.0109710693359375	4746.46460401633
0.0531005859375	-0.0104217529296875	4746.48672901627
0.057525634765625	-0.0098846435546875	4746.50885401622
0.06195068359375	-0.009356689453125	4746.53097901616
0.066375732421875	-0.008843994140625	4746.55310401611
0.07080078125	-0.0083343505859375	4746.57522901605
0.075225830078125	-0.0078399658203125	4746.59735401599
0.07965087890625	-0.0073577880859375	4746.61947901594
0.084075927734375	-0.006884765625	4746.64160401588
0.0885009765625	-0.006414794921875	4746.66372901583
0.092926025390625	-0.00595703125	4746.68585401577
0.09735107421875	-0.00550537109375	4746.70797901571
0.101776123046875	-0.00506591796875	4746.73010401566
0.106201171875	-0.00463531494140625	4746.7522290156
0.110626220703125	-0.00421051025390625	4746.77435401555
0.11505126953125	-0.00379302978515625	4746.79647901549
0.119476318359375	-0.0033843994140625	4746.81860401544
0.1239013671875	-0.0029827880859375	4746.84072901538
0.128326416015625	-0.00259735107421875	4746.86285401532
0.13275146484375	-0.00220855712890625	4746.88497901527
0.137176513671875	-0.001826171875	4746.90710401521
0.1416015625	-0.001451416015625	4746.92922901516
0.146026611328125	-0.00108245849609375	4746.9513540151
0.15045166015625	-0.00072021484375	4746.97347901504
0.154876708984375	-0.000363800048828125	4746.99560401499
0.1593017578125	-1.4959716796875E-05	4747.01772901493
0.163726806640625	0.000329559326171875	4747.03985401488
0.16815185546875	0.0006671142578125	4747.06197901482
0.172576904296875	0.0010009765625	4747.08410401476
0.177001953125	0.0013275146484375	4747.10622901471
0.181427001953125	0.00165069580078125	4747.12835401465
0.18585205078125	0.00196746826171875	4747.1504790146
0.190277099609375	0.002279052734375	4747.17260401454
0.1947021484375	0.00258453369140625	4747.19472901449
0.199127197265625	0.0028839111328125	4747.21685401443
0.20355224609375	0.00317962646484375	4747.23897901437
0.207977294921875	0.00347137451171875	4747.26110401432
0.21240234375	0.00375762939453125	4747.28322901426
0.216827392578125	0.00403656005859375	4747.30535401421
0.22125244140625	0.0043115234375	4747.32747901415
0.225677490234375	0.004580078125	4747.34960401409
0.2301025390625	0.00484527587890625	4747.37172901404
0.234527587890625	0.0051019287109375	4747.39385401398
0.23895263671875	0.00535858154296875	4747.41597901393
0.243377685546875	0.00560821533203125	4747.43810401387
0.247802734375	0.0058551025390625	4747.46022901382
0.252227783203125	0.00609619140625	4747.48235401376
0.25665283203125	0.0063201904296875	4747.5044790137
0.261077880859375	0.00655517578125	4747.52660401365
0.2655029296875	0.0067840576171875	4747.54872901359
0.269927978515625	0.007012939453125	4747.57085401354
0.27435302734375	0.0072296142578125	4747.59297901348
0.278778076171875	0.0074493408203125	4747.61510401342
0.283203125	0.007659912109375	4747.63722901337
0.287628173828125	0.007867431640625	4747.65935401331
0.29205322265625	0.00806884765625	4747.68147901326
0.296478271484375	0.0082763671875	4747.7036040132
0.3009033203125	0.0084716796875	4747.72572901314
0.305328369140625	0.0086700439453125	4747.74785401309
0.30975341796875	0.0088623046875	4747.76997901303
0.314178466796875	0.009051513671875	4747.79210401298
0.318603515625	0.0092376708984375	4747.81422901292
0.323028564453125	0.00941162109375	4747.83635401287
0.32745361328125	0.009588623046875	4747.85847901281
0.331878662109375	0.00975341796875	4747.88060401275
0.3363037109375	0.0099273681640625	4747.9027290127
0.340728759765625	0.0100860595703125	4747.92485401264
0.34515380859375	0.010247802734375	4747.94697901259
0.349578857421875	0.010400390625	4747.96910401253
0.35400390625	0.0105560302734375	4747.99122901247
0.358428955078125	0.01070556640625	4748.01335401242
0.36285400390625	0.0108489990234375	4748.03547901236
0.367279052734375	0.0109893798828125	4748.05760401231
0.3717041015625	0.0111297607421875	4748.07972901225
0.376129150390625	0.01126708984375	4748.10185401219
0.38055419921875	0.0113983154296875	4748.12397901214
0.384979248046875	0.0115325927734375	4748.14610401208
0.389404296875	0.0116546630859375	4748.16822901203
0.393829345703125	0.0117828369140625	4748.19035401197
0.39825439453125	0.0118988037109375	4748.21247901192
0.402679443359375	0.0120269775390625	4748.23460401186
0.4071044921875	0.012139892578125	4748.2567290118
0.411529541015625	0.0122589111328125	4748.27885401175
0.41595458984375	0.0123748779296875	4748.30097901169
0.420379638671875	0.0124847412109375	4748.32310401164
0.4248046875	0.0126007080078125	4748.34522901158
0.429229736328125	0.012713623046875	4748.36735401153
0.43365478515625	0.012823486328125	4748.38947901147
0.438079833984375	0.0129150390625	4748.41160401141
0.4425048828125	0.0130218505859375	4748.43372901136
0.446929931640625	0.0131103515625	4748.4558540113
0.45135498046875	0.0132080078125	4748.47797901125
0.455780029296875	0.0132965087890625	4748.50010401119
0.460205078125	0.0133819580078125	4748.52222901113
0.464630126953125	0.0134674072265625	4748.54435401108
0.46905517578125	0.0135498046875	4748.56647901102
0.473480224609375	0.0136322021484375	4748.58860401097
0.4779052734375	0.013702392578125	4748.61072901091
0.482330322265625	0.01378173828125	4748.63285401085
0.48675537109375	0.013848876953125	4748.6549790108
0.491180419921875	0.0139312744140625	4748.67710401074
0.49560546875	0.0140045166015625	4748.69922901069
0.500030517578125	0.014080810546875	4748.72135401063
0.50445556640625	0.0141448974609375	4748.74347901058
0.508880615234375	0.0142120361328125	4748.76560401052
0.5133056640625	0.0142730712890625	4748.78772901046
0.517730712890625	0.01434326171875	4748.80985401041
0.52215576171875	0.0144073486328125	4748.83197901035
0.526580810546875	0.0144622802734375	4748.8541040103
0.531005859375	0.01451416015625	4748.87622901024
0.535430908203125	0.0145538330078125	4748.89835401018
0.53985595703125	0.0146026611328125	4748.92047901013
0.544281005859375	0.0146453857421875	4748.94260401007
0.5487060546875	0.0147125244140625	4748.96472901002
0.553131103515625	0.014764404296875	4748.98685400996
0.55755615234375	0.0148284912109375	4749.0089790099
0.561981201171875	0.0148773193359375	4749.03110400985
0.56640625	0.0149261474609375	4749.05322900979
0.570831298828125	0.0149688720703125	4749.07535400974
0.57525634765625	0.0150054931640625	4749.09747900968
0.579681396484375	0.015045166015625	4749.11960400963
0.5841064453125	0.015081787109375	4749.14172900957
0.588531494140625	0.0151214599609375	4749.16385400951
0.59295654296875	0.01514892578125	4749.18597900946
0.597381591796875	0.015191650390625	4749.2081040094
0.601806640625	0.0152191162109375	4749.23022900935
0.606231689453125	0.015252685546875	4749.25235400929
0.61065673828125	0.015277099609375	4749.27447900923
0.615081787109375	0.0153076171875	4749.29660400918
0.6195068359375	0.0153350830078125	4749.31872900912
0.623931884765625	0.015362548828125	4749.34085400907
0.62835693359375	0.0153961181640625	4749.36297900901
0.632781982421875	0.01541748046875	4749.38510400896
0.63720703125	0.01544189453125	4749.4072290089
0.641632080078125	0.0154632568359375	4749.42935400884
0.64605712890625	0.0154876708984375	4749.45147900879
0.650482177734375	0.0155029296875	4749.47360400873
0.6549072265625	0.01552734375	4749.49572900868
0.659332275390625	0.01553955078125	4749.51785400862
0.66375732421875	0.0155670166015625	4749.53997900856
0.668182373046875	0.0155792236328125	4749.56210400851
0.672607421875	0.015594482421875	4749.58422900845
0.677032470703125	0.0156097412109375	4749.6063540084
0.68145751953125	0.015625	4749.62847900834
0.685882568359375	0.0156402587890625	4749.65060400828
0.6903076171875	0.0156524658203125	4749.67272900823
0.694732666015625	0.015667724609375	4749.69485400817
0.69915771484375	0.0156768798828125	4749.71697900812
0.703582763671875	0.015692138671875	4749.73910400806
0.7080078125	0.0157012939453125	4749.76122900801
0.712432861328125	0.015716552734375	4749.78335400795
0.71685791015625	0.0157196044921875	4749.80547900789
0.721282958984375	0.0157318115234375	4749.82760400784
0.7257080078125	0.0157379150390625	4749.84972900778
0.730133056640625	0.0157501220703125	4749.87185400773
0.73455810546875	0.015753173828125	4749.89397900767
0.738983154296875	0.0157623291015625	4749.91610400761
0.743408203125	0.015765380859375	4749.93822900756
0.747833251953125	0.015771484375	4749.9603540075
0.75225830078125	0.0157806396484375	4749.98247900745
0.756683349609375	0.0157806396484375	4750.00460400739
0.7611083984375	0.0157958984375	4750.02672900734
0.765533447265625	0.0157928466796875	4750.04885400728
0.76995849609375	0.0158050537109375	4750.07097900722
0.774383544921875	0.015802001953125	4750.09310400717
0.77880859375	0.0158111572265625	4750.11522900711
0.783233642578125	0.015814208984375	4750.13735400706
0.78765869140625	0.015814208984375	4750.159479007
0.792083740234375	0.0158203125	4750.18160400694
0.7965087890625	0.0158233642578125	4750.20372900689
0.800933837890625	0.0158294677734375	4750.22585400683
0.80535888671875	0.015826416015625	4750.24797900678
0.809783935546875	0.0158355712890625	4750.27010400672
0.814208984375	0.01583251953125	4750.29222900667
0.818634033203125	0.015838623046875	4750.31435400661
0.82305908203125	0.0158416748046875	4750.33647900655
0.827484130859375	0.0158447265625	4750.3586040065
0.8319091796875	0.0158447265625	4750.38072900644
0.836334228515625	0.0158477783203125	4750.40285400639
0.84075927734375	0.0158477783203125	4750.42497900633
0.845184326171875	0.0158538818359375	4750.44710400627
0.849609375	0.0158538818359375	4750.46922900622
0.854034423828125	0.0158538818359375	4750.49135400616
0.85845947265625	0.015863037109375	4750.51347900611
0.862884521484375	0.0158599853515625	4750.53560400605
0.8673095703125	0.015869140625	4750.55772900599
0.871734619140625	0.015863037109375	4750.57985400594
0.87615966796875	0.0158782958984375	4750.60197900588
0.880584716796875	0.015869140625	4750.62410400583
0.885009765625	0.0158843994140625	4750.64622900577
0.889434814453125	0.01588134765625	4750.66835400572
0.89385986328125	0.0158905029296875	4750.69047900566
0.898284912109375	0.0158905029296875	4750.7126040056
0.9027099609375	0.0158966064453125	4750.73472900555
0.907135009765625	0.01590576171875	4750.75685400549
0.91156005859375	0.015899658203125	4750.77897900544
0.915985107421875	0.01591796875	4750.80110400538
0.92041015625	0.0159149169921875	4750.82322900532
0.924835205078125	0.01593017578125	4750.84535400527
0.92926025390625	0.01593017578125	4750.86747900521
0.933685302734375	0.015948486328125	4750.88960400516
0.9381103515625	0.0159576416015625	4750.9117290051
0.942535400390625	0.015966796875	4750.93385400504
0.94696044921875	0.01597900390625	4750.95597900499
0.951385498046875	0.015985107421875	4750.97810400493
0.955810546875	0.0160003662109375	4751.00022900488
0.960235595703125	0.0160125732421875	4751.02235400482
0.96466064453125	0.01602783203125	4751.04447900477
0.969085693359375	0.0160400390625	4751.06660400471
0.9735107421875	0.016058349609375	4751.08872900465
0.977935791015625	0.0160675048828125	4751.1108540046
0.98236083984375	0.0160919189453125	4751.13297900454
0.986785888671875	0.0161041259765625	4751.15510400449
0.9912109375	0.016131591796875	4751.17722900443
