Potential applied (V)	WE(1).Current (A)	Time (s)
0.004425048828125	-0.0748809814453125	4503.28155963031
0.00885009765625	-0.065838623046875	4503.37006063008
0.013275146484375	-0.058526611328125	4503.45856162986
0.0177001953125	-0.052569580078125	4503.54706262964
0.022125244140625	-0.0475250244140625	4503.63556362941
0.02655029296875	-0.0431488037109375	4503.72406462919
0.030975341796875	-0.0393157958984375	4503.81256562897
0.035400390625	-0.0359283447265625	4503.90106662874
0.039825439453125	-0.032891845703125	4503.98956762852
0.04425048828125	-0.0301483154296875	4504.0780686283
0.048675537109375	-0.02767333984375	4504.16656962807
0.0531005859375	-0.0254058837890625	4504.25507062785
0.057525634765625	-0.0233489990234375	4504.34357162763
0.06195068359375	-0.021466064453125	4504.4320726274
0.066375732421875	-0.0197418212890625	4504.52057362718
0.07080078125	-0.01815185546875	4504.60907462696
0.075225830078125	-0.016680908203125	4504.69757562673
0.07965087890625	-0.0153228759765625	4504.78607662651
0.084075927734375	-0.0140655517578125	4504.87457762628
0.0885009765625	-0.012896728515625	4504.96307862606
0.092926025390625	-0.0118133544921875	4505.05157962584
0.09735107421875	-0.0108062744140625	4505.14008062562
0.101776123046875	-0.00986328125	4505.22858162539
0.106201171875	-0.0089813232421875	4505.31708262517
0.110626220703125	-0.0081573486328125	4505.40558362494
0.11505126953125	-0.007391357421875	4505.49408462472
0.119476318359375	-0.0066741943359375	4505.5825856245
0.1239013671875	-0.005999755859375	4505.67108662427
0.128326416015625	-0.0053680419921875	4505.75958762405
0.13275146484375	-0.00477294921875	4505.84808862383
0.137176513671875	-0.00421478271484375	4505.9365896236
0.1416015625	-0.0036907958984375	4506.02509062338
0.146026611328125	-0.003197021484375	4506.11359162316
0.15045166015625	-0.002733154296875	4506.20209262293
0.154876708984375	-0.002305908203125	4506.29059362271
0.1593017578125	-0.001893310546875	4506.37909462249
0.163726806640625	-0.00150482177734375	4506.46759562226
0.16815185546875	-0.00114044189453125	4506.55609662204
0.172576904296875	-0.0007965087890625	4506.64459762182
0.177001953125	-0.000473052978515625	4506.73309862159
0.181427001953125	-0.00016729736328125	4506.82159962137
0.18585205078125	0.0001204833984375	4506.91010062115
0.190277099609375	0.000392669677734375	4506.99860162092
0.1947021484375	0.0006488037109375	4507.0871026207
0.199127197265625	0.00089019775390625	4507.17560362048
0.20355224609375	0.00111724853515625	4507.26410462025
0.207977294921875	0.00133331298828125	4507.35260562003
0.21240234375	0.0015374755859375	4507.44110661981
0.216827392578125	0.00172637939453125	4507.52960761958
0.22125244140625	0.0019024658203125	4507.61810861936
0.225677490234375	0.00206817626953125	4507.70660961913
0.2301025390625	0.00222381591796875	4507.79511061891
0.234527587890625	0.00236907958984375	4507.88361161869
0.23895263671875	0.002506103515625	4507.97211261846
0.243377685546875	0.00263397216796875	4508.06061361824
0.247802734375	0.002755126953125	4508.14911461802
0.252227783203125	0.00286895751953125	4508.23761561779
0.25665283203125	0.00297637939453125	4508.32611661757
0.261077880859375	0.00307586669921875	4508.41461761735
0.2655029296875	0.00316558837890625	4508.50311861712
0.269927978515625	0.00325042724609375	4508.5916196169
0.27435302734375	0.00333038330078125	4508.68012061668
0.278778076171875	0.00340789794921875	4508.76862161645
0.283203125	0.00348052978515625	4508.85712261623
0.287628173828125	0.00354827880859375	4508.94562361601
0.29205322265625	0.00360992431640625	4509.03412461578
0.296478271484375	0.00366851806640625	4509.12262561556
0.3009033203125	0.00372344970703125	4509.21112661534
0.305328369140625	0.00377716064453125	4509.29962761511
0.30975341796875	0.00382659912109375	4509.38812861489
0.314178466796875	0.00387298583984375	4509.47662961467
0.318603515625	0.0039105224609375	4509.56513061444
0.323028564453125	0.00394622802734375	4509.65363161422
0.32745361328125	0.00397857666015625	4509.742132614
0.331878662109375	0.0040093994140625	4509.83063361377
0.3363037109375	0.0040386962890625	4509.91913461355
0.340728759765625	0.00406494140625	4510.00763561332
0.34515380859375	0.0040869140625	4510.0961366131
0.349578857421875	0.00410614013671875	4510.18463761288
0.35400390625	0.0041229248046875	4510.27313861266
0.358428955078125	0.00414154052734375	4510.36163961243
0.36285400390625	0.00416229248046875	4510.45014061221
0.367279052734375	0.0041790771484375	4510.53864161198
0.3717041015625	0.00419189453125	4510.62714261176
0.376129150390625	0.00420257568359375	4510.71564361154
0.38055419921875	0.004215087890625	4510.80414461131
0.384979248046875	0.004224853515625	4510.89264561109
0.389404296875	0.0042315673828125	4510.98114661087
0.393829345703125	0.00423553466796875	4511.06964761064
0.39825439453125	0.0042425537109375	4511.15814861042
0.402679443359375	0.00424957275390625	4511.2466496102
0.4071044921875	0.0042578125	4511.33515060997
0.411529541015625	0.00426361083984375	4511.42365160975
0.41595458984375	0.00426666259765625	4511.51215260953
0.420379638671875	0.00426910400390625	4511.6006536093
0.4248046875	0.0042706298828125	4511.68915460908
0.429229736328125	0.00427093505859375	4511.77765560886
0.43365478515625	0.00426849365234375	4511.86615660863
0.438079833984375	0.00426788330078125	4511.95465760841
0.4425048828125	0.00426788330078125	4512.04315860819
0.446929931640625	0.00426849365234375	4512.13165960796
0.45135498046875	0.00426727294921875	4512.22016060774
0.455780029296875	0.00426422119140625	4512.30866160752
0.460205078125	0.00426177978515625	4512.39716260729
0.464630126953125	0.00425994873046875	4512.48566360707
0.46905517578125	0.0042584228515625	4512.57416460685
0.473480224609375	0.00425689697265625	4512.66266560662
0.4779052734375	0.00425506591796875	4512.7511666064
0.482330322265625	0.004249267578125	4512.83966760617
0.48675537109375	0.00424530029296875	4512.92816860595
0.491180419921875	0.0042425537109375	4513.01666960573
0.49560546875	0.00424224853515625	4513.10517060551
0.500030517578125	0.00424041748046875	4513.19367160528
0.50445556640625	0.00423797607421875	4513.28217260506
0.508880615234375	0.004232177734375	4513.37067360483
0.5133056640625	0.004228515625	4513.45917460461
0.517730712890625	0.00422515869140625	4513.54767560439
0.52215576171875	0.0042242431640625	4513.63617660416
0.526580810546875	0.0042230224609375	4513.72467760394
0.531005859375	0.00421966552734375	4513.81317860372
0.535430908203125	0.00421661376953125	4513.90167960349
0.53985595703125	0.00421173095703125	4513.99018060327
0.544281005859375	0.0042095947265625	4514.07868160305
0.5487060546875	0.00420806884765625	4514.16718260282
0.553131103515625	0.00420654296875	4514.2556836026
0.55755615234375	0.0042041015625	4514.34418460238
0.561981201171875	0.00420074462890625	4514.43268560215
0.56640625	0.0041973876953125	4514.52118660193
0.570831298828125	0.00419586181640625	4514.60968760171
0.57525634765625	0.004195556640625	4514.69818860148
0.579681396484375	0.00419464111328125	4514.78668960126
0.5841064453125	0.004193115234375	4514.87519060104
0.588531494140625	0.00418853759765625	4514.96369160081
0.59295654296875	0.00418670654296875	4515.05219260059
0.597381591796875	0.00418548583984375	4515.14069360037
0.601806640625	0.0041851806640625	4515.22919460014
0.606231689453125	0.0041851806640625	4515.31769559992
0.61065673828125	0.0041851806640625	4515.4061965997
0.615081787109375	0.004183349609375	4515.49469759947
0.6195068359375	0.00418212890625	4515.58319859925
0.623931884765625	0.00418182373046875	4515.67169959902
0.62835693359375	0.004185791015625	4515.7602005988
0.632781982421875	0.00418670654296875	4515.84870159858
0.63720703125	0.00418701171875	4515.93720259835
0.641632080078125	0.0041851806640625	4516.02570359813
0.64605712890625	0.0041851806640625	4516.11420459791
0.650482177734375	0.00418487548828125	4516.20270559768
0.6549072265625	0.00418548583984375	4516.29120659746
0.659332275390625	0.00418731689453125	4516.37970759724
0.66375732421875	0.0041888427734375	4516.46820859701
0.668182373046875	0.004189453125	4516.55670959679
0.672607421875	0.004190673828125	4516.64521059657
0.677032470703125	0.00419158935546875	4516.73371159634
0.68145751953125	0.0041925048828125	4516.82221259612
0.685882568359375	0.004195556640625	4516.9107135959
0.6903076171875	0.00419891357421875	4516.99921459567
0.694732666015625	0.004200439453125	4517.08771559545
0.69915771484375	0.00420196533203125	4517.17621659523
0.703582763671875	0.004202880859375	4517.264717595
0.7080078125	0.00420562744140625	4517.35321859478
0.712432861328125	0.004210205078125	4517.44171959456
0.71685791015625	0.0042138671875	4517.53022059433
0.721282958984375	0.004217529296875	4517.61872159411
0.7257080078125	0.00421966552734375	4517.70722259389
0.730133056640625	0.00422271728515625	4517.79572359366
0.73455810546875	0.004227294921875	4517.88422459344
0.738983154296875	0.00423187255859375	4517.97272559322
0.743408203125	0.00423614501953125	4518.06122659299
0.747833251953125	0.00424102783203125	4518.14972759277
0.75225830078125	0.00424468994140625	4518.23822859255
0.756683349609375	0.00424896240234375	4518.32672959232
0.7611083984375	0.00425537109375	4518.4152305921
0.765533447265625	0.00426239013671875	4518.50373159187
0.76995849609375	0.00427032470703125	4518.59223259165
0.774383544921875	0.00427703857421875	4518.68073359143
0.77880859375	0.00428314208984375	4518.7692345912
0.783233642578125	0.0042889404296875	4518.85773559098
0.78765869140625	0.0042974853515625	4518.94623659076
0.792083740234375	0.00430572509765625	4519.03473759053
0.7965087890625	0.0043157958984375	4519.12323859031
0.800933837890625	0.00432403564453125	4519.21173959009
0.80535888671875	0.004332275390625	4519.30024058986
0.809783935546875	0.00434112548828125	4519.38874158964
0.814208984375	0.00435211181640625	4519.47724258942
0.818634033203125	0.0043634033203125	4519.56574358919
0.82305908203125	0.00437530517578125	4519.65424458897
0.827484130859375	0.00438690185546875	4519.74274558875
0.8319091796875	0.004398193359375	4519.83124658852
0.836334228515625	0.00441162109375	4519.9197475883
0.84075927734375	0.0044244384765625	4520.00824858808
0.845184326171875	0.00443939208984375	4520.09674958785
0.849609375	0.00445556640625	4520.18525058763
0.854034423828125	0.0044708251953125	4520.27375158741
0.85845947265625	0.00448638916015625	4520.36225258718
0.862884521484375	0.004501953125	4520.45075358696
0.8673095703125	0.004520263671875	4520.53925458674
0.871734619140625	0.00453948974609375	4520.62775558651
0.87615966796875	0.00455902099609375	4520.71625658629
0.880584716796875	0.00457977294921875	4520.80475758607
0.885009765625	0.00460174560546875	4520.89325858584
0.889434814453125	0.00462310791015625	4520.98175958562
0.89385986328125	0.00464691162109375	4521.07026058539
0.898284912109375	0.00467132568359375	4521.15876158517
0.9027099609375	0.00469818115234375	4521.24726258495
0.907135009765625	0.00472503662109375	4521.33576358472
0.91156005859375	0.00475311279296875	4521.4242645845
0.915985107421875	0.00478179931640625	4521.51276558428
0.92041015625	0.00481231689453125	4521.60126658405
0.924835205078125	0.0048443603515625	4521.68976758383
0.92926025390625	0.00488006591796875	4521.77826858361
0.933685302734375	0.00491485595703125	4521.86676958338
0.9381103515625	0.00495330810546875	4521.95527058316
0.942535400390625	0.00499176025390625	4522.04377158294
0.94696044921875	0.005030517578125	4522.13227258271
0.951385498046875	0.00507171630859375	4522.22077358249
0.955810546875	0.0051177978515625	4522.30927458227
0.960235595703125	0.00516357421875	4522.39777558204
0.96466064453125	0.00521087646484375	4522.48627658182
0.969085693359375	0.00526031494140625	4522.5747775816
0.9735107421875	0.0053118896484375	4522.66327858137
0.977935791015625	0.00536651611328125	4522.75177958115
0.98236083984375	0.0054254150390625	4522.84028058093
0.986785888671875	0.00548583984375	4522.9287815807
0.9912109375	0.00554931640625	4523.01728258048
0.995635986328125	0.00561492919921875	4523.10578358026
1.00006103515625	0.00568450927734375	4523.19428458003
0.995635986328125	0.0050494384765625	4523.28278557981
0.9912109375	0.00448272705078125	4523.37128657959
0.986785888671875	0.003966064453125	4523.45978757936
0.98236083984375	0.00349151611328125	4523.54828857914
0.977935791015625	0.0030517578125	4523.63678957892
0.9735107421875	0.00264373779296875	4523.72529057869
0.969085693359375	0.00226104736328125	4523.81379157847
0.96466064453125	0.00190185546875	4523.90229257824
0.960235595703125	0.00156463623046875	4523.99079357802
0.955810546875	0.00124755859375	4524.0792945778
0.951385498046875	0.0009478759765625	4524.16779557757
0.94696044921875	0.00066558837890625	4524.25629657735
0.942535400390625	0.000398651123046875	4524.34479757713
0.9381103515625	0.000146270751953125	4524.4332985769
0.933685302734375	-9.5123291015625E-05	4524.52179957668
0.92926025390625	-0.000320220947265625	4524.61030057646
0.924835205078125	-0.000533447265625	4524.69880157623
0.92041015625	-0.0007354736328125	4524.78730257601
0.915985107421875	-0.00092620849609375	4524.87580357579
0.91156005859375	-0.00110626220703125	4524.96430457556
0.907135009765625	-0.00127685546875	4525.05280557534
0.9027099609375	-0.00143829345703125	4525.14130657512
0.898284912109375	-0.00158966064453125	4525.22980757489
0.89385986328125	-0.0017327880859375	4525.31830857467
0.889434814453125	-0.00186767578125	4525.40680957445
0.885009765625	-0.00199462890625	4525.49531057422
0.880584716796875	-0.00211395263671875	4525.583811574
0.87615966796875	-0.00222564697265625	4525.67231257378
0.871734619140625	-0.002330322265625	4525.76081357355
0.8673095703125	-0.00242889404296875	4525.84931457333
0.862884521484375	-0.00252105712890625	4525.93781557311
0.85845947265625	-0.0026068115234375	4526.02631657288
0.854034423828125	-0.0026873779296875	4526.11481757266
0.849609375	-0.00276336669921875	4526.20331857243
0.845184326171875	-0.00283355712890625	4526.29181957221
0.84075927734375	-0.00290008544921875	4526.38032057199
0.836334228515625	-0.00296051025390625	4526.46882157177
0.8319091796875	-0.00301849365234375	4526.55732257154
0.827484130859375	-0.00307281494140625	4526.64582357132
0.82305908203125	-0.00312255859375	4526.73432457109
0.818634033203125	-0.0031695556640625	4526.82282557087
0.814208984375	-0.00321319580078125	4526.91132657065
0.809783935546875	-0.0032537841796875	4526.99982757042
0.80535888671875	-0.00329193115234375	4527.0883285702
0.800933837890625	-0.00332733154296875	4527.17682956998
0.7965087890625	-0.00336181640625	4527.26533056975
0.792083740234375	-0.003392333984375	4527.35383156953
0.78765869140625	-0.0034222412109375	4527.44233256931
0.783233642578125	-0.00344970703125	4527.53083356908
0.77880859375	-0.00347503662109375	4527.61933456886
0.774383544921875	-0.00350006103515625	4527.70783556864
0.76995849609375	-0.00352294921875	4527.79633656841
0.765533447265625	-0.00354583740234375	4527.88483756819
0.7611083984375	-0.00356689453125	4527.97333856797
0.756683349609375	-0.00358642578125	4528.06183956774
0.75225830078125	-0.0036065673828125	4528.15034056752
0.747833251953125	-0.003624267578125	4528.2388415673
0.743408203125	-0.00364288330078125	4528.32734256707
0.738983154296875	-0.00365875244140625	4528.41584356685
0.73455810546875	-0.0036749267578125	4528.50434456663
0.730133056640625	-0.003690185546875	4528.5928455664
0.7257080078125	-0.00370574951171875	4528.68134656618
0.721282958984375	-0.003720703125	4528.76984756596
0.71685791015625	-0.00373565673828125	4528.85834856573
0.712432861328125	-0.00375030517578125	4528.94684956551
0.7080078125	-0.003763427734375	4529.03535056528
0.703582763671875	-0.00377777099609375	4529.12385156506
0.69915771484375	-0.00379058837890625	4529.21235256484
0.694732666015625	-0.0038055419921875	4529.30085356461
0.6903076171875	-0.0038189697265625	4529.38935456439
0.685882568359375	-0.003831787109375	4529.47785556417
0.68145751953125	-0.0038446044921875	4529.56635656394
0.677032470703125	-0.003857421875	4529.65485756372
0.672607421875	-0.00386962890625	4529.7433585635
0.668182373046875	-0.00388214111328125	4529.83185956327
0.66375732421875	-0.00389556884765625	4529.92036056305
0.659332275390625	-0.00390777587890625	4530.00886156283
0.6549072265625	-0.003919677734375	4530.0973625626
0.650482177734375	-0.003931884765625	4530.18586356238
0.64605712890625	-0.00394287109375	4530.27436456216
0.641632080078125	-0.0039556884765625	4530.36286556193
0.63720703125	-0.00396820068359375	4530.45136656171
0.632781982421875	-0.00398040771484375	4530.53986756149
0.62835693359375	-0.003992919921875	4530.62836856126
0.623931884765625	-0.00400848388671875	4530.71686956104
0.6195068359375	-0.004019775390625	4530.80537056082
0.615081787109375	-0.00403167724609375	4530.89387156059
0.61065673828125	-0.0040435791015625	4530.98237256037
0.606231689453125	-0.00405609130859375	4531.07087356015
0.601806640625	-0.00406768798828125	4531.15937455992
0.597381591796875	-0.00408050537109375	4531.2478755597
0.59295654296875	-0.00409210205078125	4531.33637655947
0.588531494140625	-0.00410400390625	4531.42487755925
0.5841064453125	-0.0041143798828125	4531.51337855903
0.579681396484375	-0.0041265869140625	4531.60187955881
0.57525634765625	-0.0041375732421875	4531.69038055858
0.570831298828125	-0.0041485595703125	4531.77888155836
0.56640625	-0.0041607666015625	4531.86738255813
0.561981201171875	-0.00417236328125	4531.95588355791
0.55755615234375	-0.0041827392578125	4532.04438455769
0.553131103515625	-0.00419219970703125	4532.13288555746
0.5487060546875	-0.0042022705078125	4532.22138655724
0.544281005859375	-0.00421112060546875	4532.30988755702
0.53985595703125	-0.0042193603515625	4532.39838855679
0.535430908203125	-0.0042303466796875	4532.48688955657
0.531005859375	-0.00424072265625	4532.57539055635
0.526580810546875	-0.0042510986328125	4532.66389155612
0.52215576171875	-0.0042608642578125	4532.7523925559
0.517730712890625	-0.0042718505859375	4532.84089355568
0.5133056640625	-0.0042816162109375	4532.92939455545
0.508880615234375	-0.00429290771484375	4533.01789555523
0.50445556640625	-0.00430267333984375	4533.10639655501
0.500030517578125	-0.00431427001953125	4533.19489755478
0.49560546875	-0.00432464599609375	4533.28339855456
0.491180419921875	-0.0043353271484375	4533.37189955434
0.48675537109375	-0.004345703125	4533.46040055411
0.482330322265625	-0.00435638427734375	4533.54890155389
0.4779052734375	-0.00436676025390625	4533.63740255367
0.473480224609375	-0.0043768310546875	4533.72590355344
0.46905517578125	-0.0043878173828125	4533.81440455322
0.464630126953125	-0.00439727783203125	4533.902905553
0.460205078125	-0.00440765380859375	4533.99140655277
0.455780029296875	-0.00441802978515625	4534.07990755255
0.45135498046875	-0.0044287109375	4534.16840855232
0.446929931640625	-0.004439697265625	4534.2569095521
0.4425048828125	-0.00445037841796875	4534.34541055188
0.438079833984375	-0.00446075439453125	4534.43391155166
0.43365478515625	-0.00447052001953125	4534.52241255143
0.429229736328125	-0.0044805908203125	4534.61091355121
0.4248046875	-0.004490966796875	4534.69941455098
0.420379638671875	-0.0045013427734375	4534.78791555076
0.41595458984375	-0.00451263427734375	4534.87641655054
0.411529541015625	-0.00452239990234375	4534.96491755031
0.4071044921875	-0.0045318603515625	4535.05341855009
0.402679443359375	-0.00454132080078125	4535.14191954987
0.39825439453125	-0.00455230712890625	4535.23042054964
0.393829345703125	-0.00456298828125	4535.31892154942
0.389404296875	-0.00457275390625	4535.4074225492
0.384979248046875	-0.00458282470703125	4535.49592354897
0.38055419921875	-0.00459320068359375	4535.58442454875
0.376129150390625	-0.004603271484375	4535.67292554853
0.3717041015625	-0.00461456298828125	4535.7614265483
0.367279052734375	-0.0046246337890625	4535.84992754808
0.36285400390625	-0.00463623046875	4535.93842854786
0.358428955078125	-0.0046466064453125	4536.02692954763
0.35400390625	-0.0046575927734375	4536.11543054741
0.349578857421875	-0.004666748046875	4536.20393154719
0.34515380859375	-0.00467864990234375	4536.29243254696
0.340728759765625	-0.00469024658203125	4536.38093354674
0.3363037109375	-0.00470062255859375	4536.46943454652
0.331878662109375	-0.0047119140625	4536.55793554629
0.32745361328125	-0.0047235107421875	4536.64643654607
0.323028564453125	-0.004735107421875	4536.73493754585
0.318603515625	-0.004747314453125	4536.82343854562
0.314178466796875	-0.0047589111328125	4536.9119395454
0.30975341796875	-0.0047735595703125	4537.00044054517
0.305328369140625	-0.00478515625	4537.08894154495
0.3009033203125	-0.0047967529296875	4537.17744254473
0.296478271484375	-0.00480865478515625	4537.2659435445
0.29205322265625	-0.00482086181640625	4537.35444454428
0.287628173828125	-0.00483367919921875	4537.44294554406
0.283203125	-0.00484649658203125	4537.53144654383
0.278778076171875	-0.0048583984375	4537.61994754361
0.27435302734375	-0.00487091064453125	4537.70844854339
0.269927978515625	-0.0048834228515625	4537.79694954316
0.2655029296875	-0.0048974609375	4537.88545054294
0.261077880859375	-0.00490997314453125	4537.97395154272
0.25665283203125	-0.0049249267578125	4538.06245254249
0.252227783203125	-0.00493743896484375	4538.15095354227
0.247802734375	-0.004952392578125	4538.23945454205
0.243377685546875	-0.004964599609375	4538.32795554182
0.23895263671875	-0.004979248046875	4538.4164565416
0.234527587890625	-0.00499359130859375	4538.50495754138
0.2301025390625	-0.00500701904296875	4538.59345854115
0.225677490234375	-0.0050225830078125	4538.68195954093
0.22125244140625	-0.00503753662109375	4538.77046054071
0.216827392578125	-0.00505157470703125	4538.85896154048
0.21240234375	-0.00506805419921875	4538.94746254026
0.207977294921875	-0.0050830078125	4539.03596354004
0.20355224609375	-0.0050994873046875	4539.12446453981
0.199127197265625	-0.00511505126953125	4539.21296553959
0.1947021484375	-0.0051312255859375	4539.30146653937
0.190277099609375	-0.005147705078125	4539.38996753914
0.18585205078125	-0.00516387939453125	4539.47846853892
0.181427001953125	-0.00518218994140625	4539.5669695387
0.177001953125	-0.005198974609375	4539.65547053847
0.172576904296875	-0.005216064453125	4539.74397153825
0.16815185546875	-0.00523406982421875	4539.83247253802
0.163726806640625	-0.00525146484375	4539.9209735378
0.1593017578125	-0.00527069091796875	4540.00947453758
0.154876708984375	-0.00528961181640625	4540.09797553735
0.15045166015625	-0.00530975341796875	4540.18647653713
0.146026611328125	-0.005330810546875	4540.27497753691
0.1416015625	-0.00535003662109375	4540.36347853668
0.137176513671875	-0.00536956787109375	4540.45197953646
0.13275146484375	-0.005390625	4540.54048053624
0.128326416015625	-0.0054119873046875	4540.62898153601
0.1239013671875	-0.00543487548828125	4540.71748253579
0.119476318359375	-0.00545684814453125	4540.80598353557
0.11505126953125	-0.0054766845703125	4540.89448453534
0.110626220703125	-0.0054986572265625	4540.98298553512
0.106201171875	-0.005521240234375	4541.0714865349
0.101776123046875	-0.00554412841796875	4541.15998753467
0.09735107421875	-0.00556915283203125	4541.24848853445
0.092926025390625	-0.00559326171875	4541.33698953423
0.0885009765625	-0.00561767578125	4541.425490534
0.084075927734375	-0.00564208984375	4541.51399153378
0.07965087890625	-0.0056658935546875	4541.60249253356
0.075225830078125	-0.00569061279296875	4541.69099353333
0.07080078125	-0.00571746826171875	4541.77949453311
0.066375732421875	-0.0057427978515625	4541.86799553289
0.06195068359375	-0.00576934814453125	4541.95649653266
0.057525634765625	-0.00579559326171875	4542.04499753244
0.0531005859375	-0.00582183837890625	4542.13349853222
0.048675537109375	-0.00584930419921875	4542.22199953199
0.04425048828125	-0.00587799072265625	4542.31050053177
0.039825439453125	-0.0059063720703125	4542.39900153154
0.035400390625	-0.00593353271484375	4542.48750253132
0.030975341796875	-0.00596221923828125	4542.5760035311
0.02655029296875	-0.00598968505859375	4542.66450453087
0.022125244140625	-0.00602020263671875	4542.75300553065
0.0177001953125	-0.0060272216796875	4542.84150653043
0.013275146484375	-0.006060791015625	4542.9300075302
0.00885009765625	-0.0060882568359375	4543.01850852998
0.004425048828125	-0.0061187744140625	4543.10700952976
0	-0.0061492919921875	4543.19551052953
0.004425048828125	-0.00545654296875	4543.28401152931
0.00885009765625	-0.00482696533203125	4543.37251252909
0.013275146484375	-0.0042413330078125	4543.46101352886
0.0177001953125	-0.0036956787109375	4543.54951452864
0.022125244140625	-0.00318389892578125	4543.63801552842
0.02655029296875	-0.00270477294921875	4543.72651652819
0.030975341796875	-0.00226409912109375	4543.81501752797
0.035400390625	-0.00183868408203125	4543.90351852775
0.039825439453125	-0.00143829345703125	4543.99201952752
0.04425048828125	-0.00106109619140625	4544.0805205273
0.048675537109375	-0.0007037353515625	4544.16902152708
0.0531005859375	-0.000366943359375	4544.25752252685
0.057525634765625	-4.7607421875E-05	4544.34602352663
0.06195068359375	0.000254425048828125	4544.43452452641
0.066375732421875	0.0005413818359375	4544.52302552618
0.07080078125	0.000811767578125	4544.61152652596
0.075225830078125	0.00106842041015625	4544.70002752574
0.07965087890625	0.00131134033203125	4544.78852852551
0.084075927734375	0.00154510498046875	4544.87702952529
0.0885009765625	0.00176513671875	4544.96553052507
0.092926025390625	0.00197052001953125	4545.05403152484
0.09735107421875	0.0021624755859375	4545.14253252462
0.101776123046875	0.00234222412109375	4545.23103352439
0.106201171875	0.00251220703125	4545.31953452417
0.110626220703125	0.00267364501953125	4545.40803552395
0.11505126953125	0.0028271484375	4545.49653652372
0.119476318359375	0.00297088623046875	4545.5850375235
0.1239013671875	0.00310760498046875	4545.67353852328
0.128326416015625	0.003236083984375	4545.76203952305
0.13275146484375	0.0033575439453125	4545.85054052283
0.137176513671875	0.0034710693359375	4545.93904152261
0.1416015625	0.0035797119140625	4546.02754252238
0.146026611328125	0.003680419921875	4546.11604352216
0.15045166015625	0.00377655029296875	4546.20454452194
0.154876708984375	0.00386627197265625	4546.29304552171
0.1593017578125	0.003948974609375	4546.38154652149
0.163726806640625	0.00402740478515625	4546.47004752127
0.16815185546875	0.0041015625	4546.55854852104
0.172576904296875	0.0041705322265625	4546.64704952082
0.177001953125	0.0042340087890625	4546.7355505206
0.181427001953125	0.0042926025390625	4546.82405152037
0.18585205078125	0.004346923828125	4546.91255252015
0.190277099609375	0.00439697265625	4547.00105351993
0.1947021484375	0.00444488525390625	4547.0895545197
0.199127197265625	0.004488525390625	4547.17805551948
0.20355224609375	0.0045281982421875	4547.26655651926
0.207977294921875	0.00456451416015625	4547.35505751903
0.21240234375	0.00459747314453125	4547.44355851881
0.216827392578125	0.00462890625	4547.53205951858
0.22125244140625	0.004658203125	4547.62056051836
0.225677490234375	0.00468597412109375	4547.70906151814
0.2301025390625	0.00471466064453125	4547.79756251792
0.234527587890625	0.0047332763671875	4547.88606351769
0.23895263671875	0.00475006103515625	4547.97456451747
0.243377685546875	0.0047650146484375	4548.06306551724
0.247802734375	0.0047784423828125	4548.15156651702
0.252227783203125	0.0047894287109375	4548.2400675168
0.25665283203125	0.004798583984375	4548.32856851657
0.261077880859375	0.0048065185546875	4548.41706951635
0.2655029296875	0.0048126220703125	4548.50557051613
0.269927978515625	0.004815673828125	4548.5940715159
0.27435302734375	0.0048175048828125	4548.68257251568
0.278778076171875	0.00481964111328125	4548.77107351546
0.283203125	0.0048211669921875	4548.85957451523
0.287628173828125	0.00482421875	4548.94807551501
0.29205322265625	0.00482635498046875	4549.03657651479
0.296478271484375	0.0048236083984375	4549.12507751456
0.3009033203125	0.0048187255859375	4549.21357851434
0.305328369140625	0.00481414794921875	4549.30207951412
0.30975341796875	0.0048089599609375	4549.39058051389
0.314178466796875	0.0048052978515625	4549.47908151367
0.318603515625	0.00479949951171875	4549.56758251345
0.323028564453125	0.0047918701171875	4549.65608351322
0.32745361328125	0.0047833251953125	4549.744584513
0.331878662109375	0.004774169921875	4549.83308551278
0.3363037109375	0.00476593017578125	4549.92158651255
0.340728759765625	0.00475921630859375	4550.01008751233
0.34515380859375	0.0047503662109375	4550.09858851211
0.349578857421875	0.004742431640625	4550.18708951188
0.35400390625	0.0047314453125	4550.27559051166
0.358428955078125	0.00472259521484375	4550.36409151143
0.36285400390625	0.004713134765625	4550.45259251121
0.367279052734375	0.00470306396484375	4550.54109351099
0.3717041015625	0.00469207763671875	4550.62959451076
0.376129150390625	0.0046795654296875	4550.71809551054
0.38055419921875	0.00466888427734375	4550.80659651032
0.384979248046875	0.0046588134765625	4550.89509751009
0.389404296875	0.0046484375	4550.98359850987
0.393829345703125	0.00463714599609375	4551.07209950965
0.39825439453125	0.00462493896484375	4551.16060050942
0.402679443359375	0.00461334228515625	4551.2491015092
0.4071044921875	0.00460357666015625	4551.33760250898
0.411529541015625	0.00459259033203125	4551.42610350875
0.41595458984375	0.00458251953125	4551.51460450853
0.420379638671875	0.0045721435546875	4551.60310550831
0.4248046875	0.004560546875	4551.69160650808
0.429229736328125	0.00454986572265625	4551.78010750786
0.43365478515625	0.00453857421875	4551.86860850764
0.438079833984375	0.00452972412109375	4551.95710950741
0.4425048828125	0.004520263671875	4552.04561050719
0.446929931640625	0.00451141357421875	4552.13411150697
0.45135498046875	0.00450225830078125	4552.22261250674
0.455780029296875	0.0044927978515625	4552.31111350652
0.460205078125	0.00448150634765625	4552.3996145063
0.464630126953125	0.00447357177734375	4552.48811550607
0.46905517578125	0.00446502685546875	4552.57661650585
0.473480224609375	0.0044561767578125	4552.66511750563
0.4779052734375	0.004447021484375	4552.7536185054
0.482330322265625	0.0044384765625	4552.84211950518
0.48675537109375	0.004429931640625	4552.93062050496
0.491180419921875	0.00442230224609375	4553.01912150473
0.49560546875	0.00441497802734375	4553.10762250451
0.500030517578125	0.00440765380859375	4553.19612350428
0.50445556640625	0.0044000244140625	4553.28462450406
0.508880615234375	0.00439239501953125	4553.37312550384
0.5133056640625	0.0043841552734375	4553.46162650361
0.517730712890625	0.004378662109375	4553.55012750339
0.52215576171875	0.00437286376953125	4553.63862850317
0.526580810546875	0.0043670654296875	4553.72712950294
0.531005859375	0.004361572265625	4553.81563050272
0.535430908203125	0.00435577392578125	4553.9041315025
0.53985595703125	0.004349365234375	4553.99263250227
0.544281005859375	0.00434417724609375	4554.08113350205
0.5487060546875	0.00433929443359375	4554.16963450183
0.553131103515625	0.0043353271484375	4554.2581355016
0.55755615234375	0.00433074951171875	4554.34663650138
0.561981201171875	0.00432586669921875	4554.43513750116
0.56640625	0.00432037353515625	4554.52363850093
0.570831298828125	0.0043182373046875	4554.61213950071
0.57525634765625	0.0043145751953125	4554.70064050049
0.579681396484375	0.00431182861328125	4554.78914150026
0.5841064453125	0.0043084716796875	4554.87764250004
0.588531494140625	0.00430328369140625	4554.96614349982
0.59295654296875	0.00430023193359375	4555.05464449959
0.597381591796875	0.00429931640625	4555.14314549937
0.601806640625	0.0042987060546875	4555.23164649915
0.606231689453125	0.00429656982421875	4555.32014749892
0.61065673828125	0.00429473876953125	4555.4086484987
0.615081787109375	0.00429168701171875	4555.49714949848
0.6195068359375	0.0042901611328125	4555.58565049825
0.623931884765625	0.00428955078125	4555.67415149803
0.62835693359375	0.00429351806640625	4555.7626524978
0.632781982421875	0.004293212890625	4555.85115349758
0.63720703125	0.0042913818359375	4555.93965449736
0.641632080078125	0.00429107666015625	4556.02815549713
0.64605712890625	0.00428985595703125	4556.11665649691
0.650482177734375	0.004290771484375	4556.20515749669
0.6549072265625	0.00429229736328125	4556.29365849646
0.659332275390625	0.00429351806640625	4556.38215949624
0.66375732421875	0.0042938232421875	4556.47066049602
0.668182373046875	0.00429412841796875	4556.55916149579
0.672607421875	0.0042938232421875	4556.64766249557
0.677032470703125	0.00429595947265625	4556.73616349535
0.68145751953125	0.00429931640625	4556.82466449512
0.685882568359375	0.0043017578125	4556.9131654949
0.6903076171875	0.004305419921875	4557.00166649468
0.694732666015625	0.00430572509765625	4557.09016749445
0.69915771484375	0.0043084716796875	4557.17866849423
0.703582763671875	0.00431060791015625	4557.26716949401
0.7080078125	0.004315185546875	4557.35567049378
0.712432861328125	0.0043194580078125	4557.44417149356
0.71685791015625	0.0043218994140625	4557.53267249334
0.721282958984375	0.0043267822265625	4557.62117349311
0.7257080078125	0.004329833984375	4557.70967449289
0.730133056640625	0.00433563232421875	4557.79817549267
0.73455810546875	0.00434112548828125	4557.88667649244
0.738983154296875	0.004346923828125	4557.97517749222
0.743408203125	0.0043505859375	4558.063678492
0.747833251953125	0.00435699462890625	4558.15217949177
0.75225830078125	0.0043621826171875	4558.24068049155
0.756683349609375	0.0043682861328125	4558.32918149133
0.7611083984375	0.004375	4558.4176824911
0.765533447265625	0.00438385009765625	4558.50618349088
0.76995849609375	0.00439178466796875	4558.59468449065
0.774383544921875	0.00439910888671875	4558.68318549043
0.77880859375	0.00440704345703125	4558.77168649021
0.783233642578125	0.00441558837890625	4558.86018748998
0.78765869140625	0.004423828125	4558.94868848976
0.792083740234375	0.00443389892578125	4559.03718948954
0.7965087890625	0.0044439697265625	4559.12569048931
0.800933837890625	0.00445343017578125	4559.21419148909
0.80535888671875	0.00446258544921875	4559.30269248887
0.809783935546875	0.00447357177734375	4559.39119348864
0.814208984375	0.0044854736328125	4559.47969448842
0.818634033203125	0.00449859619140625	4559.5681954882
0.82305908203125	0.004510498046875	4559.65669648797
0.827484130859375	0.00452362060546875	4559.74519748775
0.8319091796875	0.00453582763671875	4559.83369848753
0.836334228515625	0.004549560546875	4559.9221994873
0.84075927734375	0.00456573486328125	4560.01070048708
0.845184326171875	0.00458160400390625	4560.09920148686
0.849609375	0.00459716796875	4560.18770248663
0.854034423828125	0.004613037109375	4560.27620348641
0.85845947265625	0.00462982177734375	4560.36470448619
0.862884521484375	0.00464599609375	4560.45320548596
0.8673095703125	0.0046661376953125	4560.54170648574
0.871734619140625	0.00468719482421875	4560.63020748552
0.87615966796875	0.00470794677734375	4560.71870848529
0.880584716796875	0.00472869873046875	4560.80720948507
0.885009765625	0.00475006103515625	4560.89571048485
0.889434814453125	0.004771728515625	4560.98421148462
0.89385986328125	0.00479705810546875	4561.0727124844
0.898284912109375	0.00482330322265625	4561.16121348418
0.9027099609375	0.0048492431640625	4561.24971448395
0.907135009765625	0.0048773193359375	4561.33821548373
0.91156005859375	0.0049041748046875	4561.4267164835
0.915985107421875	0.00493408203125	4561.51521748328
0.92041015625	0.0049658203125	4561.60371848306
0.924835205078125	0.004998779296875	4561.69221948283
0.92926025390625	0.005032958984375	4561.78072048261
0.933685302734375	0.0050677490234375	4561.86922148239
0.9381103515625	0.0051055908203125	4561.95772248216
0.942535400390625	0.00514404296875	4562.04622348194
0.94696044921875	0.0051837158203125	4562.13472448172
0.951385498046875	0.0052264404296875	4562.22322548149
0.955810546875	0.00527069091796875	4562.31172648127
0.960235595703125	0.0053167724609375	4562.40022748105
0.96466064453125	0.00536285400390625	4562.48872848082
0.969085693359375	0.0054119873046875	4562.5772294806
0.9735107421875	0.005465087890625	4562.66573048038
0.977935791015625	0.005517578125	4562.75423148015
0.98236083984375	0.00557525634765625	4562.84273247993
0.986785888671875	0.005634765625	4562.93123347971
0.9912109375	0.00569580078125	4563.01973447948
0.995635986328125	0.00576019287109375	4563.10823547926
1.00006103515625	0.005828857421875	4563.19673647904
0.995635986328125	0.00519439697265625	4563.28523747881
0.9912109375	0.0046258544921875	4563.37373847859
0.986785888671875	0.0041070556640625	4563.46223947837
0.98236083984375	0.0036285400390625	4563.55074047814
0.977935791015625	0.00318603515625	4563.63924147792
0.9735107421875	0.0027752685546875	4563.72774247769
0.969085693359375	0.0023895263671875	4563.81624347747
0.96466064453125	0.00202789306640625	4563.90474447725
0.960235595703125	0.00168701171875	4563.99324547703
0.955810546875	0.00136566162109375	4564.0817464768
0.951385498046875	0.00106292724609375	4564.17024747658
0.94696044921875	0.0007769775390625	4564.25874847635
0.942535400390625	0.0005059814453125	4564.34724947613
0.9381103515625	0.00025	4564.43575047591
0.933685302734375	5.17883300781249E-06	4564.52425147568
0.92926025390625	-0.000223846435546875	4564.61275247546
0.924835205078125	-0.000440460205078125	4564.70125347524
0.92041015625	-0.000645751953125	4564.78975447501
0.915985107421875	-0.00084014892578125	4564.87825547479
0.91156005859375	-0.001024169921875	4564.96675647457
0.907135009765625	-0.00119781494140625	4565.05525747434
0.9027099609375	-0.00136199951171875	4565.14375847412
0.898284912109375	-0.00151611328125	4565.2322594739
0.89385986328125	-0.00166259765625	4565.32076047367
0.889434814453125	-0.00180084228515625	4565.40926147345
0.885009765625	-0.00193115234375	4565.49776247323
0.880584716796875	-0.00205291748046875	4565.586263473
0.87615966796875	-0.00216766357421875	4565.67476447278
0.871734619140625	-0.0022747802734375	4565.76326547256
0.8673095703125	-0.00237548828125	4565.85176647233
0.862884521484375	-0.00247039794921875	4565.94026747211
0.85845947265625	-0.00255889892578125	4566.02876847189
0.854034423828125	-0.00264251708984375	4566.11726947166
0.849609375	-0.0027191162109375	4566.20577047144
0.845184326171875	-0.00279205322265625	4566.29427147122
0.84075927734375	-0.0028594970703125	4566.38277247099
0.836334228515625	-0.00292327880859375	4566.47127347077
0.8319091796875	-0.0029827880859375	4566.55977447054
0.827484130859375	-0.003038330078125	4566.64827547032
0.82305908203125	-0.003089599609375	4566.7367764701
0.818634033203125	-0.00313690185546875	4566.82527746987
0.814208984375	-0.00318267822265625	4566.91377846965
0.809783935546875	-0.0032244873046875	4567.00227946943
0.80535888671875	-0.0032647705078125	4567.0907804692
0.800933837890625	-0.0033013916015625	4567.17928146898
0.7965087890625	-0.00333526611328125	4567.26778246876
0.792083740234375	-0.00336639404296875	4567.35628346853
0.78765869140625	-0.0033966064453125	4567.44478446831
0.783233642578125	-0.0034259033203125	4567.53328546809
0.77880859375	-0.00345245361328125	4567.62178646786
0.774383544921875	-0.00347808837890625	4567.71028746764
0.76995849609375	-0.00350128173828125	4567.79878846742
0.765533447265625	-0.00352325439453125	4567.88728946719
0.7611083984375	-0.003544921875	4567.97579046697
0.756683349609375	-0.00356597900390625	4568.06429146675
0.75225830078125	-0.0035858154296875	4568.15279246652
0.747833251953125	-0.00360595703125	4568.2412934663
0.743408203125	-0.003623046875	4568.32979446608
0.738983154296875	-0.00363861083984375	4568.41829546585
0.73455810546875	-0.00365509033203125	4568.50679646563
0.730133056640625	-0.003671875	4568.59529746541
0.7257080078125	-0.00368865966796875	4568.68379846518
0.721282958984375	-0.00370452880859375	4568.77229946496
0.71685791015625	-0.00371856689453125	4568.86080046474
0.712432861328125	-0.0037322998046875	4568.94930146451
0.7080078125	-0.003746337890625	4569.03780246429
0.703582763671875	-0.003759765625	4569.12630346407
0.69915771484375	-0.003773193359375	4569.21480446384
0.694732666015625	-0.0037872314453125	4569.30330546362
0.6903076171875	-0.00379974365234375	4569.39180646339
0.685882568359375	-0.00381195068359375	4569.48030746317
0.68145751953125	-0.0038250732421875	4569.56880846295
0.677032470703125	-0.00383819580078125	4569.65730946272
0.672607421875	-0.003851318359375	4569.7458104625
0.668182373046875	-0.0038641357421875	4569.83431146228
0.66375732421875	-0.003876953125	4569.92281246205
0.659332275390625	-0.003887939453125	4570.01131346183
0.6549072265625	-0.00389892578125	4570.09981446161
0.650482177734375	-0.0039117431640625	4570.18831546138
0.64605712890625	-0.003924560546875	4570.27681646116
0.641632080078125	-0.00393707275390625	4570.36531746094
0.63720703125	-0.00394866943359375	4570.45381846071
0.632781982421875	-0.00395904541015625	4570.54231946049
0.62835693359375	-0.0039703369140625	4570.63082046027
0.623931884765625	-0.00398590087890625	4570.71932146004
0.6195068359375	-0.0039984130859375	4570.80782245982
0.615081787109375	-0.00401031494140625	4570.8963234596
0.61065673828125	-0.00402252197265625	4570.98482445937
0.606231689453125	-0.00403350830078125	4571.07332545915
0.601806640625	-0.00404388427734375	4571.16182645893
0.597381591796875	-0.0040557861328125	4571.2503274587
0.59295654296875	-0.00406707763671875	4571.33882845848
0.588531494140625	-0.0040789794921875	4571.42732945826
0.5841064453125	-0.00408935546875	4571.51583045803
0.579681396484375	-0.004100341796875	4571.60433145781
0.57525634765625	-0.00411163330078125	4571.69283245759
0.570831298828125	-0.00412384033203125	4571.78133345736
0.56640625	-0.0041351318359375	4571.86983445714
0.561981201171875	-0.00414794921875	4571.95833545691
0.55755615234375	-0.0041583251953125	4572.04683645669
0.553131103515625	-0.00416900634765625	4572.13533745647
0.5487060546875	-0.0041790771484375	4572.22383845624
0.544281005859375	-0.00418914794921875	4572.31233945602
0.53985595703125	-0.00420074462890625	4572.4008404558
0.535430908203125	-0.00421112060546875	4572.48934145557
0.531005859375	-0.00422088623046875	4572.57784245535
0.526580810546875	-0.00422943115234375	4572.66634345513
0.52215576171875	-0.0042388916015625	4572.7548444549
0.517730712890625	-0.00424835205078125	4572.84334545468
0.5133056640625	-0.00425933837890625	4572.93184645446
0.508880615234375	-0.004268798828125	4573.02034745423
0.50445556640625	-0.00428009033203125	4573.10884845401
0.500030517578125	-0.0042901611328125	4573.19734945379
0.49560546875	-0.00429901123046875	4573.28585045356
0.491180419921875	-0.00430908203125	4573.37435145334
0.48675537109375	-0.0043194580078125	4573.46285245312
0.482330322265625	-0.0043304443359375	4573.55135345289
0.4779052734375	-0.00434112548828125	4573.63985445267
0.473480224609375	-0.0043511962890625	4573.72835545245
0.46905517578125	-0.0043603515625	4573.81685645222
0.464630126953125	-0.00437042236328125	4573.905357452
0.460205078125	-0.00438079833984375	4573.99385845178
0.455780029296875	-0.00439117431640625	4574.08235945155
0.45135498046875	-0.00440216064453125	4574.17086045133
0.446929931640625	-0.00441070556640625	4574.25936145111
0.4425048828125	-0.00442138671875	4574.34786245088
0.438079833984375	-0.00443145751953125	4574.43636345066
0.43365478515625	-0.00444091796875	4574.52486445044
0.429229736328125	-0.00445220947265625	4574.61336545021
0.4248046875	-0.0044622802734375	4574.70186644999
0.420379638671875	-0.00447265625	4574.79036744976
0.41595458984375	-0.004481201171875	4574.87886844954
0.411529541015625	-0.0044921875	4574.96736944932
0.4071044921875	-0.0045025634765625	4575.05587044909
0.402679443359375	-0.0045135498046875	4575.14437144887
0.39825439453125	-0.00452423095703125	4575.23287244865
0.393829345703125	-0.00453460693359375	4575.32137344842
0.389404296875	-0.0045428466796875	4575.4098744482
0.384979248046875	-0.0045526123046875	4575.49837544798
0.38055419921875	-0.00456390380859375	4575.58687644775
0.376129150390625	-0.00457489013671875	4575.67537744753
0.3717041015625	-0.0045855712890625	4575.76387844731
0.367279052734375	-0.00459503173828125	4575.85237944708
0.36285400390625	-0.00460479736328125	4575.94088044686
0.358428955078125	-0.00461517333984375	4576.02938144664
0.35400390625	-0.00462646484375	4576.11788244641
0.349578857421875	-0.0046356201171875	4576.20638344619
0.34515380859375	-0.004647216796875	4576.29488444597
0.340728759765625	-0.004658203125	4576.38338544574
0.3363037109375	-0.004669189453125	4576.47188644552
0.331878662109375	-0.00468017578125	4576.5603874453
0.32745361328125	-0.004691162109375	4576.64888844507
0.323028564453125	-0.00470306396484375	4576.73738944485
0.318603515625	-0.00471435546875	4576.82589044463
0.314178466796875	-0.0047265625	4576.9143914444
0.30975341796875	-0.00473968505859375	4577.00289244418
0.305328369140625	-0.0047515869140625	4577.09139344395
0.3009033203125	-0.0047637939453125	4577.17989444373
0.296478271484375	-0.00477569580078125	4577.26839544351
0.29205322265625	-0.00478912353515625	4577.35689644329
0.287628173828125	-0.004801025390625	4577.44539744306
0.283203125	-0.004813232421875	4577.53389844284
0.278778076171875	-0.00482513427734375	4577.62239944261
0.27435302734375	-0.00483795166015625	4577.71090044239
0.269927978515625	-0.00485076904296875	4577.79940144217
0.2655029296875	-0.0048638916015625	4577.88790244194
0.261077880859375	-0.0048773193359375	4577.97640344172
0.25665283203125	-0.00489044189453125	4578.0649044415
0.252227783203125	-0.00490264892578125	4578.15340544127
0.247802734375	-0.00491729736328125	4578.24190644105
0.243377685546875	-0.004931640625	4578.33040744083
0.23895263671875	-0.0049456787109375	4578.4189084406
0.234527587890625	-0.00495941162109375	4578.50740944038
0.2301025390625	-0.004971923828125	4578.59591044016
0.225677490234375	-0.00498687744140625	4578.68441143993
0.22125244140625	-0.005001220703125	4578.77291243971
0.216827392578125	-0.005015869140625	4578.86141343949
0.21240234375	-0.00503204345703125	4578.94991443926
0.207977294921875	-0.00504791259765625	4579.03841543904
0.20355224609375	-0.00506317138671875	4579.12691643882
0.199127197265625	-0.005078125	4579.21541743859
0.1947021484375	-0.005093994140625	4579.30391843837
0.190277099609375	-0.005111083984375	4579.39241943815
0.18585205078125	-0.005128173828125	4579.48092043792
0.181427001953125	-0.00514556884765625	4579.5694214377
0.177001953125	-0.0051629638671875	4579.65792243748
0.172576904296875	-0.00517974853515625	4579.74642343725
0.16815185546875	-0.0051971435546875	4579.83492443703
0.163726806640625	-0.00521484375	4579.9234254368
0.1593017578125	-0.0052337646484375	4580.01192643658
0.154876708984375	-0.00525115966796875	4580.10042743636
0.15045166015625	-0.00527099609375	4580.18892843614
0.146026611328125	-0.00529083251953125	4580.27742943591
0.1416015625	-0.00531005859375	4580.36593043569
0.137176513671875	-0.0053302001953125	4580.45443143546
0.13275146484375	-0.00534942626953125	4580.54293243524
0.128326416015625	-0.00537017822265625	4580.63143343502
0.1239013671875	-0.00539154052734375	4580.71993443479
0.119476318359375	-0.0054119873046875	4580.80843543457
0.11505126953125	-0.00543121337890625	4580.89693643435
0.110626220703125	-0.00545318603515625	4580.98543743412
0.106201171875	-0.00547515869140625	4581.0739384339
0.101776123046875	-0.005498046875	4581.16243943368
0.09735107421875	-0.00552001953125	4581.25094043345
0.092926025390625	-0.0055419921875	4581.33944143323
0.0885009765625	-0.00556365966796875	4581.42794243301
0.084075927734375	-0.005587158203125	4581.51644343278
0.07965087890625	-0.00561248779296875	4581.60494443256
0.075225830078125	-0.00563568115234375	4581.69344543234
0.07080078125	-0.0056597900390625	4581.78194643211
0.066375732421875	-0.00568389892578125	4581.87044743189
0.06195068359375	-0.00570892333984375	4581.95894843167
0.057525634765625	-0.0057342529296875	4582.04744943144
0.0531005859375	-0.00576019287109375	4582.13595043122
0.048675537109375	-0.00578643798828125	4582.224451431
0.04425048828125	-0.00581329345703125	4582.31295243077
0.039825439453125	-0.005838623046875	4582.40145343055
0.035400390625	-0.0058648681640625	4582.48995443033
0.030975341796875	-0.00589263916015625	4582.5784554301
0.02655029296875	-0.0059210205078125	4582.66695642988
0.022125244140625	-0.0059515380859375	4582.75545742965
0.0177001953125	-0.0059796142578125	4582.84395842943
0.013275146484375	-0.006007080078125	4582.93245942921
0.00885009765625	-0.0060150146484375	4583.02096042898
0.004425048828125	-0.0060455322265625	4583.10946142876
0	-0.0060791015625	4583.19796242854
0.004425048828125	-0.0053863525390625	4583.28646342831
0.00885009765625	-0.00475494384765625	4583.37496442809
0.013275146484375	-0.004168701171875	4583.46346542787
0.0177001953125	-0.0036224365234375	4583.55196642764
0.022125244140625	-0.00311248779296875	4583.64046742742
0.02655029296875	-0.00263458251953125	4583.7289684272
0.030975341796875	-0.00219482421875	4583.81746942697
0.035400390625	-0.00177093505859375	4583.90597042675
0.039825439453125	-0.0013720703125	4583.99447142653
0.04425048828125	-0.00099578857421875	4584.0829724263
0.048675537109375	-0.00063995361328125	4584.17147342608
0.0531005859375	-0.00030426025390625	4584.25997442586
0.057525634765625	1.33697509765625E-05	4584.34847542563
0.06195068359375	0.00031396484375	4584.43697642541
0.066375732421875	0.00059906005859375	4584.52547742519
0.07080078125	0.000867919921875	4584.61397842496
0.075225830078125	0.001123046875	4584.70247942474
0.07965087890625	0.0013653564453125	4584.79098042452
0.084075927734375	0.001597900390625	4584.87948142429
0.0885009765625	0.00181488037109375	4584.96798242407
0.092926025390625	0.002017822265625	4585.05648342384
0.09735107421875	0.00220703125	4585.14498442362
0.101776123046875	0.00238616943359375	4585.2334854234
0.106201171875	0.00255615234375	4585.32198642318
0.110626220703125	0.00271697998046875	4585.41048742295
0.11505126953125	0.0028692626953125	4585.49898842273
0.119476318359375	0.00301025390625	4585.5874894225
0.1239013671875	0.003145751953125	4585.67599042228
0.128326416015625	0.0032733154296875	4585.76449142206
0.13275146484375	0.00339324951171875	4585.85299242183
0.137176513671875	0.003505859375	4585.94149342161
0.1416015625	0.00361328125	4586.02999442139
0.146026611328125	0.00371429443359375	4586.11849542116
0.15045166015625	0.00380950927734375	4586.20699642094
0.154876708984375	0.00389801025390625	4586.29549742072
0.1593017578125	0.0039801025390625	4586.38399842049
0.163726806640625	0.0040576171875	4586.47249942027
0.16815185546875	0.00413055419921875	4586.56100042005
0.172576904296875	0.00419769287109375	4586.64950141982
0.177001953125	0.00425933837890625	4586.7380024196
0.181427001953125	0.0043170166015625	4586.82650341938
0.18585205078125	0.004371337890625	4586.91500441915
0.190277099609375	0.00442169189453125	4587.00350541893
0.1947021484375	0.00446746826171875	4587.09200641871
0.199127197265625	0.00451080322265625	4587.18050741848
0.20355224609375	0.0045489501953125	4587.26900841826
0.207977294921875	0.00458343505859375	4587.35750941804
0.21240234375	0.0046160888671875	4587.44601041781
0.216827392578125	0.00464752197265625	4587.53451141759
0.22125244140625	0.0046759033203125	4587.62301241737
0.225677490234375	0.0047064208984375	4587.71151341714
0.2301025390625	0.00472900390625	4587.80001441692
0.234527587890625	0.0047467041015625	4587.88851541669
0.23895263671875	0.00476287841796875	4587.97701641647
0.243377685546875	0.00477752685546875	4588.06551741625
0.247802734375	0.00478973388671875	4588.15401841602
0.252227783203125	0.00480010986328125	4588.2425194158
0.25665283203125	0.004808349609375	4588.33102041558
0.261077880859375	0.004814453125	4588.41952141535
0.2655029296875	0.0048187255859375	4588.50802241513
0.269927978515625	0.004822998046875	4588.59652341491
0.27435302734375	0.004825439453125	4588.68502441468
0.278778076171875	0.0048284912109375	4588.77352541446
0.283203125	0.00483367919921875	4588.86202641424
0.287628173828125	0.004833984375	4588.95052741401
0.29205322265625	0.00483062744140625	4589.03902841379
0.296478271484375	0.00482635498046875	4589.12752941357
0.3009033203125	0.00482208251953125	4589.21603041334
0.305328369140625	0.00481719970703125	4589.30453141312
0.30975341796875	0.00481353759765625	4589.3930324129
0.314178466796875	0.00480926513671875	4589.48153341267
0.318603515625	0.004801025390625	4589.57003441245
0.323028564453125	0.00479156494140625	4589.65853541223
0.32745361328125	0.00478302001953125	4589.747036412
0.331878662109375	0.0047772216796875	4589.83553741178
0.3363037109375	0.004769287109375	4589.92403841156
0.340728759765625	0.004761962890625	4590.01253941133
0.34515380859375	0.00475250244140625	4590.10104041111
0.349578857421875	0.0047430419921875	4590.18954141089
0.35400390625	0.00473114013671875	4590.27804241066
0.358428955078125	0.0047222900390625	4590.36654341044
0.36285400390625	0.00471099853515625	4590.45504441022
0.367279052734375	0.00469940185546875	4590.54354540999
0.3717041015625	0.0046875	4590.63204640977
0.376129150390625	0.00467620849609375	4590.72054740954
0.38055419921875	0.0046649169921875	4590.80904840932
0.384979248046875	0.00465484619140625	4590.8975494091
0.389404296875	0.0046435546875	4590.98605040887
0.393829345703125	0.00463134765625	4591.07455140865
0.39825439453125	0.004620361328125	4591.16305240843
0.402679443359375	0.00460845947265625	4591.2515534082
0.4071044921875	0.0045977783203125	4591.34005440798
0.411529541015625	0.00458709716796875	4591.42855540776
0.41595458984375	0.00457733154296875	4591.51705640753
0.420379638671875	0.0045660400390625	4591.60555740731
0.4248046875	0.004554443359375	4591.69405840709
0.429229736328125	0.0045440673828125	4591.78255940686
0.43365478515625	0.00453338623046875	4591.87106040664
0.438079833984375	0.0045233154296875	4591.95956140642
0.4425048828125	0.00451385498046875	4592.04806240619
0.446929931640625	0.00450286865234375	4592.13656340597
0.45135498046875	0.0044921875	4592.22506440575
0.455780029296875	0.00448272705078125	4592.31356540552
0.460205078125	0.00447296142578125	4592.4020664053
0.464630126953125	0.00446441650390625	4592.49056740508
0.46905517578125	0.00445404052734375	4592.57906840485
0.473480224609375	0.00444549560546875	4592.66756940463
0.4779052734375	0.0044366455078125	4592.75607040441
0.482330322265625	0.00442779541015625	4592.84457140418
0.48675537109375	0.00441986083984375	4592.93307240396
0.491180419921875	0.0044122314453125	4593.02157340374
0.49560546875	0.004404296875	4593.11007440351
0.500030517578125	0.00439605712890625	4593.19857540329
0.50445556640625	0.00438934326171875	4593.28707640306
0.508880615234375	0.004381103515625	4593.37557740284
0.5133056640625	0.00437408447265625	4593.46407840262
0.517730712890625	0.0043682861328125	4593.55257940239
0.52215576171875	0.00436187744140625	4593.64108040217
0.526580810546875	0.0043560791015625	4593.72958140195
0.531005859375	0.00434844970703125	4593.81808240172
0.535430908203125	0.00434234619140625	4593.9065834015
0.53985595703125	0.00433746337890625	4593.99508440128
0.544281005859375	0.00433197021484375	4594.08358540105
0.5487060546875	0.004326171875	4594.17208640083
0.553131103515625	0.00432037353515625	4594.26058740061
0.55755615234375	0.004315185546875	4594.34908840038
0.561981201171875	0.004310302734375	4594.43758940016
0.56640625	0.004306640625	4594.52609039994
0.570831298828125	0.004302978515625	4594.61459139971
0.57525634765625	0.00430023193359375	4594.70309239949
0.579681396484375	0.004296875	4594.79159339927
0.5841064453125	0.0042926025390625	4594.88009439904
0.588531494140625	0.004288330078125	4594.96859539882
0.59295654296875	0.00428436279296875	4595.0570963986
0.597381591796875	0.0042828369140625	4595.14559739837
0.601806640625	0.00428131103515625	4595.23409839815
0.606231689453125	0.00427886962890625	4595.32259939793
0.61065673828125	0.00427581787109375	4595.4111003977
0.615081787109375	0.00427398681640625	4595.49960139748
0.6195068359375	0.0042730712890625	4595.58810239726
0.623931884765625	0.00427215576171875	4595.67660339703
0.62835693359375	0.00427490234375	4595.76510439681
0.632781982421875	0.00427337646484375	4595.85360539659
0.63720703125	0.0042730712890625	4595.94210639636
0.641632080078125	0.00427154541015625	4596.03060739614
0.64605712890625	0.0042706298828125	4596.11910839591
0.650482177734375	0.004271240234375	4596.20760939569
0.6549072265625	0.0042718505859375	4596.29611039547
0.659332275390625	0.00427215576171875	4596.38461139524
0.66375732421875	0.0042730712890625	4596.47311239502
0.668182373046875	0.00427215576171875	4596.5616133948
0.672607421875	0.00427276611328125	4596.65011439457
0.677032470703125	0.0042755126953125	4596.73861539435
0.68145751953125	0.00427703857421875	4596.82711639413
0.685882568359375	0.0042791748046875	4596.9156173939
0.6903076171875	0.0042803955078125	4597.00411839368
0.694732666015625	0.0042822265625	4597.09261939346
0.69915771484375	0.00428466796875	4597.18112039323
0.703582763671875	0.004287109375	4597.26962139301
0.7080078125	0.00429046630859375	4597.35812239279
0.712432861328125	0.00429443359375	4597.44662339256
0.71685791015625	0.00429779052734375	4597.53512439234
0.721282958984375	0.004300537109375	4597.62362539212
0.7257080078125	0.00430450439453125	4597.71212639189
0.730133056640625	0.00431060791015625	4597.80062739167
0.73455810546875	0.00431549072265625	4597.88912839145
0.738983154296875	0.0043206787109375	4597.97762939122
0.743408203125	0.0043243408203125	4598.066130391
0.747833251953125	0.00432952880859375	4598.15463139078
0.75225830078125	0.00433502197265625	4598.24313239055
0.756683349609375	0.0043408203125	4598.33163339033
0.7611083984375	0.00434906005859375	4598.4201343901
0.765533447265625	0.004356689453125	4598.50863538988
0.76995849609375	0.00436309814453125	4598.59713638966
0.774383544921875	0.00436981201171875	4598.68563738944
0.77880859375	0.00437774658203125	4598.77413838921
0.783233642578125	0.00438629150390625	4598.86263938899
0.78765869140625	0.0043951416015625	4598.95114038876
0.792083740234375	0.00440521240234375	4599.03964138854
0.7965087890625	0.0044140625	4599.12814238832
0.800933837890625	0.00442291259765625	4599.21664338809
0.80535888671875	0.00443267822265625	4599.30514438787
0.809783935546875	0.0044451904296875	4599.39364538765
0.814208984375	0.00445587158203125	4599.48214638742
0.818634033203125	0.0044696044921875	4599.5706473872
0.82305908203125	0.00448028564453125	4599.65914838698
0.827484130859375	0.0044927978515625	4599.74764938675
0.8319091796875	0.004505615234375	4599.83615038653
0.836334228515625	0.00451904296875	4599.92465138631
0.84075927734375	0.00453338623046875	4600.01315238608
0.845184326171875	0.00454925537109375	4600.10165338586
0.849609375	0.004564208984375	4600.19015438564
0.854034423828125	0.00457977294921875	4600.27865538541
0.85845947265625	0.0045965576171875	4600.36715638519
0.862884521484375	0.0046136474609375	4600.45565738497
0.8673095703125	0.00463287353515625	4600.54415838474
0.871734619140625	0.0046527099609375	4600.63265938452
0.87615966796875	0.0046722412109375	4600.7211603843
0.880584716796875	0.00469329833984375	4600.80966138407
0.885009765625	0.00471466064453125	4600.89816238385
0.889434814453125	0.004737548828125	4600.98666338363
0.89385986328125	0.00476226806640625	4601.0751643834
0.898284912109375	0.00478729248046875	4601.16366538318
0.9027099609375	0.00481292724609375	4601.25216638295
0.907135009765625	0.00483917236328125	4601.34066738273
0.91156005859375	0.00486663818359375	4601.42916838251
0.915985107421875	0.0048968505859375	4601.51766938229
0.92041015625	0.00492828369140625	4601.60617038206
0.924835205078125	0.00496124267578125	4601.69467138184
0.92926025390625	0.0049951171875	4601.78317238161
0.933685302734375	0.00502960205078125	4601.87167338139
0.9381103515625	0.005068359375	4601.96017438117
0.942535400390625	0.00510528564453125	4602.04867538094
0.94696044921875	0.00514678955078125	4602.13717638072
0.951385498046875	0.00518890380859375	4602.2256773805
0.955810546875	0.00523193359375	4602.31417838027
0.960235595703125	0.00527862548828125	4602.40267938005
0.96466064453125	0.00532623291015625	4602.49118037983
0.969085693359375	0.005374755859375	4602.5796813796
0.9735107421875	0.005428466796875	4602.66818237938
0.977935791015625	0.0054815673828125	4602.75668337916
0.98236083984375	0.005540771484375	4602.84518437893
0.986785888671875	0.0055987548828125	4602.93368537871
0.9912109375	0.00565948486328125	4603.02218637849
0.995635986328125	0.005726318359375	4603.11068737826
1.00006103515625	0.005797119140625	4603.19918837804
0.995635986328125	0.00516357421875	4603.28768937782
0.9912109375	0.00459747314453125	4603.37619037759
0.986785888671875	0.00408050537109375	4603.46469137737
0.98236083984375	0.0036041259765625	4603.55319237715
0.977935791015625	0.00316253662109375	4603.64169337692
0.9735107421875	0.00275390625	4603.7301943767
0.969085693359375	0.0023699951171875	4603.81869537648
0.96466064453125	0.00200958251953125	4603.90719637625
0.960235595703125	0.001669921875	4603.99569737603
0.955810546875	0.00135009765625	4604.0841983758
0.951385498046875	0.00104888916015625	4604.17269937558
0.94696044921875	0.00076416015625	4604.26120037536
0.942535400390625	0.000494384765625	4604.34970137513
0.9381103515625	0.000239471435546875	4604.43820237491
0.933685302734375	-4.62646484375E-06	4604.52670337469
0.92926025390625	-0.000232879638671875	4604.61520437446
0.924835205078125	-0.000448944091796875	4604.70370537424
0.92041015625	-0.000653656005859375	4604.79220637402
0.915985107421875	-0.00084747314453125	4604.88070737379
0.91156005859375	-0.00103057861328125	4604.96920837357
0.907135009765625	-0.00120361328125	4605.05770937335
0.9027099609375	-0.00136688232421875	4605.14621037312
0.898284912109375	-0.00152099609375	4605.2347113729
0.89385986328125	-0.00166656494140625	4605.32321237268
0.889434814453125	-0.00180389404296875	4605.41171337245
0.885009765625	-0.00193359375	4605.50021437223
0.880584716796875	-0.00205535888671875	4605.58871537201
0.87615966796875	-0.00216949462890625	4605.67721637178
0.871734619140625	-0.00227630615234375	4605.76571737156
0.8673095703125	-0.00237701416015625	4605.85421837134
0.862884521484375	-0.002471923828125	4605.94271937111
0.85845947265625	-0.00255950927734375	4606.03122037089
0.854034423828125	-0.00264068603515625	4606.11972137067
0.849609375	-0.00271728515625	4606.20822237044
0.845184326171875	-0.002789306640625	4606.29672337022
0.84075927734375	-0.00285736083984375	4606.38522436999
0.836334228515625	-0.0029217529296875	4606.47372536977
0.8319091796875	-0.0029803466796875	4606.56222636955
0.827484130859375	-0.00303466796875	4606.65072736933
0.82305908203125	-0.0030859375	4606.7392283691
0.818634033203125	-0.00313323974609375	4606.82772936888
0.814208984375	-0.00317779541015625	4606.91623036865
0.809783935546875	-0.0032196044921875	4607.00473136843
0.80535888671875	-0.00325927734375	4607.09323236821
0.800933837890625	-0.00329498291015625	4607.18173336798
0.7965087890625	-0.00332977294921875	4607.27023436776
0.792083740234375	-0.003360595703125	4607.35873536754
0.78765869140625	-0.00339080810546875	4607.44723636731
0.783233642578125	-0.00341949462890625	4607.53573736709
0.77880859375	-0.003446044921875	4607.62423836687
0.774383544921875	-0.00347137451171875	4607.71273936664
0.76995849609375	-0.0034942626953125	4607.80124036642
0.765533447265625	-0.0035162353515625	4607.8897413662
0.7611083984375	-0.00353729248046875	4607.97824236597
0.756683349609375	-0.00355865478515625	4608.06674336575
0.75225830078125	-0.0035791015625	4608.15524436553
0.747833251953125	-0.00359771728515625	4608.2437453653
0.743408203125	-0.00361419677734375	4608.33224636508
0.738983154296875	-0.00362884521484375	4608.42074736486
0.73455810546875	-0.0036456298828125	4608.50924836463
0.730133056640625	-0.00366180419921875	4608.59774936441
0.7257080078125	-0.0036785888671875	4608.68625036419
0.721282958984375	-0.0036944580078125	4608.77475136396
0.71685791015625	-0.00370849609375	4608.86325236374
0.712432861328125	-0.003721923828125	4608.95175336352
0.7080078125	-0.00373626708984375	4609.04025436329
0.703582763671875	-0.00374969482421875	4609.12875536307
0.69915771484375	-0.0037628173828125	4609.21725636284
0.694732666015625	-0.0037762451171875	4609.30575736262
0.6903076171875	-0.0037872314453125	4609.3942583624
0.685882568359375	-0.0037982177734375	4609.48275936217
0.68145751953125	-0.00381134033203125	4609.57126036195
0.677032470703125	-0.00382598876953125	4609.65976136173
0.672607421875	-0.003839111328125	4609.7482623615
0.668182373046875	-0.0038525390625	4609.83676336128
0.66375732421875	-0.003863525390625	4609.92526436106
0.659332275390625	-0.00387451171875	4610.01376536083
0.6549072265625	-0.00388641357421875	4610.10226636061
0.650482177734375	-0.00389801025390625	4610.19076736039
0.64605712890625	-0.003909912109375	4610.27926836016
0.641632080078125	-0.00392303466796875	4610.36776935994
0.63720703125	-0.0039337158203125	4610.45627035972
0.632781982421875	-0.003944091796875	4610.54477135949
0.62835693359375	-0.003956298828125	4610.63327235927
0.623931884765625	-0.0039715576171875	4610.72177335905
0.6195068359375	-0.0039825439453125	4610.81027435882
0.615081787109375	-0.00399566650390625	4610.8987753586
0.61065673828125	-0.00400604248046875	4610.98727635838
0.606231689453125	-0.0040167236328125	4611.07577735815
0.601806640625	-0.00402740478515625	4611.16427835793
0.597381591796875	-0.00403900146484375	4611.25277935771
0.59295654296875	-0.00405120849609375	4611.34128035748
0.588531494140625	-0.00406341552734375	4611.42978135726
0.5841064453125	-0.004073486328125	4611.51828235704
0.579681396484375	-0.0040838623046875	4611.60678335681
0.57525634765625	-0.00409515380859375	4611.69528435659
0.570831298828125	-0.00410675048828125	4611.78378535637
0.56640625	-0.00411895751953125	4611.87228635614
0.561981201171875	-0.0041302490234375	4611.96078735592
0.55755615234375	-0.004141845703125	4612.04928835569
0.553131103515625	-0.00415130615234375	4612.13778935547
0.5487060546875	-0.004161376953125	4612.22629035525
0.544281005859375	-0.00417022705078125	4612.31479135502
0.53985595703125	-0.00418182373046875	4612.4032923548
0.535430908203125	-0.004193115234375	4612.49179335458
0.531005859375	-0.0042010498046875	4612.58029435435
0.526580810546875	-0.00421051025390625	4612.66879535413
0.52215576171875	-0.0042193603515625	4612.75729635391
0.517730712890625	-0.00422760009765625	4612.84579735368
0.5133056640625	-0.0042388916015625	4612.93429835346
0.508880615234375	-0.0042498779296875	4613.02279935324
0.50445556640625	-0.00426025390625	4613.11130035301
0.500030517578125	-0.0042694091796875	4613.19980135279
0.49560546875	-0.00427825927734375	4613.28830235257
0.491180419921875	-0.00428924560546875	4613.37680335234
0.48675537109375	-0.00430023193359375	4613.46530435212
0.482330322265625	-0.00431060791015625	4613.5538053519
0.4779052734375	-0.0043206787109375	4613.64230635167
0.473480224609375	-0.004329833984375	4613.73080735145
0.46905517578125	-0.00433868408203125	4613.81930835123
0.464630126953125	-0.00434844970703125	4613.907809351
0.460205078125	-0.00436004638671875	4613.99631035078
0.455780029296875	-0.00437042236328125	4614.08481135056
0.45135498046875	-0.00438079833984375	4614.17331235033
0.446929931640625	-0.00439056396484375	4614.26181335011
0.4425048828125	-0.0043994140625	4614.35031434989
0.438079833984375	-0.00440948486328125	4614.43881534966
0.43365478515625	-0.00442108154296875	4614.52731634944
0.429229736328125	-0.004432373046875	4614.61581734921
0.4248046875	-0.00444183349609375	4614.70431834899
0.420379638671875	-0.004451904296875	4614.79281934877
0.41595458984375	-0.00446014404296875	4614.88132034854
0.411529541015625	-0.0044708251953125	4614.96982134832
0.4071044921875	-0.004481201171875	4615.0583223481
0.402679443359375	-0.00449188232421875	4615.14682334787
0.39825439453125	-0.00450225830078125	4615.23532434765
0.393829345703125	-0.00451171875	4615.32382534743
0.389404296875	-0.00451904296875	4615.4123263472
0.384979248046875	-0.00452911376953125	4615.50082734698
0.38055419921875	-0.00454193115234375	4615.58932834676
0.376129150390625	-0.0045526123046875	4615.67782934653
0.3717041015625	-0.0045635986328125	4615.76633034631
0.367279052734375	-0.0045733642578125	4615.85483134609
0.36285400390625	-0.004583740234375	4615.94333234586
0.358428955078125	-0.00459381103515625	4616.03183334564
0.35400390625	-0.00460418701171875	4616.12033434542
0.349578857421875	-0.0046136474609375	4616.20883534519
0.34515380859375	-0.0046258544921875	4616.29733634497
0.340728759765625	-0.0046356201171875	4616.38583734475
0.3363037109375	-0.00464691162109375	4616.47433834452
0.331878662109375	-0.00465789794921875	4616.5628393443
0.32745361328125	-0.004669189453125	4616.65134034408
0.323028564453125	-0.00468109130859375	4616.73984134385
0.318603515625	-0.0046923828125	4616.82834234363
0.314178466796875	-0.0047039794921875	4616.91684334341
0.30975341796875	-0.0047186279296875	4617.00534434318
0.305328369140625	-0.00472930908203125	4617.09384534296
0.3009033203125	-0.0047412109375	4617.18234634274
0.296478271484375	-0.0047540283203125	4617.27084734251
0.29205322265625	-0.00476593017578125	4617.35934834229
0.287628173828125	-0.0047772216796875	4617.44784934206
0.283203125	-0.00478973388671875	4617.53635034184
0.278778076171875	-0.0048016357421875	4617.62485134162
0.27435302734375	-0.0048138427734375	4617.71335234139
0.269927978515625	-0.0048272705078125	4617.80185334117
0.2655029296875	-0.0048406982421875	4617.89035434095
0.261077880859375	-0.00485382080078125	4617.97885534072
0.25665283203125	-0.004866943359375	4618.0673563405
0.252227783203125	-0.0048785400390625	4618.15585734028
0.247802734375	-0.0048919677734375	4618.24435834005
0.243377685546875	-0.00490631103515625	4618.33285933983
0.23895263671875	-0.004921875	4618.42136033961
0.234527587890625	-0.0049365234375	4618.50986133938
0.2301025390625	-0.00494842529296875	4618.59836233916
0.225677490234375	-0.004962158203125	4618.68686333894
0.22125244140625	-0.00497833251953125	4618.77536433871
0.216827392578125	-0.00499420166015625	4618.86386533849
0.21240234375	-0.0050091552734375	4618.95236633827
0.207977294921875	-0.00502471923828125	4619.04086733804
0.20355224609375	-0.00503814697265625	4619.12936833782
0.199127197265625	-0.0050537109375	4619.2178693376
0.1947021484375	-0.005069580078125	4619.30637033737
0.190277099609375	-0.00508697509765625	4619.39487133715
0.18585205078125	-0.00510406494140625	4619.48337233693
0.181427001953125	-0.0051214599609375	4619.5718733367
0.177001953125	-0.005137939453125	4619.66037433648
0.172576904296875	-0.00515533447265625	4619.74887533625
0.16815185546875	-0.00517242431640625	4619.83737633603
0.163726806640625	-0.00519012451171875	4619.92587733581
0.1593017578125	-0.00520904541015625	4620.01437833559
0.154876708984375	-0.0052294921875	4620.10287933536
0.15045166015625	-0.00524749755859375	4620.19138033514
0.146026611328125	-0.0052655029296875	4620.27988133491
0.1416015625	-0.0052850341796875	4620.36838233469
0.137176513671875	-0.00530548095703125	4620.45688333447
0.13275146484375	-0.0053265380859375	4620.54538433424
0.128326416015625	-0.0053472900390625	4620.63388533402
0.1239013671875	-0.00536651611328125	4620.7223863338
0.119476318359375	-0.00538665771484375	4620.81088733357
0.11505126953125	-0.00540740966796875	4620.89938833335
0.110626220703125	-0.0054290771484375	4620.98788933313
0.106201171875	-0.0054510498046875	4621.0763903329
0.101776123046875	-0.0054736328125	4621.16489133268
0.09735107421875	-0.00549560546875	4621.25339233246
0.092926025390625	-0.00551788330078125	4621.34189333223
0.0885009765625	-0.005540771484375	4621.43039433201
0.084075927734375	-0.00556488037109375	4621.51889533179
0.07965087890625	-0.005589599609375	4621.60739633156
0.075225830078125	-0.00561248779296875	4621.69589733134
0.07080078125	-0.0056365966796875	4621.78439833112
0.066375732421875	-0.0056597900390625	4621.87289933089
0.06195068359375	-0.00568389892578125	4621.96140033067
0.057525634765625	-0.00571014404296875	4622.04990133045
0.0531005859375	-0.005736083984375	4622.13840233022
0.048675537109375	-0.0057635498046875	4622.22690333
0.04425048828125	-0.00578887939453125	4622.31540432978
0.039825439453125	-0.0058154296875	4622.40390532955
0.035400390625	-0.00584136962890625	4622.49240632933
0.030975341796875	-0.0058697509765625	4622.5809073291
0.02655029296875	-0.00589874267578125	4622.66940832888
0.022125244140625	-0.0059271240234375	4622.75790932866
0.0177001953125	-0.005955810546875	4622.84641032844
0.013275146484375	-0.00598419189453125	4622.93491132821
0.00885009765625	-0.00601318359375	4623.02341232799
0.004425048828125	-0.006024169921875	4623.11191332776
0	-0.0060546875	4623.20041432754
0.004425048828125	-0.0053619384765625	4623.28891532732
0.00885009765625	-0.00473297119140625	4623.37741632709
0.013275146484375	-0.00414886474609375	4623.46591732687
0.0177001953125	-0.00360321044921875	4623.55441832665
0.022125244140625	-0.00309478759765625	4623.64291932642
0.02655029296875	-0.00261810302734375	4623.7314203262
0.030975341796875	-0.0021795654296875	4623.81992132598
0.035400390625	-0.00175628662109375	4623.90842232575
0.039825439453125	-0.00135772705078125	4623.99692332553
0.04425048828125	-0.00098175048828125	4624.08542432531
0.048675537109375	-0.00062713623046875	4624.17392532508
0.0531005859375	-0.000291961669921875	4624.26242632486
0.057525634765625	2.5225830078125E-05	4624.35092732464
0.06195068359375	0.000325469970703125	4624.43942832441
0.066375732421875	0.00061004638671875	4624.52792932419
0.07080078125	0.00087860107421875	4624.61643032397
0.075225830078125	0.0011334228515625	4624.70493132374
0.07965087890625	0.001375732421875	4624.79343232352
0.084075927734375	0.00160736083984375	4624.8819333233
0.0885009765625	0.00182342529296875	4624.97043432307
0.092926025390625	0.0020257568359375	4625.05893532285
0.09735107421875	0.00221466064453125	4625.14743632263
0.101776123046875	0.00239410400390625	4625.2359373224
0.106201171875	0.00256439208984375	4625.32443832218
0.110626220703125	0.00272552490234375	4625.41293932195
0.11505126953125	0.00287689208984375	4625.50144032173
0.119476318359375	0.003017578125	4625.58994132151
0.1239013671875	0.00315155029296875	4625.67844232128
0.128326416015625	0.00327911376953125	4625.76694332106
0.13275146484375	0.0033984375	4625.85544432084
0.137176513671875	0.0035113525390625	4625.94394532061
0.1416015625	0.0036175537109375	4626.03244632039
0.146026611328125	0.00371917724609375	4626.12094732017
0.15045166015625	0.0038134765625	4626.20944831994
0.154876708984375	0.0039019775390625	4626.29794931972
0.1593017578125	0.00398468017578125	4626.3864503195
0.163726806640625	0.00406280517578125	4626.47495131927
0.16815185546875	0.00413543701171875	4626.56345231905
0.172576904296875	0.00420257568359375	4626.65195331883
0.177001953125	0.00426483154296875	4626.7404543186
0.181427001953125	0.0043231201171875	4626.82895531838
0.18585205078125	0.0043768310546875	4626.91745631816
0.190277099609375	0.00442718505859375	4627.00595731793
0.1947021484375	0.00447235107421875	4627.09445831771
0.199127197265625	0.00451446533203125	4627.18295931749
0.20355224609375	0.00455230712890625	4627.27146031726
0.207977294921875	0.00458831787109375	4627.35996131704
0.21240234375	0.00462127685546875	4627.44846231682
0.216827392578125	0.0046527099609375	4627.53696331659
0.22125244140625	0.004681396484375	4627.62546431637
0.225677490234375	0.0047113037109375	4627.71396531615
0.2301025390625	0.0047320556640625	4627.80246631592
0.234527587890625	0.004749755859375	4627.8909673157
0.23895263671875	0.0047650146484375	4627.97946831548
0.243377685546875	0.0047802734375	4628.06796931525
0.247802734375	0.00479217529296875	4628.15647031503
0.252227783203125	0.00480255126953125	4628.2449713148
0.25665283203125	0.00480987548828125	4628.33347231458
0.261077880859375	0.004815673828125	4628.42197331436
0.2655029296875	0.004820556640625	4628.51047431413
0.269927978515625	0.00482391357421875	4628.59897531391
0.27435302734375	0.00482696533203125	4628.68747631369
0.278778076171875	0.00483184814453125	4628.77597731346
0.283203125	0.00483551025390625	4628.86447831324
0.287628173828125	0.00483367919921875	4628.95297931302
0.29205322265625	0.0048297119140625	4629.04148031279
0.296478271484375	0.00482635498046875	4629.12998131257
0.3009033203125	0.00482147216796875	4629.21848231235
0.305328369140625	0.00481658935546875	4629.30698331212
0.30975341796875	0.00481048583984375	4629.3954843119
0.314178466796875	0.00480560302734375	4629.48398531168
0.318603515625	0.00479766845703125	4629.57248631145
0.323028564453125	0.00478912353515625	4629.66098731123
0.32745361328125	0.00478118896484375	4629.74948831101
0.331878662109375	0.0047735595703125	4629.83798931078
0.3363037109375	0.004765625	4629.92649031056
0.340728759765625	0.00475738525390625	4630.01499131034
0.34515380859375	0.00474822998046875	4630.10349231011
0.349578857421875	0.00473876953125	4630.19199330989
0.35400390625	0.004727783203125	4630.28049430967
0.358428955078125	0.004716796875	4630.36899530944
0.36285400390625	0.00470458984375	4630.45749630922
0.367279052734375	0.0046923828125	4630.545997309
0.3717041015625	0.00468170166015625	4630.63449830877
0.376129150390625	0.00467071533203125	4630.72299930855
0.38055419921875	0.00466094970703125	4630.81150030832
0.384979248046875	0.00464996337890625	4630.9000013081
0.389404296875	0.00463836669921875	4630.98850230788
0.393829345703125	0.0046240234375	4631.07700330765
0.39825439453125	0.00461334228515625	4631.16550430743
0.402679443359375	0.00460235595703125	4631.25400530721
0.4071044921875	0.00459228515625	4631.34250630698
0.411529541015625	0.004581298828125	4631.43100730676
0.41595458984375	0.00456939697265625	4631.51950830654
0.420379638671875	0.00455780029296875	4631.60800930631
0.4248046875	0.004547119140625	4631.69651030609
0.429229736328125	0.004537353515625	4631.78501130587
0.43365478515625	0.0045269775390625	4631.87351230564
0.438079833984375	0.00451507568359375	4631.96201330542
0.4425048828125	0.00450347900390625	4632.0505143052
0.446929931640625	0.004490966796875	4632.13901530497
0.45135498046875	0.0044818115234375	4632.22751630475
0.455780029296875	0.00447418212890625	4632.31601730453
0.460205078125	0.00446533203125	4632.4045183043
0.464630126953125	0.0044561767578125	4632.49301930408
0.46905517578125	0.00444549560546875	4632.58152030386
0.473480224609375	0.0044354248046875	4632.67002130363
0.4779052734375	0.0044268798828125	4632.75852230341
0.482330322265625	0.0044183349609375	4632.84702330319
0.48675537109375	0.00441070556640625	4632.93552430296
0.491180419921875	0.00440155029296875	4633.02402530274
0.49560546875	0.004393310546875	4633.11252630252
0.500030517578125	0.004384765625	4633.20102730229
0.50445556640625	0.00437652587890625	4633.28952830207
0.508880615234375	0.0043701171875	4633.37802930185
0.5133056640625	0.00436309814453125	4633.46653030162
0.517730712890625	0.0043560791015625	4633.5550313014
0.52215576171875	0.0043499755859375	4633.64353230117
0.526580810546875	0.0043426513671875	4633.73203330095
0.531005859375	0.0043359375	4633.82053430073
0.535430908203125	0.0043304443359375	4633.9090353005
0.53985595703125	0.00432525634765625	4633.99753630028
0.544281005859375	0.0043194580078125	4634.08603730006
0.5487060546875	0.00431243896484375	4634.17453829983
0.553131103515625	0.0043072509765625	4634.26303929961
0.55755615234375	0.00430206298828125	4634.35154029939
0.561981201171875	0.00429840087890625	4634.44004129916
0.56640625	0.00429473876953125	4634.52854229894
0.570831298828125	0.00429107666015625	4634.61704329872
0.57525634765625	0.004285888671875	4634.70554429849
0.579681396484375	0.0042816162109375	4634.79404529827
0.5841064453125	0.00427734375	4634.88254629805
0.588531494140625	0.0042724609375	4634.97104729782
0.59295654296875	0.00427001953125	4635.0595482976
0.597381591796875	0.0042681884765625	4635.14804929738
0.601806640625	0.00426544189453125	4635.23655029715
0.606231689453125	0.00426239013671875	4635.32505129693
0.61065673828125	0.00425994873046875	4635.41355229671
0.615081787109375	0.0042578125	4635.50205329648
0.6195068359375	0.0042572021484375	4635.59055429626
0.623931884765625	0.00425628662109375	4635.67905529604
0.62835693359375	0.0042584228515625	4635.76755629581
0.632781982421875	0.00425628662109375	4635.85605729559
0.63720703125	0.00425445556640625	4635.94455829536
0.641632080078125	0.004254150390625	4636.03305929514
0.64605712890625	0.00425384521484375	4636.12156029492
0.650482177734375	0.00425445556640625	4636.2100612947
0.6549072265625	0.00425323486328125	4636.29856229447
0.659332275390625	0.00425262451171875	4636.38706329425
0.66375732421875	0.00425323486328125	4636.47556429402
0.668182373046875	0.0042535400390625	4636.5640652938
0.672607421875	0.00425445556640625	4636.65256629358
0.677032470703125	0.00425567626953125	4636.74106729335
0.68145751953125	0.00425628662109375	4636.82956829313
0.685882568359375	0.00425811767578125	4636.91806929291
0.6903076171875	0.004259033203125	4637.00657029268
0.694732666015625	0.00426116943359375	4637.09507129246
0.69915771484375	0.00426361083984375	4637.18357229224
0.703582763671875	0.00426605224609375	4637.27207329201
0.7080078125	0.00426788330078125	4637.36057429179
0.712432861328125	0.00427093505859375	4637.44907529157
0.71685791015625	0.00427459716796875	4637.53757629134
0.721282958984375	0.0042779541015625	4637.62607729112
0.7257080078125	0.0042816162109375	4637.7145782909
0.730133056640625	0.00428680419921875	4637.80307929067
0.73455810546875	0.0042913818359375	4637.89158029045
0.738983154296875	0.0042962646484375	4637.98008129023
0.743408203125	0.0042987060546875	4638.06858229
0.747833251953125	0.00430389404296875	4638.15708328978
0.75225830078125	0.0043096923828125	4638.24558428956
0.756683349609375	0.00431610107421875	4638.33408528933
0.7611083984375	0.0043231201171875	4638.42258628911
0.765533447265625	0.0043292236328125	4638.51108728889
0.76995849609375	0.0043359375	4638.59958828866
0.774383544921875	0.00434295654296875	4638.68808928844
0.77880859375	0.0043511962890625	4638.77659028821
0.783233642578125	0.004359130859375	4638.86509128799
0.78765869140625	0.00436798095703125	4638.95359228777
0.792083740234375	0.00437652587890625	4639.04209328754
0.7965087890625	0.00438507080078125	4639.13059428732
0.800933837890625	0.0043939208984375	4639.2190952871
0.80535888671875	0.0044049072265625	4639.30759628687
0.809783935546875	0.004415283203125	4639.39609728665
0.814208984375	0.00442718505859375	4639.48459828643
0.818634033203125	0.00443817138671875	4639.5730992862
0.82305908203125	0.004449462890625	4639.66160028598
0.827484130859375	0.0044610595703125	4639.75010128576
0.8319091796875	0.004473876953125	4639.83860228553
0.836334228515625	0.00448883056640625	4639.92710328531
0.84075927734375	0.00450286865234375	4640.01560428509
0.845184326171875	0.004517822265625	4640.10410528486
0.849609375	0.004532470703125	4640.19260628464
0.854034423828125	0.0045477294921875	4640.28110728442
0.85845947265625	0.0045654296875	4640.36960828419
0.862884521484375	0.00458251953125	4640.45810928397
0.8673095703125	0.00460052490234375	4640.54661028375
0.871734619140625	0.00462005615234375	4640.63511128352
0.87615966796875	0.0046392822265625	4640.7236122833
0.880584716796875	0.00465972900390625	4640.81211328308
0.885009765625	0.0046820068359375	4640.90061428285
0.889434814453125	0.00470550537109375	4640.98911528263
0.89385986328125	0.0047308349609375	4641.07761628241
0.898284912109375	0.00475372314453125	4641.16611728218
0.9027099609375	0.0047796630859375	4641.25461828196
0.907135009765625	0.0048065185546875	4641.34311928174
0.91156005859375	0.0048345947265625	4641.43162028151
0.915985107421875	0.00486541748046875	4641.52012128129
0.92041015625	0.0048956298828125	4641.60862228106
0.924835205078125	0.00492767333984375	4641.69712328084
0.92926025390625	0.00495941162109375	4641.78562428062
0.933685302734375	0.0049945068359375	4641.87412528039
0.9381103515625	0.0050335693359375	4641.96262628017
0.942535400390625	0.00507293701171875	4642.05112727995
0.94696044921875	0.00511322021484375	4642.13962827972
0.951385498046875	0.005155029296875	4642.2281292795
0.955810546875	0.00519744873046875	4642.31663027928
0.960235595703125	0.00524200439453125	4642.40513127905
0.96466064453125	0.00529022216796875	4642.49363227883
0.969085693359375	0.005341796875	4642.58213327861
0.9735107421875	0.00539520263671875	4642.67063427838
0.977935791015625	0.0054486083984375	4642.75913527816
0.98236083984375	0.00550567626953125	4642.84763627794
0.986785888671875	0.0055645751953125	4642.93613727771
0.9912109375	0.0056280517578125	4643.02463827749
