Potential applied (V)	WE(1).Current (A)	Time (s)
0.004425048828125	-0.0852142333984375	5149.20393399951
0.00885009765625	-0.08248291015625	5149.22605899945
0.013275146484375	-0.080242919921875	5149.2481839994
0.0177001953125	-0.0782440185546875	5149.27030899934
0.022125244140625	-0.0764434814453125	5149.29243399929
0.02655029296875	-0.0747528076171875	5149.31455899923
0.030975341796875	-0.073077392578125	5149.33668399917
0.035400390625	-0.0716339111328125	5149.35880899912
0.039825439453125	-0.07015380859375	5149.38093399906
0.04425048828125	-0.0687713623046875	5149.40305899901
0.048675537109375	-0.067401123046875	5149.42518399895
0.0531005859375	-0.0661773681640625	5149.4473089989
0.057525634765625	-0.0648834228515625	5149.46943399884
0.06195068359375	-0.0636383056640625	5149.49155899878
0.066375732421875	-0.062396240234375	5149.51368399873
0.07080078125	-0.0612091064453125	5149.53580899867
0.075225830078125	-0.060015869140625	5149.55793399862
0.07965087890625	-0.05888671875	5149.58005899856
0.084075927734375	-0.057745361328125	5149.6021839985
0.0885009765625	-0.0566497802734375	5149.62430899845
0.092926025390625	-0.055560302734375	5149.64643399839
0.09735107421875	-0.05450439453125	5149.66855899834
0.101776123046875	-0.0534637451171875	5149.69068399828
0.106201171875	-0.05244140625	5149.71280899823
0.110626220703125	-0.051446533203125	5149.73493399817
0.11505126953125	-0.05045166015625	5149.75705899811
0.119476318359375	-0.049481201171875	5149.77918399806
0.1239013671875	-0.048516845703125	5149.801308998
0.128326416015625	-0.0475799560546875	5149.82343399795
0.13275146484375	-0.046649169921875	5149.84555899789
0.137176513671875	-0.045733642578125	5149.86768399783
0.1416015625	-0.0448455810546875	5149.88980899778
0.146026611328125	-0.04395751953125	5149.91193399772
0.15045166015625	-0.0430877685546875	5149.93405899767
0.154876708984375	-0.0422271728515625	5149.95618399761
0.1593017578125	-0.0413970947265625	5149.97830899755
0.163726806640625	-0.040557861328125	5150.0004339975
0.16815185546875	-0.039752197265625	5150.02255899744
0.172576904296875	-0.03892822265625	5150.04468399739
0.177001953125	-0.038140869140625	5150.06680899733
0.181427001953125	-0.0373443603515625	5150.08893399728
0.18585205078125	-0.036578369140625	5150.11105899722
0.190277099609375	-0.03580322265625	5150.13318399716
0.1947021484375	-0.0350555419921875	5150.15530899711
0.199127197265625	-0.034307861328125	5150.17743399705
0.20355224609375	-0.0335662841796875	5150.199558997
0.207977294921875	-0.0328369140625	5150.22168399694
0.21240234375	-0.03211669921875	5150.24380899688
0.216827392578125	-0.0314117431640625	5150.26593399683
0.22125244140625	-0.030706787109375	5150.28805899677
0.225677490234375	-0.0300201416015625	5150.31018399672
0.2301025390625	-0.0293243408203125	5150.33230899666
0.234527587890625	-0.028662109375	5150.3544339966
0.23895263671875	-0.0279876708984375	5150.37655899655
0.243377685546875	-0.0273345947265625	5150.39868399649
0.247802734375	-0.02667236328125	5150.42080899644
0.252227783203125	-0.0260345458984375	5150.44293399638
0.25665283203125	-0.025396728515625	5150.46505899633
0.261077880859375	-0.0247650146484375	5150.48718399627
0.2655029296875	-0.0241485595703125	5150.50930899621
0.269927978515625	-0.0235260009765625	5150.53143399616
0.27435302734375	-0.0229248046875	5150.5535589961
0.278778076171875	-0.022314453125	5150.57568399605
0.283203125	-0.021722412109375	5150.59780899599
0.287628173828125	-0.0211273193359375	5150.61993399593
0.29205322265625	-0.0205474853515625	5150.64205899588
0.296478271484375	-0.019970703125	5150.66418399582
0.3009033203125	-0.019403076171875	5150.68630899577
0.305328369140625	-0.01883544921875	5150.70843399571
0.30975341796875	-0.01827392578125	5150.73055899566
0.314178466796875	-0.0177154541015625	5150.7526839956
0.318603515625	-0.0171661376953125	5150.77480899554
0.323028564453125	-0.0166259765625	5150.79693399549
0.32745361328125	-0.0160919189453125	5150.81905899543
0.331878662109375	-0.0155609130859375	5150.84118399538
0.3363037109375	-0.015032958984375	5150.86330899532
0.340728759765625	-0.0145111083984375	5150.88543399526
0.34515380859375	-0.0139984130859375	5150.90755899521
0.349578857421875	-0.0134857177734375	5150.92968399515
0.35400390625	-0.0129852294921875	5150.9518089951
0.358428955078125	-0.012481689453125	5150.97393399504
0.36285400390625	-0.0119842529296875	5150.99605899499
0.367279052734375	-0.011492919921875	5151.01818399493
0.3717041015625	-0.0110076904296875	5151.04030899487
0.376129150390625	-0.0105255126953125	5151.06243399482
0.38055419921875	-0.0100494384765625	5151.08455899476
0.384979248046875	-0.009576416015625	5151.10668399471
0.389404296875	-0.0091094970703125	5151.12880899465
0.393829345703125	-0.008642578125	5151.15093399459
0.39825439453125	-0.0081817626953125	5151.17305899454
0.402679443359375	-0.0077301025390625	5151.19518399448
0.4071044921875	-0.0072784423828125	5151.21730899443
0.411529541015625	-0.006829833984375	5151.23943399437
0.41595458984375	-0.00638427734375	5151.26155899431
0.420379638671875	-0.00594482421875	5151.28368399426
0.4248046875	-0.0055084228515625	5151.3058089942
0.429229736328125	-0.005078125	5151.32793399415
0.43365478515625	-0.0046514892578125	5151.35005899409
0.438079833984375	-0.0042266845703125	5151.37218399404
0.4425048828125	-0.00380615234375	5151.39430899398
0.446929931640625	-0.0033892822265625	5151.41643399392
0.45135498046875	-0.002974853515625	5151.43855899387
0.455780029296875	-0.00257568359375	5151.46068399381
0.460205078125	-0.0021685791015625	5151.48280899376
0.464630126953125	-0.0017645263671875	5151.5049339937
0.46905517578125	-0.00136505126953125	5151.52705899364
0.473480224609375	-0.00096832275390625	5151.54918399359
0.4779052734375	-0.00057464599609375	5151.57130899353
0.482330322265625	-0.00018548583984375	5151.59343399348
0.48675537109375	0.000201446533203125	5151.61555899342
0.491180419921875	0.00058380126953125	5151.63768399337
0.49560546875	0.00096527099609375	5151.65980899331
0.500030517578125	0.0013427734375	5151.68193399325
0.50445556640625	0.00171844482421875	5151.7040589932
0.508880615234375	0.00209014892578125	5151.72618399314
0.5133056640625	0.00245849609375	5151.74830899309
0.517730712890625	0.00282257080078125	5151.77043399303
0.52215576171875	0.0031842041015625	5151.79255899297
0.526580810546875	0.00354278564453125	5151.81468399292
0.531005859375	0.00389984130859375	5151.83680899286
0.535430908203125	0.00425445556640625	5151.85893399281
0.53985595703125	0.00460357666015625	5151.88105899275
0.544281005859375	0.004952392578125	5151.90318399269
0.5487060546875	0.00529388427734375	5151.92530899264
0.553131103515625	0.00563690185546875	5151.94743399258
0.55755615234375	0.0059735107421875	5151.96955899253
0.561981201171875	0.00631072998046875	5151.99168399247
0.56640625	0.0066314697265625	5152.01380899242
0.570831298828125	0.006964111328125	5152.03593399236
0.57525634765625	0.0072906494140625	5152.0580589923
0.579681396484375	0.0076171875	5152.08018399225
0.5841064453125	0.0079376220703125	5152.10230899219
0.588531494140625	0.0082550048828125	5152.12443399214
0.59295654296875	0.0085723876953125	5152.14655899208
0.597381591796875	0.0088897705078125	5152.16868399202
0.601806640625	0.0092071533203125	5152.19080899197
0.606231689453125	0.0095184326171875	5152.21293399191
0.61065673828125	0.0098297119140625	5152.23505899186
0.615081787109375	0.010125732421875	5152.2571839918
0.6195068359375	0.0104217529296875	5152.27930899174
0.623931884765625	0.0107147216796875	5152.30143399169
0.62835693359375	0.0110137939453125	5152.32355899163
0.632781982421875	0.011309814453125	5152.34568399158
0.63720703125	0.011602783203125	5152.36780899152
0.641632080078125	0.0118988037109375	5152.38993399147
0.64605712890625	0.012188720703125	5152.41205899141
0.650482177734375	0.0124725341796875	5152.43418399135
0.6549072265625	0.012750244140625	5152.4563089913
0.659332275390625	0.013037109375	5152.47843399124
0.66375732421875	0.0133148193359375	5152.50055899119
0.668182373046875	0.013592529296875	5152.52268399113
0.672607421875	0.0138671875	5152.54480899108
0.677032470703125	0.0141387939453125	5152.56693399102
0.68145751953125	0.0144073486328125	5152.58905899096
0.685882568359375	0.014678955078125	5152.61118399091
0.6903076171875	0.01494140625	5152.63330899085
0.694732666015625	0.015203857421875	5152.6554339908
0.69915771484375	0.01546630859375	5152.67755899074
0.703582763671875	0.0157196044921875	5152.69968399068
0.7080078125	0.01597900390625	5152.72180899063
0.712432861328125	0.0162322998046875	5152.74393399057
0.71685791015625	0.016485595703125	5152.76605899052
0.721282958984375	0.0167327880859375	5152.78818399046
0.7257080078125	0.0169830322265625	5152.8103089904
0.730133056640625	0.01722412109375	5152.83243399035
0.73455810546875	0.0174713134765625	5152.85455899029
0.738983154296875	0.0177154541015625	5152.87668399024
0.743408203125	0.01796875	5152.89880899018
0.747833251953125	0.0182037353515625	5152.92093399013
0.75225830078125	0.0184326171875	5152.94305899007
0.756683349609375	0.018658447265625	5152.96518399001
0.7611083984375	0.018896484375	5152.98730898996
0.765533447265625	0.0191436767578125	5153.0094339899
0.76995849609375	0.0193878173828125	5153.03155898985
0.774383544921875	0.019622802734375	5153.05368398979
0.77880859375	0.0198455810546875	5153.07580898973
0.783233642578125	0.020074462890625	5153.09793398968
0.78765869140625	0.02030029296875	5153.12005898962
0.792083740234375	0.0205169677734375	5153.14218398957
0.7965087890625	0.0207366943359375	5153.16430898951
0.800933837890625	0.0209564208984375	5153.18643398945
0.80535888671875	0.0211700439453125	5153.2085589894
0.809783935546875	0.0213836669921875	5153.23068398934
0.814208984375	0.0216033935546875	5153.25280898929
0.818634033203125	0.0218109130859375	5153.27493398923
0.82305908203125	0.0220245361328125	5153.29705898918
0.827484130859375	0.0222320556640625	5153.31918398912
0.8319091796875	0.022442626953125	5153.34130898906
0.836334228515625	0.02264404296875	5153.36343398901
0.84075927734375	0.0228515625	5153.38555898895
0.845184326171875	0.0230499267578125	5153.4076839889
0.849609375	0.0232513427734375	5153.42980898884
0.854034423828125	0.0234527587890625	5153.45193398878
0.85845947265625	0.023651123046875	5153.47405898873
0.862884521484375	0.0238494873046875	5153.49618398867
0.8673095703125	0.024041748046875	5153.51830898862
0.871734619140625	0.024237060546875	5153.54043398856
0.87615966796875	0.0244293212890625	5153.56255898851
0.880584716796875	0.0246185302734375	5153.58468398845
0.885009765625	0.024810791015625	5153.60680898839
0.889434814453125	0.025	5153.62893398834
0.89385986328125	0.0251861572265625	5153.65105898828
0.898284912109375	0.025372314453125	5153.67318398823
0.9027099609375	0.025555419921875	5153.69530898817
0.907135009765625	0.0257415771484375	5153.71743398811
0.91156005859375	0.0259246826171875	5153.73955898806
0.915985107421875	0.0261016845703125	5153.761683988
0.92041015625	0.0262847900390625	5153.78380898795
0.924835205078125	0.026458740234375	5153.80593398789
0.92926025390625	0.0266357421875	5153.82805898783
0.933685302734375	0.0268096923828125	5153.85018398778
0.9381103515625	0.02698974609375	5153.87230898772
0.942535400390625	0.02716064453125	5153.89443398767
0.94696044921875	0.0273345947265625	5153.91655898761
0.951385498046875	0.0275054931640625	5153.93868398756
0.955810546875	0.0276763916015625	5153.9608089875
0.960235595703125	0.027850341796875	5153.98293398744
0.96466064453125	0.0280181884765625	5154.00505898739
0.969085693359375	0.02818603515625	5154.02718398733
0.9735107421875	0.028350830078125	5154.04930898728
0.977935791015625	0.0285186767578125	5154.07143398722
0.98236083984375	0.0286834716796875	5154.09355898716
0.986785888671875	0.02884521484375	5154.11568398711
0.9912109375	0.02900390625	5154.13780898705
0.995635986328125	0.0291717529296875	5154.159933987
1.00006103515625	0.0293304443359375	5154.18205898694
0.995635986328125	0.0285888671875	5154.20418398689
0.9912109375	0.02786865234375	5154.22630898683
0.986785888671875	0.02716064453125	5154.24843398677
0.98236083984375	0.0264739990234375	5154.27055898672
0.977935791015625	0.0257965087890625	5154.29268398666
0.9735107421875	0.02513427734375	5154.31480898661
0.969085693359375	0.0244781494140625	5154.33693398655
0.96466064453125	0.023834228515625	5154.35905898649
0.960235595703125	0.0231964111328125	5154.38118398644
0.955810546875	0.0225738525390625	5154.40330898638
0.951385498046875	0.021954345703125	5154.42543398633
0.94696044921875	0.0213470458984375	5154.44755898627
0.942535400390625	0.020745849609375	5154.46968398622
0.9381103515625	0.02015380859375	5154.49180898616
0.933685302734375	0.0195648193359375	5154.5139339861
0.92926025390625	0.0189849853515625	5154.53605898605
0.924835205078125	0.018414306640625	5154.55818398599
0.92041015625	0.0178497314453125	5154.58030898594
0.915985107421875	0.017291259765625	5154.60243398588
0.91156005859375	0.016741943359375	5154.62455898582
0.907135009765625	0.01619873046875	5154.64668398577
0.9027099609375	0.0156585693359375	5154.66880898571
0.898284912109375	0.01512451171875	5154.69093398566
0.89385986328125	0.014599609375	5154.7130589856
0.889434814453125	0.01407470703125	5154.73518398554
0.885009765625	0.0135650634765625	5154.75730898549
0.880584716796875	0.013055419921875	5154.77943398543
0.87615966796875	0.012548828125	5154.80155898538
0.871734619140625	0.012054443359375	5154.82368398532
0.8673095703125	0.01156005859375	5154.84580898527
0.862884521484375	0.0110687255859375	5154.86793398521
0.85845947265625	0.010589599609375	5154.89005898515
0.854034423828125	0.0101104736328125	5154.9121839851
0.849609375	0.0096343994140625	5154.93430898504
0.845184326171875	0.00916748046875	5154.95643398499
0.84075927734375	0.0087066650390625	5154.97855898493
0.836334228515625	0.008245849609375	5155.00068398487
0.8319091796875	0.007794189453125	5155.02280898482
0.827484130859375	0.0073394775390625	5155.04493398476
0.82305908203125	0.0068939208984375	5155.06705898471
0.818634033203125	0.006451416015625	5155.08918398465
0.814208984375	0.0060150146484375	5155.11130898459
0.809783935546875	0.0055816650390625	5155.13343398454
0.80535888671875	0.0051513671875	5155.15555898448
0.800933837890625	0.0047271728515625	5155.17768398443
0.7965087890625	0.00430511474609375	5155.19980898437
0.792083740234375	0.00388885498046875	5155.22193398432
0.78765869140625	0.00347625732421875	5155.24405898426
0.783233642578125	0.0030670166015625	5155.2661839842
0.77880859375	0.00266448974609375	5155.28830898415
0.774383544921875	0.00226226806640625	5155.31043398409
0.76995849609375	0.0018634033203125	5155.33255898404
0.765533447265625	0.001468505859375	5155.35468398398
0.7611083984375	0.00107696533203125	5155.37680898393
0.756683349609375	0.000689697265625	5155.39893398387
0.75225830078125	0.000303680419921875	5155.42105898381
0.747833251953125	-7.666015625E-05	5155.44318398376
0.743408203125	-0.000455078125	5155.4653089837
0.738983154296875	-0.00082611083984375	5155.48743398365
0.73455810546875	-0.00119842529296875	5155.50955898359
0.730133056640625	-0.00156463623046875	5155.53168398353
0.7257080078125	-0.0019305419921875	5155.55380898348
0.721282958984375	-0.0022918701171875	5155.57593398342
0.71685791015625	-0.0026495361328125	5155.59805898337
0.712432861328125	-0.00300537109375	5155.62018398331
0.7080078125	-0.00335662841796875	5155.64230898325
0.703582763671875	-0.00370758056640625	5155.6644339832
0.69915771484375	-0.0040509033203125	5155.68655898314
0.694732666015625	-0.004395751953125	5155.70868398309
0.6903076171875	-0.00473419189453125	5155.73080898303
0.685882568359375	-0.00507354736328125	5155.75293398298
0.68145751953125	-0.0054058837890625	5155.77505898292
0.677032470703125	-0.00574005126953125	5155.79718398286
0.672607421875	-0.00606658935546875	5155.81930898281
0.668182373046875	-0.0063690185546875	5155.84143398275
0.66375732421875	-0.0066925048828125	5155.8635589827
0.659332275390625	-0.007012939453125	5155.88568398264
0.6549072265625	-0.007330322265625	5155.90780898258
0.650482177734375	-0.0076446533203125	5155.92993398253
0.64605712890625	-0.0079559326171875	5155.95205898247
0.641632080078125	-0.00826416015625	5155.97418398242
0.63720703125	-0.0085723876953125	5155.99630898236
0.632781982421875	-0.00887451171875	5156.0184339823
0.62835693359375	-0.0091766357421875	5156.04055898225
0.623931884765625	-0.0094757080078125	5156.06268398219
0.6195068359375	-0.00977783203125	5156.08480898214
0.615081787109375	-0.0100677490234375	5156.10693398208
0.61065673828125	-0.0103607177734375	5156.12905898203
0.606231689453125	-0.010650634765625	5156.15118398197
0.601806640625	-0.0109344482421875	5156.17330898191
0.597381591796875	-0.0112213134765625	5156.19543398186
0.59295654296875	-0.0115020751953125	5156.2175589818
0.588531494140625	-0.0117828369140625	5156.23968398175
0.5841064453125	-0.0120574951171875	5156.26180898169
0.579681396484375	-0.0123382568359375	5156.28393398163
0.57525634765625	-0.0126068115234375	5156.30605898158
0.570831298828125	-0.0128814697265625	5156.32818398152
0.56640625	-0.0131500244140625	5156.35030898147
0.561981201171875	-0.013421630859375	5156.37243398141
0.55755615234375	-0.013690185546875	5156.39455898136
0.553131103515625	-0.0139556884765625	5156.4166839813
0.5487060546875	-0.0142120361328125	5156.43880898124
0.544281005859375	-0.014471435546875	5156.46093398119
0.53985595703125	-0.01473388671875	5156.48305898113
0.535430908203125	-0.0149871826171875	5156.50518398108
0.531005859375	-0.015240478515625	5156.52730898102
0.526580810546875	-0.0154876708984375	5156.54943398096
0.52215576171875	-0.01573486328125	5156.57155898091
0.517730712890625	-0.015972900390625	5156.59368398085
0.5133056640625	-0.016229248046875	5156.6158089808
0.508880615234375	-0.0164825439453125	5156.63793398074
0.50445556640625	-0.0167266845703125	5156.66005898068
0.500030517578125	-0.0169708251953125	5156.68218398063
0.49560546875	-0.017205810546875	5156.70430898057
0.491180419921875	-0.0174468994140625	5156.72643398052
0.48675537109375	-0.0176788330078125	5156.74855898046
0.482330322265625	-0.0179168701171875	5156.77068398041
0.4779052734375	-0.018145751953125	5156.79280898035
0.473480224609375	-0.0183868408203125	5156.81493398029
0.46905517578125	-0.0186187744140625	5156.83705898024
0.464630126953125	-0.01884765625	5156.85918398018
0.460205078125	-0.0190765380859375	5156.88130898013
0.455780029296875	-0.01929931640625	5156.90343398007
0.45135498046875	-0.0195281982421875	5156.92555898001
0.446929931640625	-0.019757080078125	5156.94768397996
0.4425048828125	-0.019989013671875	5156.9698089799
0.438079833984375	-0.0202117919921875	5156.99193397985
0.43365478515625	-0.0204345703125	5157.01405897979
0.429229736328125	-0.020648193359375	5157.03618397974
0.4248046875	-0.0208648681640625	5157.05830897968
0.420379638671875	-0.02108154296875	5157.08043397962
0.41595458984375	-0.0212921142578125	5157.10255897957
0.411529541015625	-0.0214996337890625	5157.12468397951
0.4071044921875	-0.021710205078125	5157.14680897946
0.402679443359375	-0.021917724609375	5157.1689339794
0.39825439453125	-0.022125244140625	5157.19105897934
0.393829345703125	-0.02232666015625	5157.21318397929
0.389404296875	-0.0225311279296875	5157.23530897923
0.384979248046875	-0.0227325439453125	5157.25743397918
0.38055419921875	-0.02293701171875	5157.27955897912
0.376129150390625	-0.023138427734375	5157.30168397907
0.3717041015625	-0.023333740234375	5157.32380897901
0.367279052734375	-0.0235321044921875	5157.34593397895
0.36285400390625	-0.0237213134765625	5157.3680589789
0.358428955078125	-0.023919677734375	5157.39018397884
0.35400390625	-0.0241119384765625	5157.41230897879
0.349578857421875	-0.02430419921875	5157.43443397873
0.34515380859375	-0.0244964599609375	5157.45655897867
0.340728759765625	-0.0246917724609375	5157.47868397862
0.3363037109375	-0.0248809814453125	5157.50080897856
0.331878662109375	-0.025067138671875	5157.52293397851
0.32745361328125	-0.0252532958984375	5157.54505897845
0.323028564453125	-0.0254425048828125	5157.56718397839
0.318603515625	-0.0256317138671875	5157.58930897834
0.314178466796875	-0.0258148193359375	5157.61143397828
0.30975341796875	-0.0260009765625	5157.63355897823
0.305328369140625	-0.026177978515625	5157.65568397817
0.3009033203125	-0.0263671875	5157.67780897812
0.296478271484375	-0.0265472412109375	5157.69993397806
0.29205322265625	-0.0267242431640625	5157.722058978
0.287628173828125	-0.026904296875	5157.74418397795
0.283203125	-0.027081298828125	5157.76630897789
0.278778076171875	-0.02725830078125	5157.78843397784
0.27435302734375	-0.0274322509765625	5157.81055897778
0.269927978515625	-0.0276123046875	5157.83268397772
0.2655029296875	-0.0277862548828125	5157.85480897767
0.261077880859375	-0.0279632568359375	5157.87693397761
0.25665283203125	-0.028131103515625	5157.89905897756
0.252227783203125	-0.0283050537109375	5157.9211839775
0.247802734375	-0.0284759521484375	5157.94330897744
0.243377685546875	-0.0286468505859375	5157.96543397739
0.23895263671875	-0.028814697265625	5157.98755897733
0.234527587890625	-0.028985595703125	5158.00968397728
0.2301025390625	-0.029150390625	5158.03180897722
0.225677490234375	-0.0293212890625	5158.05393397717
0.22125244140625	-0.029486083984375	5158.07605897711
0.216827392578125	-0.02965087890625	5158.09818397705
0.21240234375	-0.029815673828125	5158.120308977
0.207977294921875	-0.0299774169921875	5158.14243397694
0.20355224609375	-0.030145263671875	5158.16455897689
0.199127197265625	-0.030303955078125	5158.18668397683
0.1947021484375	-0.0304656982421875	5158.20880897677
0.190277099609375	-0.030621337890625	5158.23093397672
0.18585205078125	-0.0307891845703125	5158.25305897666
0.181427001953125	-0.0309478759765625	5158.27518397661
0.177001953125	-0.0311004638671875	5158.29730897655
0.172576904296875	-0.03126220703125	5158.3194339765
0.16815185546875	-0.031414794921875	5158.34155897644
0.163726806640625	-0.0315765380859375	5158.36368397638
0.1593017578125	-0.031732177734375	5158.38580897633
0.154876708984375	-0.031890869140625	5158.40793397627
0.15045166015625	-0.03204345703125	5158.43005897622
0.146026611328125	-0.0321990966796875	5158.45218397616
0.1416015625	-0.0323516845703125	5158.4743089761
0.137176513671875	-0.0325103759765625	5158.49643397605
0.13275146484375	-0.032659912109375	5158.51855897599
0.128326416015625	-0.0328033447265625	5158.54068397594
0.1239013671875	-0.0329559326171875	5158.56280897588
0.119476318359375	-0.03310546875	5158.58493397583
0.11505126953125	-0.033251953125	5158.60705897577
0.110626220703125	-0.0333984375	5158.62918397571
0.106201171875	-0.033551025390625	5158.65130897566
0.101776123046875	-0.0337005615234375	5158.6734339756
0.09735107421875	-0.03385009765625	5158.69555897555
0.092926025390625	-0.0339935302734375	5158.71768397549
0.0885009765625	-0.0341400146484375	5158.73980897543
0.084075927734375	-0.034283447265625	5158.76193397538
0.07965087890625	-0.0344268798828125	5158.78405897532
0.075225830078125	-0.0345703125	5158.80618397527
0.07080078125	-0.034716796875	5158.82830897521
0.066375732421875	-0.0348602294921875	5158.85043397515
0.06195068359375	-0.03499755859375	5158.8725589751
0.057525634765625	-0.0351409912109375	5158.89468397504
0.0531005859375	-0.0352783203125	5158.91680897499
0.048675537109375	-0.035418701171875	5158.93893397493
0.04425048828125	-0.0355560302734375	5158.96105897488
0.039825439453125	-0.035699462890625	5158.98318397482
0.035400390625	-0.035833740234375	5159.00530897476
0.030975341796875	-0.0359710693359375	5159.02743397471
0.02655029296875	-0.0361053466796875	5159.04955897465
0.022125244140625	-0.036248779296875	5159.0716839746
0.0177001953125	-0.036376953125	5159.09380897454
0.013275146484375	-0.036517333984375	5159.11593397448
0.00885009765625	-0.0366546630859375	5159.13805897443
0.004425048828125	-0.036785888671875	5159.16018397437
0	-0.03692626953125	5159.18230897432
0.004425048828125	-0.036138916015625	5159.20443397426
0.00885009765625	-0.035382080078125	5159.22655897421
0.013275146484375	-0.0346343994140625	5159.24868397415
0.0177001953125	-0.0339019775390625	5159.27080897409
0.022125244140625	-0.033184814453125	5159.29293397404
0.02655029296875	-0.0324798583984375	5159.31505897398
0.030975341796875	-0.0317901611328125	5159.33718397393
0.035400390625	-0.0311004638671875	5159.35930897387
0.039825439453125	-0.030426025390625	5159.38143397381
0.04425048828125	-0.029754638671875	5159.40355897376
0.048675537109375	-0.0291015625	5159.4256839737
0.0531005859375	-0.0284515380859375	5159.44780897365
0.057525634765625	-0.027813720703125	5159.46993397359
0.06195068359375	-0.027178955078125	5159.49205897353
0.066375732421875	-0.0265533447265625	5159.51418397348
0.07080078125	-0.0259368896484375	5159.53630897342
0.075225830078125	-0.0253173828125	5159.55843397337
0.07965087890625	-0.024713134765625	5159.58055897331
0.084075927734375	-0.0241119384765625	5159.60268397326
0.0885009765625	-0.0235198974609375	5159.6248089732
0.092926025390625	-0.0229339599609375	5159.64693397314
0.09735107421875	-0.0223541259765625	5159.66905897309
0.101776123046875	-0.0217803955078125	5159.69118397303
0.106201171875	-0.021209716796875	5159.71330897298
0.110626220703125	-0.0206451416015625	5159.73543397292
0.11505126953125	-0.0200897216796875	5159.75755897286
0.119476318359375	-0.01954345703125	5159.77968397281
0.1239013671875	-0.0189971923828125	5159.80180897275
0.128326416015625	-0.0184539794921875	5159.8239339727
0.13275146484375	-0.017919921875	5159.84605897264
0.137176513671875	-0.0173919677734375	5159.86818397259
0.1416015625	-0.0168670654296875	5159.89030897253
0.146026611328125	-0.01634521484375	5159.91243397247
0.15045166015625	-0.0158294677734375	5159.93455897242
0.154876708984375	-0.0153228759765625	5159.95668397236
0.1593017578125	-0.0148193359375	5159.97880897231
0.163726806640625	-0.0143157958984375	5160.00093397225
0.16815185546875	-0.0138214111328125	5160.02305897219
0.172576904296875	-0.0133331298828125	5160.04518397214
0.177001953125	-0.012841796875	5160.06730897208
0.181427001953125	-0.0123626708984375	5160.08943397203
0.18585205078125	-0.0118804931640625	5160.11155897197
0.190277099609375	-0.011407470703125	5160.13368397192
0.1947021484375	-0.0109375	5160.15580897186
0.199127197265625	-0.0104736328125	5160.1779339718
0.20355224609375	-0.0100128173828125	5160.20005897175
0.207977294921875	-0.0095550537109375	5160.22218397169
0.21240234375	-0.0091033935546875	5160.24430897164
0.216827392578125	-0.008648681640625	5160.26643397158
0.22125244140625	-0.0082061767578125	5160.28855897152
0.225677490234375	-0.0077667236328125	5160.31068397147
0.2301025390625	-0.0073272705078125	5160.33280897141
0.234527587890625	-0.0068939208984375	5160.35493397136
0.23895263671875	-0.006463623046875	5160.3770589713
0.243377685546875	-0.006036376953125	5160.39918397124
0.247802734375	-0.0056121826171875	5160.42130897119
0.252227783203125	-0.0051910400390625	5160.44343397113
0.25665283203125	-0.00477752685546875	5160.46555897108
0.261077880859375	-0.0043646240234375	5160.48768397102
0.2655029296875	-0.0039556884765625	5160.50980897097
0.269927978515625	-0.003548583984375	5160.53193397091
0.27435302734375	-0.0031475830078125	5160.55405897085
0.278778076171875	-0.0027569580078125	5160.5761839708
0.283203125	-0.00236175537109375	5160.59830897074
0.287628173828125	-0.001966552734375	5160.62043397069
0.29205322265625	-0.0015765380859375	5160.64255897063
0.296478271484375	-0.00118865966796875	5160.66468397057
0.3009033203125	-0.000804443359375	5160.68680897052
0.305328369140625	-0.00042279052734375	5160.70893397046
0.30975341796875	-4.3975830078125E-05	5160.73105897041
0.314178466796875	0.0003338623046875	5160.75318397035
0.318603515625	0.00070648193359375	5160.77530897029
0.323028564453125	0.00107513427734375	5160.79743397024
0.32745361328125	0.0014422607421875	5160.81955897018
0.331878662109375	0.001806640625	5160.84168397013
0.3363037109375	0.0021697998046875	5160.86380897007
0.340728759765625	0.00252777099609375	5160.88593397002
0.34515380859375	0.00288421630859375	5160.90805896996
0.349578857421875	0.00323577880859375	5160.9301839699
0.35400390625	0.00358306884765625	5160.95230896985
0.358428955078125	0.0039300537109375	5160.97443396979
0.36285400390625	0.004276123046875	5160.99655896974
0.367279052734375	0.00461944580078125	5161.01868396968
0.3717041015625	0.00495758056640625	5161.04080896962
0.376129150390625	0.0052960205078125	5161.06293396957
0.38055419921875	0.00562835693359375	5161.08505896951
0.384979248046875	0.00596160888671875	5161.10718396946
0.389404296875	0.00628875732421875	5161.1293089694
0.393829345703125	0.00660400390625	5161.15143396934
0.39825439453125	0.006927490234375	5161.17355896929
0.402679443359375	0.0072479248046875	5161.19568396923
0.4071044921875	0.0075653076171875	5161.21780896918
0.411529541015625	0.007879638671875	5161.23993396912
0.41595458984375	0.0081939697265625	5161.26205896907
0.420379638671875	0.0085052490234375	5161.28418396901
0.4248046875	0.0088134765625	5161.30630896895
0.429229736328125	0.0091217041015625	5161.3284339689
0.43365478515625	0.009423828125	5161.35055896884
0.438079833984375	0.009722900390625	5161.37268396879
0.4425048828125	0.0100311279296875	5161.39480896873
0.446929931640625	0.0103240966796875	5161.41693396868
0.45135498046875	0.010626220703125	5161.43905896862
0.455780029296875	0.0109161376953125	5161.46118396856
0.460205078125	0.0112091064453125	5161.48330896851
0.464630126953125	0.0114959716796875	5161.50543396845
0.46905517578125	0.0117828369140625	5161.5275589684
0.473480224609375	0.012066650390625	5161.54968396834
0.4779052734375	0.0123504638671875	5161.57180896828
0.482330322265625	0.012628173828125	5161.59393396823
0.48675537109375	0.0129058837890625	5161.61605896817
0.491180419921875	0.01318359375	5161.63818396812
0.49560546875	0.0134552001953125	5161.66030896806
0.500030517578125	0.0137298583984375	5161.682433968
0.50445556640625	0.0139984130859375	5161.70455896795
0.508880615234375	0.014263916015625	5161.72668396789
0.5133056640625	0.0145294189453125	5161.74880896784
0.517730712890625	0.014794921875	5161.77093396778
0.52215576171875	0.015057373046875	5161.79305896773
0.526580810546875	0.0153167724609375	5161.81518396767
0.531005859375	0.0155731201171875	5161.83730896761
0.535430908203125	0.0158294677734375	5161.85943396756
0.53985595703125	0.0160858154296875	5161.8815589675
0.544281005859375	0.0163360595703125	5161.90368396745
0.5487060546875	0.01658935546875	5161.92580896739
0.553131103515625	0.01683349609375	5161.94793396733
0.55755615234375	0.017083740234375	5161.97005896728
0.561981201171875	0.0173248291015625	5161.99218396722
0.56640625	0.0175689697265625	5162.01430896717
0.570831298828125	0.01781005859375	5162.03643396711
0.57525634765625	0.0180572509765625	5162.05855896706
0.579681396484375	0.0183013916015625	5162.080683967
0.5841064453125	0.01854248046875	5162.10280896694
0.588531494140625	0.0187774658203125	5162.12493396689
0.59295654296875	0.019012451171875	5162.14705896683
0.597381591796875	0.019244384765625	5162.16918396678
0.601806640625	0.0194732666015625	5162.19130896672
0.606231689453125	0.0197052001953125	5162.21343396666
0.61065673828125	0.019927978515625	5162.23555896661
0.615081787109375	0.0201568603515625	5162.25768396655
0.6195068359375	0.02037353515625	5162.2798089665
0.623931884765625	0.0205963134765625	5162.30193396644
0.62835693359375	0.0208221435546875	5162.32405896638
0.632781982421875	0.0210357666015625	5162.34618396633
0.63720703125	0.0212493896484375	5162.36830896627
0.641632080078125	0.021478271484375	5162.39043396622
0.64605712890625	0.0217041015625	5162.41255896616
0.650482177734375	0.0219146728515625	5162.43468396611
0.6549072265625	0.022119140625	5162.45680896605
0.659332275390625	0.0223236083984375	5162.47893396599
0.66375732421875	0.0225433349609375	5162.50105896594
0.668182373046875	0.022760009765625	5162.52318396588
0.672607421875	0.022979736328125	5162.54530896583
0.677032470703125	0.023187255859375	5162.56743396577
0.68145751953125	0.0233917236328125	5162.58955896571
0.685882568359375	0.0235931396484375	5162.61168396566
0.6903076171875	0.02379150390625	5162.6338089656
0.694732666015625	0.0239898681640625	5162.65593396555
0.69915771484375	0.0241851806640625	5162.67805896549
0.703582763671875	0.0243804931640625	5162.70018396543
0.7080078125	0.02457275390625	5162.72230896538
0.712432861328125	0.024774169921875	5162.74443396532
0.71685791015625	0.02496337890625	5162.76655896527
0.721282958984375	0.0251556396484375	5162.78868396521
0.7257080078125	0.0253387451171875	5162.81080896516
0.730133056640625	0.0255340576171875	5162.8329339651
0.73455810546875	0.025714111328125	5162.85505896504
0.738983154296875	0.0259033203125	5162.87718396499
0.743408203125	0.02608642578125	5162.89930896493
0.747833251953125	0.0262664794921875	5162.92143396488
0.75225830078125	0.026446533203125	5162.94355896482
0.756683349609375	0.02662353515625	5162.96568396477
0.7611083984375	0.0268035888671875	5162.98780896471
0.765533447265625	0.0269775390625	5163.00993396465
0.76995849609375	0.0271575927734375	5163.0320589646
0.774383544921875	0.02733154296875	5163.05418396454
0.77880859375	0.027508544921875	5163.07630896449
0.783233642578125	0.0276702880859375	5163.09843396443
0.78765869140625	0.0278472900390625	5163.12055896437
0.792083740234375	0.0280120849609375	5163.14268396432
0.7965087890625	0.028179931640625	5163.16480896426
0.800933837890625	0.0283447265625	5163.18693396421
0.80535888671875	0.028509521484375	5163.20905896415
0.809783935546875	0.0286773681640625	5163.23118396409
0.814208984375	0.028839111328125	5163.25330896404
0.818634033203125	0.02900390625	5163.27543396398
0.82305908203125	0.02916259765625	5163.29755896393
0.827484130859375	0.0293243408203125	5163.31968396387
0.8319091796875	0.02947998046875	5163.34180896382
0.836334228515625	0.029638671875	5163.36393396376
0.84075927734375	0.02978515625	5163.3860589637
0.845184326171875	0.0299468994140625	5163.40818396365
0.849609375	0.0300994873046875	5163.43030896359
0.854034423828125	0.0302520751953125	5163.45243396354
0.85845947265625	0.0304046630859375	5163.47455896348
0.862884521484375	0.03055419921875	5163.49668396342
0.8673095703125	0.030706787109375	5163.51880896337
0.871734619140625	0.0308502197265625	5163.54093396331
0.87615966796875	0.0310028076171875	5163.56305896326
0.880584716796875	0.031146240234375	5163.5851839632
0.885009765625	0.0312896728515625	5163.60730896314
0.889434814453125	0.0314239501953125	5163.62943396309
0.89385986328125	0.031573486328125	5163.65155896303
0.898284912109375	0.0317138671875	5163.67368396298
0.9027099609375	0.0318603515625	5163.69580896292
0.907135009765625	0.0319976806640625	5163.71793396287
0.91156005859375	0.0321380615234375	5163.74005896281
0.915985107421875	0.032275390625	5163.76218396275
0.92041015625	0.03240966796875	5163.7843089627
0.924835205078125	0.032550048828125	5163.80643396264
0.92926025390625	0.032684326171875	5163.82855896259
0.933685302734375	0.0328216552734375	5163.85068396253
0.9381103515625	0.0329498291015625	5163.87280896247
0.942535400390625	0.033087158203125	5163.89493396242
0.94696044921875	0.03321533203125	5163.91705896236
0.951385498046875	0.033349609375	5163.93918396231
0.955810546875	0.033477783203125	5163.96130896225
0.960235595703125	0.03360595703125	5163.98343396219
0.96466064453125	0.03372802734375	5164.00555896214
0.969085693359375	0.033856201171875	5164.02768396208
0.9735107421875	0.0339874267578125	5164.04980896203
0.977935791015625	0.0341064453125	5164.07193396197
0.98236083984375	0.0342315673828125	5164.09405896192
0.986785888671875	0.034356689453125	5164.11618396186
0.9912109375	0.03448486328125	5164.1383089618
0.995635986328125	0.0346038818359375	5164.16043396175
1.00006103515625	0.034735107421875	5164.18255896169
0.995635986328125	0.033935546875	5164.20468396164
0.9912109375	0.0331756591796875	5164.22680896158
0.986785888671875	0.032421875	5164.24893396152
0.98236083984375	0.0316925048828125	5164.27105896147
0.977935791015625	0.0309722900390625	5164.29318396141
0.9735107421875	0.0302581787109375	5164.31530896136
0.969085693359375	0.0295684814453125	5164.3374339613
0.96466064453125	0.0288787841796875	5164.35955896125
0.960235595703125	0.0282012939453125	5164.38168396119
0.955810546875	0.027532958984375	5164.40380896113
0.951385498046875	0.0268798828125	5164.42593396108
0.94696044921875	0.0262298583984375	5164.44805896102
0.942535400390625	0.025592041015625	5164.47018396097
0.9381103515625	0.024957275390625	5164.49230896091
0.933685302734375	0.02432861328125	5164.51443396085
0.92926025390625	0.0237091064453125	5164.5365589608
0.924835205078125	0.023101806640625	5164.55868396074
0.92041015625	0.02249755859375	5164.58080896069
0.915985107421875	0.0219024658203125	5164.60293396063
0.91156005859375	0.0213165283203125	5164.62505896058
0.907135009765625	0.020733642578125	5164.64718396052
0.9027099609375	0.0201629638671875	5164.66930896046
0.898284912109375	0.0195892333984375	5164.69143396041
0.89385986328125	0.0190277099609375	5164.71355896035
0.889434814453125	0.0184722900390625	5164.7356839603
0.885009765625	0.0179229736328125	5164.75780896024
0.880584716796875	0.017376708984375	5164.77993396018
0.87615966796875	0.0168426513671875	5164.80205896013
0.871734619140625	0.01630859375	5164.82418396007
0.8673095703125	0.0157806396484375	5164.84630896002
0.862884521484375	0.0152618408203125	5164.86843395996
0.85845947265625	0.01474609375	5164.89055895991
0.854034423828125	0.0142333984375	5164.91268395985
0.849609375	0.0137298583984375	5164.93480895979
0.845184326171875	0.0132293701171875	5164.95693395974
0.84075927734375	0.01273193359375	5164.97905895968
0.836334228515625	0.01224365234375	5165.00118395963
0.8319091796875	0.0117584228515625	5165.02330895957
0.827484130859375	0.011279296875	5165.04543395951
0.82305908203125	0.01080322265625	5165.06755895946
0.818634033203125	0.010333251953125	5165.0896839594
0.814208984375	0.00986328125	5165.11180895935
0.809783935546875	0.0094024658203125	5165.13393395929
0.80535888671875	0.0089447021484375	5165.15605895923
0.800933837890625	0.0084930419921875	5165.17818395918
0.7965087890625	0.0080413818359375	5165.20030895912
0.792083740234375	0.007598876953125	5165.22243395907
0.78765869140625	0.007159423828125	5165.24455895901
0.783233642578125	0.0067230224609375	5165.26668395896
0.77880859375	0.0062896728515625	5165.2888089589
0.774383544921875	0.005859375	5165.31093395884
0.76995849609375	0.005438232421875	5165.33305895879
0.765533447265625	0.0050140380859375	5165.35518395873
0.7611083984375	0.00459869384765625	5165.37730895868
0.756683349609375	0.00418548583984375	5165.39943395862
0.75225830078125	0.0037762451171875	5165.42155895856
0.747833251953125	0.00337127685546875	5165.44368395851
0.743408203125	0.0029693603515625	5165.46580895845
0.738983154296875	0.00257476806640625	5165.4879339584
0.73455810546875	0.00217926025390625	5165.51005895834
0.730133056640625	0.00178619384765625	5165.53218395828
0.7257080078125	0.0013983154296875	5165.55430895823
0.721282958984375	0.0010125732421875	5165.57643395817
0.71685791015625	0.000631103515625	5165.59855895812
0.712432861328125	0.00025311279296875	5165.62068395806
0.7080078125	-0.00012261962890625	5165.64280895801
0.703582763671875	-0.00049346923828125	5165.66493395795
0.69915771484375	-0.00086212158203125	5165.68705895789
0.694732666015625	-0.001226806640625	5165.70918395784
0.6903076171875	-0.00159027099609375	5165.73130895778
0.685882568359375	-0.00194854736328125	5165.75343395773
0.68145751953125	-0.0023065185546875	5165.77555895767
0.677032470703125	-0.00265869140625	5165.79768395761
0.672607421875	-0.00300933837890625	5165.81980895756
0.668182373046875	-0.00335723876953125	5165.8419339575
0.66375732421875	-0.00370147705078125	5165.86405895745
0.659332275390625	-0.0040435791015625	5165.88618395739
0.6549072265625	-0.00438262939453125	5165.90830895734
0.650482177734375	-0.00471923828125	5165.93043395728
0.64605712890625	-0.00505126953125	5165.95255895722
0.641632080078125	-0.00538330078125	5165.97468395717
0.63720703125	-0.005709228515625	5165.99680895711
0.632781982421875	-0.0060357666015625	5166.01893395706
0.62835693359375	-0.0063323974609375	5166.041058957
0.623931884765625	-0.006658935546875	5166.06318395694
0.6195068359375	-0.006976318359375	5166.08530895689
0.615081787109375	-0.0072906494140625	5166.10743395683
0.61065673828125	-0.0076019287109375	5166.12955895678
0.606231689453125	-0.0079071044921875	5166.15168395672
0.601806640625	-0.00821533203125	5166.17380895667
0.597381591796875	-0.0085174560546875	5166.19593395661
0.59295654296875	-0.0088226318359375	5166.21805895655
0.588531494140625	-0.0091217041015625	5166.2401839565
0.5841064453125	-0.0094146728515625	5166.26230895644
0.579681396484375	-0.0097076416015625	5166.28443395639
0.57525634765625	-0.0100006103515625	5166.30655895633
0.570831298828125	-0.0102935791015625	5166.32868395627
0.56640625	-0.0105804443359375	5166.35080895622
0.561981201171875	-0.0108673095703125	5166.37293395616
0.55755615234375	-0.01114501953125	5166.39505895611
0.553131103515625	-0.01142578125	5166.41718395605
0.5487060546875	-0.0117034912109375	5166.43930895599
0.544281005859375	-0.011981201171875	5166.46143395594
0.53985595703125	-0.012255859375	5166.48355895588
0.535430908203125	-0.0125274658203125	5166.50568395583
0.531005859375	-0.012799072265625	5166.52780895577
0.526580810546875	-0.013067626953125	5166.54993395572
0.52215576171875	-0.0133331298828125	5166.57205895566
0.517730712890625	-0.0136016845703125	5166.5941839556
0.5133056640625	-0.0138641357421875	5166.61630895555
0.508880615234375	-0.014117431640625	5166.63843395549
0.50445556640625	-0.0143798828125	5166.66055895544
0.500030517578125	-0.0146392822265625	5166.68268395538
0.49560546875	-0.0148956298828125	5166.70480895532
0.491180419921875	-0.0151519775390625	5166.72693395527
0.48675537109375	-0.0154022216796875	5166.74905895521
0.482330322265625	-0.0156402587890625	5166.77118395516
0.4779052734375	-0.0158966064453125	5166.7933089551
0.473480224609375	-0.0161468505859375	5166.81543395504
0.46905517578125	-0.0163970947265625	5166.83755895499
0.464630126953125	-0.0166473388671875	5166.85968395493
0.460205078125	-0.0168914794921875	5166.88180895488
0.455780029296875	-0.01712646484375	5166.90393395482
0.45135498046875	-0.0173614501953125	5166.92605895477
0.446929931640625	-0.0176025390625	5166.94818395471
0.4425048828125	-0.017840576171875	5166.97030895465
0.438079833984375	-0.01807861328125	5166.9924339546
0.43365478515625	-0.018310546875	5167.01455895454
0.429229736328125	-0.0185455322265625	5167.03668395449
0.4248046875	-0.0187713623046875	5167.05880895443
0.420379638671875	-0.019000244140625	5167.08093395437
0.41595458984375	-0.0192291259765625	5167.10305895432
0.411529541015625	-0.019464111328125	5167.12518395426
0.4071044921875	-0.0196929931640625	5167.14730895421
0.402679443359375	-0.0199188232421875	5167.16943395415
0.39825439453125	-0.0201446533203125	5167.19155895409
0.393829345703125	-0.0203582763671875	5167.21368395404
0.389404296875	-0.0205780029296875	5167.23580895398
0.384979248046875	-0.02078857421875	5167.25793395393
0.38055419921875	-0.0210052490234375	5167.28005895387
0.376129150390625	-0.0212158203125	5167.30218395382
0.3717041015625	-0.0214324951171875	5167.32430895376
0.367279052734375	-0.0216461181640625	5167.3464339537
0.36285400390625	-0.0218536376953125	5167.36855895365
0.358428955078125	-0.022064208984375	5167.39068395359
0.35400390625	-0.022271728515625	5167.41280895354
0.349578857421875	-0.022479248046875	5167.43493395348
0.34515380859375	-0.0226806640625	5167.45705895343
0.340728759765625	-0.0228851318359375	5167.47918395337
0.3363037109375	-0.0230865478515625	5167.50130895331
0.331878662109375	-0.023284912109375	5167.52343395326
0.32745361328125	-0.023480224609375	5167.5455589532
0.323028564453125	-0.023681640625	5167.56768395315
0.318603515625	-0.0238861083984375	5167.58980895309
0.314178466796875	-0.0240814208984375	5167.61193395303
0.30975341796875	-0.02427978515625	5167.63405895298
0.305328369140625	-0.0244720458984375	5167.65618395292
0.3009033203125	-0.0246673583984375	5167.67830895287
0.296478271484375	-0.024859619140625	5167.70043395281
0.29205322265625	-0.025048828125	5167.72255895276
0.287628173828125	-0.0252349853515625	5167.7446839527
0.283203125	-0.0254302978515625	5167.76680895264
0.278778076171875	-0.0256195068359375	5167.78893395259
0.27435302734375	-0.0258056640625	5167.81105895253
0.269927978515625	-0.02598876953125	5167.83318395248
0.2655029296875	-0.0261749267578125	5167.85530895242
0.261077880859375	-0.0263580322265625	5167.87743395236
0.25665283203125	-0.0265472412109375	5167.89955895231
0.252227783203125	-0.0267242431640625	5167.92168395225
0.247802734375	-0.0269073486328125	5167.9438089522
0.243377685546875	-0.02708740234375	5167.96593395214
0.23895263671875	-0.027264404296875	5167.98805895208
0.234527587890625	-0.02744140625	5168.01018395203
0.2301025390625	-0.027618408203125	5168.03230895197
0.225677490234375	-0.02779541015625	5168.05443395192
0.22125244140625	-0.027972412109375	5168.07655895186
0.216827392578125	-0.0281494140625	5168.09868395181
0.21240234375	-0.0283233642578125	5168.12080895175
0.207977294921875	-0.028497314453125	5168.14293395169
0.20355224609375	-0.0286651611328125	5168.16505895164
0.199127197265625	-0.028839111328125	5168.18718395158
0.1947021484375	-0.029010009765625	5168.20930895153
0.190277099609375	-0.0291839599609375	5168.23143395147
0.18585205078125	-0.0293487548828125	5168.25355895141
0.181427001953125	-0.0295196533203125	5168.27568395136
0.177001953125	-0.0296783447265625	5168.2978089513
0.172576904296875	-0.02984619140625	5168.31993395125
0.16815185546875	-0.03001708984375	5168.34205895119
0.163726806640625	-0.0301788330078125	5168.36418395113
0.1593017578125	-0.0303466796875	5168.38630895108
0.154876708984375	-0.03050537109375	5168.40843395102
0.15045166015625	-0.030670166015625	5168.43055895097
0.146026611328125	-0.0308319091796875	5168.45268395091
0.1416015625	-0.0309967041015625	5168.47480895086
0.137176513671875	-0.0311553955078125	5168.4969339508
0.13275146484375	-0.0313201904296875	5168.51905895074
0.128326416015625	-0.0314788818359375	5168.54118395069
0.1239013671875	-0.031640625	5168.56330895063
0.119476318359375	-0.031793212890625	5168.58543395058
0.11505126953125	-0.0319488525390625	5168.60755895052
0.110626220703125	-0.0320953369140625	5168.62968395046
0.106201171875	-0.032257080078125	5168.65180895041
0.101776123046875	-0.032415771484375	5168.67393395035
0.09735107421875	-0.032568359375	5168.6960589503
0.092926025390625	-0.032720947265625	5168.71818395024
0.0885009765625	-0.0328704833984375	5168.74030895018
0.084075927734375	-0.03302001953125	5168.76243395013
0.07965087890625	-0.0331695556640625	5168.78455895007
0.075225830078125	-0.033319091796875	5168.80668395002
0.07080078125	-0.0334686279296875	5168.82880894996
0.066375732421875	-0.0336151123046875	5168.85093394991
0.06195068359375	-0.0337677001953125	5168.87305894985
0.057525634765625	-0.0339111328125	5168.89518394979
0.0531005859375	-0.0340606689453125	5168.91730894974
0.048675537109375	-0.0342010498046875	5168.93943394968
0.04425048828125	-0.0343505859375	5168.96155894963
0.039825439453125	-0.034490966796875	5168.98368394957
0.035400390625	-0.03463134765625	5169.00580894952
0.030975341796875	-0.03477783203125	5169.02793394946
0.02655029296875	-0.0349212646484375	5169.0500589494
0.022125244140625	-0.03505859375	5169.07218394935
0.0177001953125	-0.0352020263671875	5169.09430894929
0.013275146484375	-0.0353363037109375	5169.11643394924
0.00885009765625	-0.035479736328125	5169.13855894918
0.004425048828125	-0.0356170654296875	5169.16068394912
0	-0.0357574462890625	5169.18280894907
0.004425048828125	-0.034979248046875	5169.20493394901
0.00885009765625	-0.0342254638671875	5169.22705894896
0.013275146484375	-0.0334808349609375	5169.2491839489
0.0177001953125	-0.032763671875	5169.27130894884
0.022125244140625	-0.032049560546875	5169.29343394879
0.02655029296875	-0.03134765625	5169.31555894873
0.030975341796875	-0.0306610107421875	5169.33768394868
0.035400390625	-0.0299774169921875	5169.35980894862
0.039825439453125	-0.02930908203125	5169.38193394857
0.04425048828125	-0.028643798828125	5169.40405894851
0.048675537109375	-0.027984619140625	5169.42618394845
0.0531005859375	-0.0273406982421875	5169.4483089484
0.057525634765625	-0.0266998291015625	5169.47043394834
0.06195068359375	-0.02607421875	5169.49255894829
0.066375732421875	-0.0254547119140625	5169.51468394823
0.07080078125	-0.0248382568359375	5169.53680894817
0.075225830078125	-0.0242279052734375	5169.55893394812
0.07965087890625	-0.02362060546875	5169.58105894806
0.084075927734375	-0.0230316162109375	5169.60318394801
0.0885009765625	-0.0224456787109375	5169.62530894795
0.092926025390625	-0.0218658447265625	5169.64743394789
0.09735107421875	-0.0212860107421875	5169.66955894784
0.101776123046875	-0.0207183837890625	5169.69168394778
0.106201171875	-0.0201507568359375	5169.71380894773
0.110626220703125	-0.01959228515625	5169.73593394767
0.11505126953125	-0.019036865234375	5169.75805894762
0.119476318359375	-0.0184967041015625	5169.78018394756
0.1239013671875	-0.0179534912109375	5169.8023089475
0.128326416015625	-0.0174163818359375	5169.82443394745
0.13275146484375	-0.016888427734375	5169.84655894739
0.137176513671875	-0.0163604736328125	5169.86868394734
0.1416015625	-0.0158416748046875	5169.89080894728
0.146026611328125	-0.015325927734375	5169.91293394722
0.15045166015625	-0.0148162841796875	5169.93505894717
0.154876708984375	-0.0143096923828125	5169.95718394711
0.1593017578125	-0.0138153076171875	5169.97930894706
0.163726806640625	-0.0133148193359375	5170.001433947
0.16815185546875	-0.012823486328125	5170.02355894694
0.172576904296875	-0.0123382568359375	5170.04568394689
0.177001953125	-0.0118560791015625	5170.06780894683
0.181427001953125	-0.0113800048828125	5170.08993394678
0.18585205078125	-0.010906982421875	5170.11205894672
0.190277099609375	-0.01043701171875	5170.13418394667
0.1947021484375	-0.00997314453125	5170.15630894661
0.199127197265625	-0.0095123291015625	5170.17843394655
0.20355224609375	-0.0090576171875	5170.2005589465
0.207977294921875	-0.0086029052734375	5170.22268394644
0.21240234375	-0.0081573486328125	5170.24480894639
0.216827392578125	-0.0077117919921875	5170.26693394633
0.22125244140625	-0.0072723388671875	5170.28905894627
0.225677490234375	-0.0068359375	5170.31118394622
0.2301025390625	-0.006402587890625	5170.33330894616
0.234527587890625	-0.005975341796875	5170.35543394611
0.23895263671875	-0.005548095703125	5170.37755894605
0.243377685546875	-0.0051239013671875	5170.399683946
0.247802734375	-0.00470947265625	5170.42180894594
0.252227783203125	-0.00429351806640625	5170.44393394588
0.25665283203125	-0.00388336181640625	5170.46605894583
0.261077880859375	-0.00347564697265625	5170.48818394577
0.2655029296875	-0.0030712890625	5170.51030894572
0.269927978515625	-0.00267974853515625	5170.53243394566
0.27435302734375	-0.00228118896484375	5170.55455894561
0.278778076171875	-0.001885986328125	5170.57668394555
0.283203125	-0.001492919921875	5170.59880894549
0.287628173828125	-0.0011041259765625	5170.62093394544
0.29205322265625	-0.00071807861328125	5170.64305894538
0.296478271484375	-0.000336456298828125	5170.66518394533
0.3009033203125	4.4097900390625E-05	5170.68730894527
0.305328369140625	0.000420135498046875	5170.70943394521
0.30975341796875	0.00079376220703125	5170.73155894516
0.314178466796875	0.00116729736328125	5170.7536839451
0.318603515625	0.00153564453125	5170.77580894505
0.323028564453125	0.00190185546875	5170.79793394499
0.32745361328125	0.00226409912109375	5170.82005894493
0.331878662109375	0.00262481689453125	5170.84218394488
0.3363037109375	0.0029803466796875	5170.86430894482
0.340728759765625	0.0033349609375	5170.88643394477
0.34515380859375	0.0036846923828125	5170.90855894471
0.349578857421875	0.00403350830078125	5170.93068394466
0.35400390625	0.00437713623046875	5170.9528089446
0.358428955078125	0.0047216796875	5170.97493394454
0.36285400390625	0.00506072998046875	5170.99705894449
0.367279052734375	0.00539886474609375	5171.01918394443
0.3717041015625	0.00573333740234375	5171.04130894438
0.376129150390625	0.00606414794921875	5171.06343394432
0.38055419921875	0.00638427734375	5171.08555894426
0.384979248046875	0.0067108154296875	5171.10768394421
0.389404296875	0.007037353515625	5171.12980894415
0.393829345703125	0.007354736328125	5171.1519339441
0.39825439453125	0.0076751708984375	5171.17405894404
0.402679443359375	0.0079864501953125	5171.19618394398
0.4071044921875	0.0083038330078125	5171.21830894393
0.411529541015625	0.0086151123046875	5171.24043394387
0.41595458984375	0.0089263916015625	5171.26255894382
0.420379638671875	0.009234619140625	5171.28468394376
0.4248046875	0.0095367431640625	5171.30680894371
0.429229736328125	0.0098419189453125	5171.32893394365
0.43365478515625	0.01014404296875	5171.35105894359
0.438079833984375	0.0104400634765625	5171.37318394354
0.4425048828125	0.0107391357421875	5171.39530894348
0.446929931640625	0.011029052734375	5171.41743394343
0.45135498046875	0.011322021484375	5171.43955894337
0.455780029296875	0.011614990234375	5171.46168394331
0.460205078125	0.011895751953125	5171.48380894326
0.464630126953125	0.0121826171875	5171.5059339432
0.46905517578125	0.01246337890625	5171.52805894315
0.473480224609375	0.0127410888671875	5171.55018394309
0.4779052734375	0.013018798828125	5171.57230894303
0.482330322265625	0.0132965087890625	5171.59443394298
0.48675537109375	0.0135711669921875	5171.61655894292
0.491180419921875	0.0138397216796875	5171.63868394287
0.49560546875	0.0141082763671875	5171.66080894281
0.500030517578125	0.0143768310546875	5171.68293394276
0.50445556640625	0.0146453857421875	5171.7050589427
0.508880615234375	0.0149078369140625	5171.72718394264
0.5133056640625	0.0151702880859375	5171.74930894259
0.517730712890625	0.0154296875	5171.77143394253
0.52215576171875	0.01568603515625	5171.79355894248
0.526580810546875	0.0159423828125	5171.81568394242
0.531005859375	0.01619873046875	5171.83780894236
0.535430908203125	0.016455078125	5171.85993394231
0.53985595703125	0.0167022705078125	5171.88205894225
0.544281005859375	0.0169525146484375	5171.9041839422
0.5487060546875	0.017193603515625	5171.92630894214
0.553131103515625	0.0174407958984375	5171.94843394209
0.55755615234375	0.01768798828125	5171.97055894203
0.561981201171875	0.01793212890625	5171.99268394197
0.56640625	0.018170166015625	5172.01480894192
0.570831298828125	0.01842041015625	5172.03693394186
0.57525634765625	0.0186614990234375	5172.05905894181
0.579681396484375	0.0188995361328125	5172.08118394175
0.5841064453125	0.019134521484375	5172.10330894169
0.588531494140625	0.0193634033203125	5172.12543394164
0.59295654296875	0.0195953369140625	5172.14755894158
0.597381591796875	0.01982421875	5172.16968394153
0.601806640625	0.0200531005859375	5172.19180894147
0.606231689453125	0.02027587890625	5172.21393394142
0.61065673828125	0.020501708984375	5172.23605894136
0.615081787109375	0.020721435546875	5172.2581839413
0.6195068359375	0.0209442138671875	5172.28030894125
0.623931884765625	0.021160888671875	5172.30243394119
0.62835693359375	0.021392822265625	5172.32455894114
0.632781982421875	0.0216217041015625	5172.34668394108
0.63720703125	0.0218353271484375	5172.36880894102
0.641632080078125	0.0220428466796875	5172.39093394097
0.64605712890625	0.022247314453125	5172.41305894091
0.650482177734375	0.0224639892578125	5172.43518394086
0.6549072265625	0.0226776123046875	5172.4573089408
0.659332275390625	0.0229034423828125	5172.47943394074
0.66375732421875	0.023114013671875	5172.50155894069
0.668182373046875	0.0233184814453125	5172.52368394063
0.672607421875	0.023516845703125	5172.54580894058
0.677032470703125	0.02371826171875	5172.56793394052
0.68145751953125	0.023919677734375	5172.59005894047
0.685882568359375	0.0241241455078125	5172.61218394041
0.6903076171875	0.02431640625	5172.63430894035
0.694732666015625	0.02451171875	5172.6564339403
0.69915771484375	0.024713134765625	5172.67855894024
0.703582763671875	0.02490234375	5172.70068394019
0.7080078125	0.025091552734375	5172.72280894013
0.712432861328125	0.02528076171875	5172.74493394007
0.71685791015625	0.0254730224609375	5172.76705894002
0.721282958984375	0.0256622314453125	5172.78918393996
0.7257080078125	0.0258453369140625	5172.81130893991
0.730133056640625	0.026031494140625	5172.83343393985
0.73455810546875	0.0262176513671875	5172.85555893979
0.738983154296875	0.0264007568359375	5172.87768393974
0.743408203125	0.0265777587890625	5172.89980893968
0.747833251953125	0.0267608642578125	5172.92193393963
0.75225830078125	0.0269317626953125	5172.94405893957
0.756683349609375	0.02711181640625	5172.96618393952
0.7611083984375	0.027288818359375	5172.98830893946
0.765533447265625	0.0274627685546875	5173.0104339394
0.76995849609375	0.02763671875	5173.03255893935
0.774383544921875	0.0278076171875	5173.05468393929
0.77880859375	0.0279815673828125	5173.07680893924
0.783233642578125	0.0281463623046875	5173.09893393918
0.78765869140625	0.0283111572265625	5173.12105893912
0.792083740234375	0.0284759521484375	5173.14318393907
0.7965087890625	0.0286468505859375	5173.16530893901
0.800933837890625	0.0288116455078125	5173.18743393896
0.80535888671875	0.02896728515625	5173.2095589389
0.809783935546875	0.0291229248046875	5173.23168393885
0.814208984375	0.029290771484375	5173.25380893879
0.818634033203125	0.0294464111328125	5173.27593393873
0.82305908203125	0.0296142578125	5173.29805893868
0.827484130859375	0.0297607421875	5173.32018393862
0.8319091796875	0.0299163818359375	5173.34230893857
0.836334228515625	0.030072021484375	5173.36443393851
0.84075927734375	0.0302276611328125	5173.38655893845
0.845184326171875	0.030377197265625	5173.4086839384
0.849609375	0.03052978515625	5173.43080893834
0.854034423828125	0.030682373046875	5173.45293393829
0.85845947265625	0.0308319091796875	5173.47505893823
0.862884521484375	0.030975341796875	5173.49718393818
0.8673095703125	0.031121826171875	5173.51930893812
0.871734619140625	0.031268310546875	5173.54143393806
0.87615966796875	0.0314117431640625	5173.56355893801
0.880584716796875	0.03155517578125	5173.58568393795
0.885009765625	0.031695556640625	5173.6078089379
0.889434814453125	0.0318389892578125	5173.62993393784
0.89385986328125	0.031976318359375	5173.65205893778
0.898284912109375	0.0321197509765625	5173.67418393773
0.9027099609375	0.032257080078125	5173.69630893767
0.907135009765625	0.0324005126953125	5173.71843393762
0.91156005859375	0.0325347900390625	5173.74055893756
0.915985107421875	0.032666015625	5173.76268393751
0.92041015625	0.03280029296875	5173.78480893745
0.924835205078125	0.032928466796875	5173.80693393739
0.92926025390625	0.03306884765625	5173.82905893734
0.933685302734375	0.033197021484375	5173.85118393728
0.9381103515625	0.0333343505859375	5173.87330893723
0.942535400390625	0.0334564208984375	5173.89543393717
0.94696044921875	0.033587646484375	5173.91755893711
0.951385498046875	0.033709716796875	5173.93968393706
0.955810546875	0.033843994140625	5173.961808937
0.960235595703125	0.03397216796875	5173.98393393695
0.96466064453125	0.03409423828125	5174.00605893689
0.969085693359375	0.034222412109375	5174.02818393683
0.9735107421875	0.0343475341796875	5174.05030893678
0.977935791015625	0.0344696044921875	5174.07243393672
0.98236083984375	0.034588623046875	5174.09455893667
0.986785888671875	0.034716796875	5174.11668393661
0.9912109375	0.0348358154296875	5174.13880893656
0.995635986328125	0.0349609375	5174.1609339365
1.00006103515625	0.035076904296875	5174.18305893644
0.995635986328125	0.0342864990234375	5174.20518393639
0.9912109375	0.0335113525390625	5174.22730893633
0.986785888671875	0.032769775390625	5174.24943393628
0.98236083984375	0.0320281982421875	5174.27155893622
0.977935791015625	0.031304931640625	5174.29368393616
0.9735107421875	0.0305908203125	5174.31580893611
0.969085693359375	0.0298919677734375	5174.33793393605
0.96466064453125	0.0292083740234375	5174.360058936
0.960235595703125	0.02852783203125	5174.38218393594
0.955810546875	0.027862548828125	5174.40430893588
0.951385498046875	0.0272003173828125	5174.42643393583
0.94696044921875	0.02655029296875	5174.44855893577
0.942535400390625	0.0259033203125	5174.47068393572
0.9381103515625	0.0252655029296875	5174.49280893566
0.933685302734375	0.0246368408203125	5174.51493393561
0.92926025390625	0.0240234375	5174.53705893555
0.924835205078125	0.0234100341796875	5174.55918393549
0.92041015625	0.022808837890625	5174.58130893544
0.915985107421875	0.022210693359375	5174.60343393538
0.91156005859375	0.0216217041015625	5174.62555893533
0.907135009765625	0.0210418701171875	5174.64768393527
0.9027099609375	0.020458984375	5174.66980893521
0.898284912109375	0.0198944091796875	5174.69193393516
0.89385986328125	0.019329833984375	5174.7140589351
0.889434814453125	0.0187713623046875	5174.73618393505
0.885009765625	0.0182159423828125	5174.75830893499
0.880584716796875	0.0176727294921875	5174.78043393493
0.87615966796875	0.0171356201171875	5174.80255893488
0.871734619140625	0.0166015625	5174.82468393482
0.8673095703125	0.016070556640625	5174.84680893477
0.862884521484375	0.0155517578125	5174.86893393471
0.85845947265625	0.0150360107421875	5174.89105893466
0.854034423828125	0.014520263671875	5174.9131839346
0.849609375	0.0140167236328125	5174.93530893454
0.845184326171875	0.01351318359375	5174.95743393449
0.84075927734375	0.013018798828125	5174.97955893443
0.836334228515625	0.0125244140625	5175.00168393438
0.8319091796875	0.0120391845703125	5175.02380893432
0.827484130859375	0.01156005859375	5175.04593393427
0.82305908203125	0.0110809326171875	5175.06805893421
0.818634033203125	0.0106109619140625	5175.09018393415
0.814208984375	0.01014404296875	5175.1123089341
0.809783935546875	0.0096771240234375	5175.13443393404
0.80535888671875	0.009222412109375	5175.15655893399
0.800933837890625	0.0087646484375	5175.17868393393
0.7965087890625	0.0083160400390625	5175.20080893387
0.792083740234375	0.007867431640625	5175.22293393382
0.78765869140625	0.007427978515625	5175.24505893376
0.783233642578125	0.0069915771484375	5175.26718393371
0.77880859375	0.0065582275390625	5175.28930893365
0.774383544921875	0.0061279296875	5175.31143393359
0.76995849609375	0.0057037353515625	5175.33355893354
0.765533447265625	0.005279541015625	5175.35568393348
0.7611083984375	0.00486297607421875	5175.37780893343
0.756683349609375	0.0044488525390625	5175.39993393337
0.75225830078125	0.00403839111328125	5175.42205893332
0.747833251953125	0.003631591796875	5175.44418393326
0.743408203125	0.0032281494140625	5175.4663089332
0.738983154296875	0.00283416748046875	5175.48843393315
0.73455810546875	0.0024359130859375	5175.51055893309
0.730133056640625	0.00204376220703125	5175.53268393304
0.7257080078125	0.00165283203125	5175.55480893298
0.721282958984375	0.00126708984375	5175.57693393292
0.71685791015625	0.0008831787109375	5175.59905893287
0.712432861328125	0.000504150390625	5175.62118393281
0.7080078125	0.000126739501953125	5175.64330893276
0.703582763671875	-0.00024560546875	5175.6654339327
0.69915771484375	-0.000614013671875	5175.68755893264
0.694732666015625	-0.00098175048828125	5175.70968393259
0.6903076171875	-0.00134429931640625	5175.73180893253
0.685882568359375	-0.0017059326171875	5175.75393393248
0.68145751953125	-0.00206207275390625	5175.77605893242
0.677032470703125	-0.002418212890625	5175.79818393237
0.672607421875	-0.0027679443359375	5175.82030893231
0.668182373046875	-0.00311798095703125	5175.84243393225
0.66375732421875	-0.00346221923828125	5175.8645589322
0.659332275390625	-0.00380706787109375	5175.88668393214
0.6549072265625	-0.004146728515625	5175.90880893209
0.650482177734375	-0.004483642578125	5175.93093393203
0.64605712890625	-0.0048187255859375	5175.95305893197
0.641632080078125	-0.005150146484375	5175.97518393192
0.63720703125	-0.00547943115234375	5175.99730893186
0.632781982421875	-0.00580474853515625	5176.01943393181
0.62835693359375	-0.00613067626953125	5176.04155893175
0.623931884765625	-0.0064300537109375	5176.0636839317
0.6195068359375	-0.00675048828125	5176.08580893164
0.615081787109375	-0.0070648193359375	5176.10793393158
0.61065673828125	-0.007379150390625	5176.13005893153
0.606231689453125	-0.0076873779296875	5176.15218393147
0.601806640625	-0.0079925537109375	5176.17430893142
0.597381591796875	-0.0082977294921875	5176.19643393136
0.59295654296875	-0.008599853515625	5176.2185589313
0.588531494140625	-0.0089019775390625	5176.24068393125
0.5841064453125	-0.009197998046875	5176.26280893119
0.579681396484375	-0.009490966796875	5176.28493393114
0.57525634765625	-0.009783935546875	5176.30705893108
0.570831298828125	-0.010076904296875	5176.32918393102
0.56640625	-0.01036376953125	5176.35130893097
0.561981201171875	-0.010650634765625	5176.37343393091
0.55755615234375	-0.0109344482421875	5176.39555893086
0.553131103515625	-0.0112152099609375	5176.4176839308
0.5487060546875	-0.011492919921875	5176.43980893075
0.544281005859375	-0.0117706298828125	5176.46193393069
0.53985595703125	-0.01204833984375	5176.48405893063
0.535430908203125	-0.0123199462890625	5176.50618393058
0.531005859375	-0.012591552734375	5176.52830893052
0.526580810546875	-0.012860107421875	5176.55043393047
0.52215576171875	-0.013134765625	5176.57255893041
0.517730712890625	-0.013397216796875	5176.59468393036
0.5133056640625	-0.0136627197265625	5176.6168089303
0.508880615234375	-0.0139251708984375	5176.63893393024
0.50445556640625	-0.0141845703125	5176.66105893019
0.500030517578125	-0.01444091796875	5176.68318393013
0.49560546875	-0.014703369140625	5176.70530893008
0.491180419921875	-0.01495361328125	5176.72743393002
0.48675537109375	-0.015203857421875	5176.74955892996
0.482330322265625	-0.0154571533203125	5176.77168392991
0.4779052734375	-0.0157012939453125	5176.79380892985
0.473480224609375	-0.015948486328125	5176.8159339298
0.46905517578125	-0.016192626953125	5176.83805892974
0.464630126953125	-0.0164398193359375	5176.86018392968
0.460205078125	-0.01668701171875	5176.88230892963
0.455780029296875	-0.0169342041015625	5176.90443392957
0.45135498046875	-0.01717529296875	5176.92655892952
0.446929931640625	-0.017413330078125	5176.94868392946
0.4425048828125	-0.0176483154296875	5176.97080892941
0.438079833984375	-0.01788330078125	5176.99293392935
0.43365478515625	-0.0181182861328125	5177.01505892929
0.429229736328125	-0.0183563232421875	5177.03718392924
0.4248046875	-0.0185882568359375	5177.05930892918
0.420379638671875	-0.0188140869140625	5177.08143392913
0.41595458984375	-0.0190399169921875	5177.10355892907
0.411529541015625	-0.0192626953125	5177.12568392901
0.4071044921875	-0.0194915771484375	5177.14780892896
0.402679443359375	-0.019720458984375	5177.1699339289
0.39825439453125	-0.019952392578125	5177.19205892885
0.393829345703125	-0.020172119140625	5177.21418392879
0.389404296875	-0.0203887939453125	5177.23630892873
0.384979248046875	-0.0206085205078125	5177.25843392868
0.38055419921875	-0.0208221435546875	5177.28055892862
0.376129150390625	-0.0210418701171875	5177.30268392857
0.3717041015625	-0.0212493896484375	5177.32480892851
0.367279052734375	-0.021466064453125	5177.34693392846
0.36285400390625	-0.021673583984375	5177.3690589284
0.358428955078125	-0.0218841552734375	5177.39118392834
0.35400390625	-0.0220916748046875	5177.41330892829
0.349578857421875	-0.0222930908203125	5177.43543392823
0.34515380859375	-0.0225006103515625	5177.45755892818
0.340728759765625	-0.022705078125	5177.47968392812
0.3363037109375	-0.0229095458984375	5177.50180892806
0.331878662109375	-0.0231109619140625	5177.52393392801
0.32745361328125	-0.0233123779296875	5177.54605892795
0.323028564453125	-0.0235076904296875	5177.5681839279
0.318603515625	-0.0237060546875	5177.59030892784
0.314178466796875	-0.023907470703125	5177.61243392778
0.30975341796875	-0.02410888671875	5177.63455892773
0.305328369140625	-0.0243011474609375	5177.65668392767
0.3009033203125	-0.0244964599609375	5177.67880892762
0.296478271484375	-0.024688720703125	5177.70093392756
0.29205322265625	-0.0248809814453125	5177.72305892751
0.287628173828125	-0.025067138671875	5177.74518392745
0.283203125	-0.025262451171875	5177.76730892739
0.278778076171875	-0.025445556640625	5177.78943392734
0.27435302734375	-0.025634765625	5177.81155892728
0.269927978515625	-0.02581787109375	5177.83368392723
0.2655029296875	-0.026007080078125	5177.85580892717
0.261077880859375	-0.026190185546875	5177.87793392712
0.25665283203125	-0.0263763427734375	5177.90005892706
0.252227783203125	-0.0265594482421875	5177.922183927
0.247802734375	-0.0267364501953125	5177.94430892695
0.243377685546875	-0.02691650390625	5177.96643392689
0.23895263671875	-0.0270965576171875	5177.98855892684
0.234527587890625	-0.027276611328125	5178.01068392678
0.2301025390625	-0.02745361328125	5178.03280892672
0.225677490234375	-0.027630615234375	5178.05493392667
0.22125244140625	-0.0278076171875	5178.07705892661
0.216827392578125	-0.027984619140625	5178.09918392656
0.21240234375	-0.02816162109375	5178.1213089265
0.207977294921875	-0.02833251953125	5178.14343392644
0.20355224609375	-0.0285064697265625	5178.16555892639
0.199127197265625	-0.028680419921875	5178.18768392633
0.1947021484375	-0.028851318359375	5178.20980892628
0.190277099609375	-0.0290191650390625	5178.23193392622
0.18585205078125	-0.0291900634765625	5178.25405892617
0.181427001953125	-0.0293548583984375	5178.27618392611
0.177001953125	-0.029522705078125	5178.29830892605
0.172576904296875	-0.029693603515625	5178.320433926
0.16815185546875	-0.029852294921875	5178.34255892594
0.163726806640625	-0.0300201416015625	5178.36468392589
0.1593017578125	-0.0301849365234375	5178.38680892583
0.154876708984375	-0.0303497314453125	5178.40893392577
0.15045166015625	-0.0305084228515625	5178.43105892572
0.146026611328125	-0.0306732177734375	5178.45318392566
0.1416015625	-0.030841064453125	5178.47530892561
0.137176513671875	-0.0310028076171875	5178.49743392555
0.13275146484375	-0.0311614990234375	5178.51955892549
0.128326416015625	-0.031317138671875	5178.54168392544
0.1239013671875	-0.031475830078125	5178.56380892538
0.119476318359375	-0.0316375732421875	5178.58593392533
0.11505126953125	-0.0317962646484375	5178.60805892527
0.110626220703125	-0.0319488525390625	5178.63018392522
0.106201171875	-0.0321014404296875	5178.65230892516
0.101776123046875	-0.032257080078125	5178.6744339251
0.09735107421875	-0.0324127197265625	5178.69655892505
0.092926025390625	-0.0325653076171875	5178.71868392499
0.0885009765625	-0.0327178955078125	5178.74080892494
0.084075927734375	-0.032867431640625	5178.76293392488
0.07965087890625	-0.033013916015625	5178.78505892482
0.075225830078125	-0.033160400390625	5178.80718392477
0.07080078125	-0.0333099365234375	5178.82930892471
0.066375732421875	-0.0334625244140625	5178.85143392466
0.06195068359375	-0.033612060546875	5178.8735589246
0.057525634765625	-0.033758544921875	5178.89568392455
0.0531005859375	-0.0339019775390625	5178.91780892449
0.048675537109375	-0.03404541015625	5178.93993392443
0.04425048828125	-0.03419189453125	5178.96205892438
0.039825439453125	-0.03433837890625	5178.98418392432
0.035400390625	-0.0344757080078125	5179.00630892427
0.030975341796875	-0.034619140625	5179.02843392421
0.02655029296875	-0.0347625732421875	5179.05055892415
0.022125244140625	-0.0349029541015625	5179.0726839241
0.0177001953125	-0.0350433349609375	5179.09480892404
0.013275146484375	-0.0351837158203125	5179.11693392399
0.00885009765625	-0.035321044921875	5179.13905892393
0.004425048828125	-0.035455322265625	5179.16118392387
0	-0.035595703125	5179.18330892382
0.004425048828125	-0.034814453125	5179.20543392376
0.00885009765625	-0.0340667724609375	5179.22755892371
0.013275146484375	-0.0333282470703125	5179.24968392365
0.0177001953125	-0.03260498046875	5179.2718089236
0.022125244140625	-0.031890869140625	5179.29393392354
0.02655029296875	-0.0311920166015625	5179.31605892348
0.030975341796875	-0.0304931640625	5179.33818392343
0.035400390625	-0.0298126220703125	5179.36030892337
0.039825439453125	-0.02913818359375	5179.38243392332
0.04425048828125	-0.0284759521484375	5179.40455892326
0.048675537109375	-0.02781982421875	5179.42668392321
0.0531005859375	-0.0271728515625	5179.44880892315
0.057525634765625	-0.0265380859375	5179.47093392309
0.06195068359375	-0.0259063720703125	5179.49305892304
0.066375732421875	-0.0252838134765625	5179.51518392298
0.07080078125	-0.0246673583984375	5179.53730892293
0.075225830078125	-0.02406005859375	5179.55943392287
0.07965087890625	-0.023455810546875	5179.58155892281
0.084075927734375	-0.02286376953125	5179.60368392276
0.0885009765625	-0.022271728515625	5179.6258089227
0.092926025390625	-0.0216888427734375	5179.64793392265
0.09735107421875	-0.021112060546875	5179.67005892259
0.101776123046875	-0.02054443359375	5179.69218392253
0.106201171875	-0.0199798583984375	5179.71430892248
0.110626220703125	-0.0194244384765625	5179.73643392242
0.11505126953125	-0.0188690185546875	5179.75855892237
0.119476318359375	-0.01832275390625	5179.78068392231
0.1239013671875	-0.0177825927734375	5179.80280892226
0.128326416015625	-0.0172454833984375	5179.8249339222
0.13275146484375	-0.016717529296875	5179.84705892214
0.137176513671875	-0.016192626953125	5179.86918392209
0.1416015625	-0.015667724609375	5179.89130892203
0.146026611328125	-0.015155029296875	5179.91343392198
0.15045166015625	-0.0146453857421875	5179.93555892192
0.154876708984375	-0.0141387939453125	5179.95768392186
0.1593017578125	-0.0136444091796875	5179.97980892181
0.163726806640625	-0.01314697265625	5180.00193392175
0.16815185546875	-0.012652587890625	5180.0240589217
0.172576904296875	-0.01217041015625	5180.04618392164
0.177001953125	-0.011688232421875	5180.06830892158
0.181427001953125	-0.0112091064453125	5180.09043392153
0.18585205078125	-0.0107391357421875	5180.11255892147
0.190277099609375	-0.0102691650390625	5180.13468392142
0.1947021484375	-0.0098052978515625	5180.15680892136
0.199127197265625	-0.009344482421875	5180.17893392131
0.20355224609375	-0.00888671875	5180.20105892125
0.207977294921875	-0.00843505859375	5180.22318392119
0.21240234375	-0.0079864501953125	5180.24530892114
0.216827392578125	-0.0075469970703125	5180.26743392108
0.22125244140625	-0.0071044921875	5180.28955892103
0.225677490234375	-0.0066680908203125	5180.31168392097
0.2301025390625	-0.00623779296875	5180.33380892091
0.234527587890625	-0.0058074951171875	5180.35593392086
0.23895263671875	-0.00538330078125	5180.3780589208
0.243377685546875	-0.00496246337890625	5180.40018392075
0.247802734375	-0.004544677734375	5180.42230892069
0.252227783203125	-0.0041314697265625	5180.44443392063
0.25665283203125	-0.00371978759765625	5180.46655892058
0.261077880859375	-0.0033123779296875	5180.48868392052
0.2655029296875	-0.00291961669921875	5180.51080892047
0.269927978515625	-0.00251708984375	5180.53293392041
0.27435302734375	-0.00211944580078125	5180.55505892036
0.278778076171875	-0.00172393798828125	5180.5771839203
0.283203125	-0.00133270263671875	5180.59930892024
0.287628173828125	-0.00094329833984375	5180.62143392019
0.29205322265625	-0.00055877685546875	5180.64355892013
0.296478271484375	-0.000176025390625	5180.66568392008
0.3009033203125	0.000202178955078125	5180.68780892002
0.305328369140625	0.00057891845703125	5180.70993391996
0.30975341796875	0.00095123291015625	5180.73205891991
0.314178466796875	0.0013262939453125	5180.75418391985
0.318603515625	0.00169342041015625	5180.7763089198
0.323028564453125	0.00205780029296875	5180.79843391974
0.32745361328125	0.00242034912109375	5180.82055891969
0.331878662109375	0.0027783203125	5180.84268391963
0.3363037109375	0.0031353759765625	5180.86480891957
0.340728759765625	0.00348663330078125	5180.88693391952
0.34515380859375	0.00383575439453125	5180.90905891946
0.349578857421875	0.0041839599609375	5180.93118391941
0.35400390625	0.00452880859375	5180.95330891935
0.358428955078125	0.00486968994140625	5180.97543391929
0.36285400390625	0.0052105712890625	5180.99755891924
0.367279052734375	0.00554656982421875	5181.01968391918
0.3717041015625	0.00588134765625	5181.04180891913
0.376129150390625	0.0062127685546875	5181.06393391907
0.38055419921875	0.0065277099609375	5181.08605891902
0.384979248046875	0.0068572998046875	5181.10818391896
0.389404296875	0.0071807861328125	5181.1303089189
0.393829345703125	0.007501220703125	5181.15243391885
0.39825439453125	0.0078155517578125	5181.17455891879
0.402679443359375	0.0081329345703125	5181.19668391874
0.4071044921875	0.008447265625	5181.21880891868
0.411529541015625	0.008758544921875	5181.24093391862
0.41595458984375	0.0090667724609375	5181.26305891857
0.420379638671875	0.009375	5181.28518391851
0.4248046875	0.009674072265625	5181.30730891846
0.429229736328125	0.009979248046875	5181.3294339184
0.43365478515625	0.0102783203125	5181.35155891834
0.438079833984375	0.010577392578125	5181.37368391829
0.4425048828125	0.0108734130859375	5181.39580891823
0.446929931640625	0.0111663818359375	5181.41793391818
0.45135498046875	0.0114593505859375	5181.44005891812
0.455780029296875	0.0117431640625	5181.46218391807
0.460205078125	0.012030029296875	5181.48430891801
0.464630126953125	0.012310791015625	5181.50643391795
0.46905517578125	0.012591552734375	5181.5285589179
0.473480224609375	0.0128692626953125	5181.55068391784
0.4779052734375	0.01314697265625	5181.57280891779
0.482330322265625	0.013421630859375	5181.59493391773
0.48675537109375	0.0136993408203125	5181.61705891767
0.491180419921875	0.013970947265625	5181.63918391762
0.49560546875	0.0142333984375	5181.66130891756
0.500030517578125	0.0145050048828125	5181.68343391751
0.50445556640625	0.0147674560546875	5181.70555891745
0.508880615234375	0.0150299072265625	5181.7276839174
0.5133056640625	0.0152923583984375	5181.74980891734
0.517730712890625	0.0155517578125	5181.77193391728
0.52215576171875	0.0158050537109375	5181.79405891723
0.526580810546875	0.0160614013671875	5181.81618391717
0.531005859375	0.016314697265625	5181.83830891712
0.535430908203125	0.01656494140625	5181.86043391706
0.53985595703125	0.0168182373046875	5181.882558917
0.544281005859375	0.0170623779296875	5181.90468391695
0.5487060546875	0.0173065185546875	5181.92680891689
0.553131103515625	0.0175506591796875	5181.94893391684
0.55755615234375	0.0177947998046875	5181.97105891678
0.561981201171875	0.0180328369140625	5181.99318391672
0.56640625	0.018280029296875	5182.01530891667
0.570831298828125	0.018524169921875	5182.03743391661
0.57525634765625	0.018768310546875	5182.05955891656
0.579681396484375	0.0190032958984375	5182.0816839165
0.5841064453125	0.01923828125	5182.10380891645
0.588531494140625	0.0194671630859375	5182.12593391639
0.59295654296875	0.019696044921875	5182.14805891633
0.597381591796875	0.019927978515625	5182.17018391628
0.601806640625	0.02015380859375	5182.19230891622
0.606231689453125	0.02037353515625	5182.21443391617
0.61065673828125	0.020599365234375	5182.23655891611
0.615081787109375	0.020819091796875	5182.25868391605
0.6195068359375	0.0210357666015625	5182.280808916
0.623931884765625	0.021258544921875	5182.30293391594
0.62835693359375	0.021490478515625	5182.32505891589
0.632781982421875	0.0217132568359375	5182.34718391583
0.63720703125	0.021917724609375	5182.36930891578
0.641632080078125	0.0221221923828125	5182.39143391572
0.64605712890625	0.022332763671875	5182.41355891566
0.650482177734375	0.022552490234375	5182.43568391561
0.6549072265625	0.0227752685546875	5182.45780891555
0.659332275390625	0.022991943359375	5182.4799339155
0.66375732421875	0.0231964111328125	5182.50205891544
0.668182373046875	0.02340087890625	5182.52418391538
0.672607421875	0.0235992431640625	5182.54630891533
0.677032470703125	0.0238006591796875	5182.56843391527
0.68145751953125	0.0240020751953125	5182.59055891522
0.685882568359375	0.0241973876953125	5182.61268391516
0.6903076171875	0.024395751953125	5182.63480891511
0.694732666015625	0.024591064453125	5182.65693391505
0.69915771484375	0.02479248046875	5182.67905891499
0.703582763671875	0.024981689453125	5182.70118391494
0.7080078125	0.0251708984375	5182.72330891488
0.712432861328125	0.0253631591796875	5182.74543391483
0.71685791015625	0.025555419921875	5182.76755891477
0.721282958984375	0.0257415771484375	5182.78968391471
0.7257080078125	0.0259246826171875	5182.81180891466
0.730133056640625	0.0261138916015625	5182.8339339146
0.73455810546875	0.0262939453125	5182.85605891455
0.738983154296875	0.0264801025390625	5182.87818391449
0.743408203125	0.026654052734375	5182.90030891443
0.747833251953125	0.026837158203125	5182.92243391438
0.75225830078125	0.02701416015625	5182.94455891432
0.756683349609375	0.0271942138671875	5182.96668391427
0.7611083984375	0.0273681640625	5182.98880891421
0.765533447265625	0.0275360107421875	5183.01093391416
0.76995849609375	0.0277130126953125	5183.0330589141
0.774383544921875	0.0278839111328125	5183.05518391404
0.77880859375	0.028057861328125	5183.07730891399
0.783233642578125	0.02822265625	5183.09943391393
0.78765869140625	0.0283935546875	5183.12155891388
0.792083740234375	0.028558349609375	5183.14368391382
0.7965087890625	0.0287261962890625	5183.16580891376
0.800933837890625	0.028887939453125	5183.18793391371
0.80535888671875	0.029046630859375	5183.21005891365
0.809783935546875	0.02921142578125	5183.2321839136
0.814208984375	0.0293731689453125	5183.25430891354
0.818634033203125	0.0295318603515625	5183.27643391348
0.82305908203125	0.0296875	5183.29855891343
0.827484130859375	0.029840087890625	5183.32068391337
0.8319091796875	0.02999267578125	5183.34280891332
0.836334228515625	0.0301483154296875	5183.36493391326
0.84075927734375	0.030303955078125	5183.38705891321
0.845184326171875	0.03045654296875	5183.40918391315
0.849609375	0.03060302734375	5183.43130891309
0.854034423828125	0.0307525634765625	5183.45343391304
0.85845947265625	0.030902099609375	5183.47555891298
0.862884521484375	0.031048583984375	5183.49768391293
0.8673095703125	0.0311920166015625	5183.51980891287
0.871734619140625	0.03133544921875	5183.54193391281
0.87615966796875	0.0314849853515625	5183.56405891276
0.880584716796875	0.0316253662109375	5183.5861839127
0.885009765625	0.0317657470703125	5183.60830891265
0.889434814453125	0.031903076171875	5183.63043391259
0.89385986328125	0.0320404052734375	5183.65255891254
0.898284912109375	0.0321807861328125	5183.67468391248
0.9027099609375	0.0323211669921875	5183.69680891242
0.907135009765625	0.0324554443359375	5183.71893391237
0.91156005859375	0.0325897216796875	5183.74105891231
0.915985107421875	0.0327239990234375	5183.76318391226
0.92041015625	0.0328521728515625	5183.7853089122
0.924835205078125	0.0329864501953125	5183.80743391214
0.92926025390625	0.03311767578125	5183.82955891209
0.933685302734375	0.033251953125	5183.85168391203
0.9381103515625	0.0333831787109375	5183.87380891198
0.942535400390625	0.03350830078125	5183.89593391192
0.94696044921875	0.033636474609375	5183.91805891187
0.951385498046875	0.0337677001953125	5183.94018391181
0.955810546875	0.033892822265625	5183.96230891175
0.960235595703125	0.0340240478515625	5183.9844339117
0.96466064453125	0.0341461181640625	5184.00655891164
0.969085693359375	0.03427734375	5184.02868391159
0.9735107421875	0.034393310546875	5184.05080891153
0.977935791015625	0.034521484375	5184.07293391147
0.98236083984375	0.0346405029296875	5184.09505891142
0.986785888671875	0.0347625732421875	5184.11718391136
0.9912109375	0.0348876953125	5184.13930891131
