Potential applied (V)	WE(1).Current (A)	Time (s)
0.004425048828125	-0.0874542236328125	5077.68670318007
0.00885009765625	-0.0839080810546875	5077.73095317996
0.013275146484375	-0.0808319091796875	5077.77520317985
0.0177001953125	-0.0782501220703125	5077.81945317974
0.022125244140625	-0.0758514404296875	5077.86370317963
0.02655029296875	-0.0735992431640625	5077.90795317952
0.030975341796875	-0.0713775634765625	5077.9522031794
0.035400390625	-0.069268798828125	5077.99645317929
0.039825439453125	-0.0672607421875	5078.04070317918
0.04425048828125	-0.065350341796875	5078.08495317907
0.048675537109375	-0.06351318359375	5078.12920317896
0.0531005859375	-0.0617523193359375	5078.17345317884
0.057525634765625	-0.0600250244140625	5078.21770317873
0.06195068359375	-0.0583831787109375	5078.26195317862
0.066375732421875	-0.0567779541015625	5078.30620317851
0.07080078125	-0.055230712890625	5078.3504531784
0.075225830078125	-0.0537322998046875	5078.39470317829
0.07965087890625	-0.05228271484375	5078.43895317817
0.084075927734375	-0.0508697509765625	5078.48320317806
0.0885009765625	-0.04949951171875	5078.52745317795
0.092926025390625	-0.0481658935546875	5078.57170317784
0.09735107421875	-0.046868896484375	5078.61595317773
0.101776123046875	-0.045611572265625	5078.66020317762
0.106201171875	-0.0443817138671875	5078.7044531775
0.110626220703125	-0.0431854248046875	5078.74870317739
0.11505126953125	-0.042022705078125	5078.79295317728
0.119476318359375	-0.040887451171875	5078.83720317717
0.1239013671875	-0.0397674560546875	5078.88145317706
0.128326416015625	-0.0386871337890625	5078.92570317694
0.13275146484375	-0.0376312255859375	5078.96995317683
0.137176513671875	-0.036602783203125	5079.01420317672
0.1416015625	-0.0355987548828125	5079.05845317661
0.146026611328125	-0.034613037109375	5079.1027031765
0.15045166015625	-0.033648681640625	5079.14695317639
0.154876708984375	-0.03271484375	5079.19120317627
0.1593017578125	-0.0317962646484375	5079.23545317616
0.163726806640625	-0.0308990478515625	5079.27970317605
0.16815185546875	-0.0300140380859375	5079.32395317594
0.172576904296875	-0.029150390625	5079.36820317583
0.177001953125	-0.028302001953125	5079.41245317572
0.181427001953125	-0.0274688720703125	5079.45670317561
0.18585205078125	-0.0266571044921875	5079.50095317549
0.190277099609375	-0.025860595703125	5079.54520317538
0.1947021484375	-0.0250823974609375	5079.58945317527
0.199127197265625	-0.0243194580078125	5079.63370317516
0.20355224609375	-0.023565673828125	5079.67795317505
0.207977294921875	-0.022833251953125	5079.72220317493
0.21240234375	-0.0221099853515625	5079.76645317482
0.216827392578125	-0.0214019775390625	5079.81070317471
0.22125244140625	-0.0207061767578125	5079.8549531746
0.225677490234375	-0.020025634765625	5079.89920317449
0.2301025390625	-0.019354248046875	5079.94345317438
0.234527587890625	-0.018695068359375	5079.98770317426
0.23895263671875	-0.0180450439453125	5080.03195317415
0.243377685546875	-0.0174072265625	5080.07620317404
0.247802734375	-0.01678466796875	5080.12045317393
0.252227783203125	-0.016168212890625	5080.16470317382
0.25665283203125	-0.01556396484375	5080.20895317371
0.261077880859375	-0.0149688720703125	5080.25320317359
0.2655029296875	-0.014385986328125	5080.29745317348
0.269927978515625	-0.0138153076171875	5080.34170317337
0.27435302734375	-0.013250732421875	5080.38595317326
0.278778076171875	-0.0126953125	5080.43020317315
0.283203125	-0.012152099609375	5080.47445317303
0.287628173828125	-0.0116119384765625	5080.51870317292
0.29205322265625	-0.0110809326171875	5080.56295317281
0.296478271484375	-0.010565185546875	5080.6072031727
0.3009033203125	-0.0100555419921875	5080.65145317259
0.305328369140625	-0.009552001953125	5080.69570317248
0.30975341796875	-0.0090576171875	5080.73995317236
0.314178466796875	-0.0085662841796875	5080.78420317225
0.318603515625	-0.0080841064453125	5080.82845317214
0.323028564453125	-0.0076141357421875	5080.87270317203
0.32745361328125	-0.007147216796875	5080.91695317192
0.331878662109375	-0.006689453125	5080.96120317181
0.3363037109375	-0.00623779296875	5081.00545317169
0.340728759765625	-0.005792236328125	5081.04970317158
0.34515380859375	-0.0053558349609375	5081.09395317147
0.349578857421875	-0.00492523193359375	5081.13820317136
0.35400390625	-0.0045025634765625	5081.18245317125
0.358428955078125	-0.00408447265625	5081.22670317114
0.36285400390625	-0.00367401123046875	5081.27095317102
0.367279052734375	-0.00326873779296875	5081.31520317091
0.3717041015625	-0.00287994384765625	5081.3594531708
0.376129150390625	-0.0024853515625	5081.40370317069
0.38055419921875	-0.00209625244140625	5081.44795317058
0.384979248046875	-0.00171356201171875	5081.49220317047
0.389404296875	-0.001336669921875	5081.53645317035
0.393829345703125	-0.00096588134765625	5081.58070317024
0.39825439453125	-0.0005999755859375	5081.62495317013
0.402679443359375	-0.00023956298828125	5081.66920317002
0.4071044921875	0.00011627197265625	5081.71345316991
0.411529541015625	0.000467193603515625	5081.75770316979
0.41595458984375	0.00081298828125	5081.80195316968
0.420379638671875	0.00115447998046875	5081.84620316957
0.4248046875	0.00149078369140625	5081.89045316946
0.429229736328125	0.0018218994140625	5081.93470316935
0.43365478515625	0.00214935302734375	5081.97895316924
0.438079833984375	0.00247161865234375	5082.02320316912
0.4425048828125	0.00278900146484375	5082.06745316901
0.446929931640625	0.0031011962890625	5082.1117031689
0.45135498046875	0.00340911865234375	5082.15595316879
0.455780029296875	0.00371185302734375	5082.20020316868
0.460205078125	0.0040106201171875	5082.24445316857
0.464630126953125	0.00430572509765625	5082.28870316845
0.46905517578125	0.0045953369140625	5082.33295316834
0.473480224609375	0.00488128662109375	5082.37720316823
0.4779052734375	0.00516265869140625	5082.42145316812
0.482330322265625	0.0054412841796875	5082.46570316801
0.48675537109375	0.00571533203125	5082.5099531679
0.491180419921875	0.0059857177734375	5082.55420316778
0.49560546875	0.00625213623046875	5082.59845316767
0.500030517578125	0.00650634765625	5082.64270316756
0.50445556640625	0.0067657470703125	5082.68695316745
0.508880615234375	0.00701904296875	5082.73120316734
0.5133056640625	0.0072723388671875	5082.77545316723
0.517730712890625	0.0075286865234375	5082.81970316711
0.52215576171875	0.00777587890625	5082.863953167
0.526580810546875	0.0080169677734375	5082.90820316689
0.531005859375	0.008258056640625	5082.95245316678
0.535430908203125	0.0084930419921875	5082.99670316667
0.53985595703125	0.0087249755859375	5083.04095316656
0.544281005859375	0.0089569091796875	5083.08520316644
0.5487060546875	0.0091827392578125	5083.12945316633
0.553131103515625	0.0094024658203125	5083.17370316622
0.55755615234375	0.0096221923828125	5083.21795316611
0.561981201171875	0.0098358154296875	5083.262203166
0.56640625	0.0100494384765625	5083.30645316588
0.570831298828125	0.0102630615234375	5083.35070316577
0.57525634765625	0.0104736328125	5083.39495316566
0.579681396484375	0.0106781005859375	5083.43920316555
0.5841064453125	0.010882568359375	5083.48345316544
0.588531494140625	0.0110748291015625	5083.52770316533
0.59295654296875	0.0112640380859375	5083.57195316521
0.597381591796875	0.0114654541015625	5083.6162031651
0.601806640625	0.011663818359375	5083.66045316499
0.606231689453125	0.011846923828125	5083.70470316488
0.61065673828125	0.0120269775390625	5083.74895316477
0.615081787109375	0.0122222900390625	5083.79320316466
0.6195068359375	0.01241455078125	5083.83745316454
0.623931884765625	0.012591552734375	5083.88170316443
0.62835693359375	0.012774658203125	5083.92595316432
0.632781982421875	0.0129486083984375	5083.97020316421
0.63720703125	0.0131195068359375	5084.0144531641
0.641632080078125	0.0132904052734375	5084.05870316399
0.64605712890625	0.0134613037109375	5084.10295316387
0.650482177734375	0.0136260986328125	5084.14720316376
0.6549072265625	0.013787841796875	5084.19145316365
0.659332275390625	0.01395263671875	5084.23570316354
0.66375732421875	0.014105224609375	5084.27995316343
0.668182373046875	0.0142669677734375	5084.32420316332
0.672607421875	0.014422607421875	5084.3684531632
0.677032470703125	0.0145721435546875	5084.41270316309
0.68145751953125	0.014727783203125	5084.45695316298
0.685882568359375	0.014874267578125	5084.50120316287
0.6903076171875	0.015020751953125	5084.54545316276
0.694732666015625	0.0151641845703125	5084.58970316264
0.69915771484375	0.0153106689453125	5084.63395316253
0.703582763671875	0.0154510498046875	5084.67820316242
0.7080078125	0.0155914306640625	5084.72245316231
0.712432861328125	0.01572265625	5084.7667031622
0.71685791015625	0.0158599853515625	5084.81095316209
0.721282958984375	0.015997314453125	5084.85520316197
0.7257080078125	0.0161285400390625	5084.89945316186
0.730133056640625	0.016259765625	5084.94370316175
0.73455810546875	0.016387939453125	5084.98795316164
0.738983154296875	0.01651611328125	5085.03220316153
0.743408203125	0.0166412353515625	5085.07645316142
0.747833251953125	0.016766357421875	5085.1207031613
0.75225830078125	0.0168914794921875	5085.16495316119
0.756683349609375	0.0170135498046875	5085.20920316108
0.7611083984375	0.017132568359375	5085.25345316097
0.765533447265625	0.01724853515625	5085.29770316086
0.76995849609375	0.017364501953125	5085.34195316075
0.774383544921875	0.0174774169921875	5085.38620316063
0.77880859375	0.0175933837890625	5085.43045316052
0.783233642578125	0.017706298828125	5085.47470316041
0.78765869140625	0.017816162109375	5085.5189531603
0.792083740234375	0.0179229736328125	5085.56320316019
0.7965087890625	0.0180328369140625	5085.60745316008
0.800933837890625	0.0181396484375	5085.65170315996
0.80535888671875	0.01824951171875	5085.69595315985
0.809783935546875	0.0183563232421875	5085.74020315974
0.814208984375	0.0184600830078125	5085.78445315963
0.818634033203125	0.018560791015625	5085.82870315952
0.82305908203125	0.01866455078125	5085.87295315941
0.827484130859375	0.01876220703125	5085.91720315929
0.8319091796875	0.0188629150390625	5085.96145315918
0.836334228515625	0.018963623046875	5086.00570315907
0.84075927734375	0.019061279296875	5086.04995315896
0.845184326171875	0.0191558837890625	5086.09420315885
0.849609375	0.0192535400390625	5086.13845315873
0.854034423828125	0.01934814453125	5086.18270315862
0.85845947265625	0.019439697265625	5086.22695315851
0.862884521484375	0.01953125	5086.2712031584
0.8673095703125	0.0196258544921875	5086.31545315829
0.871734619140625	0.01971435546875	5086.35970315818
0.87615966796875	0.019805908203125	5086.40395315806
0.880584716796875	0.0198974609375	5086.44820315795
0.885009765625	0.0199859619140625	5086.49245315784
0.889434814453125	0.0200714111328125	5086.53670315773
0.89385986328125	0.020159912109375	5086.58095315762
0.898284912109375	0.020245361328125	5086.62520315751
0.9027099609375	0.0203277587890625	5086.66945315739
0.907135009765625	0.0204132080078125	5086.71370315728
0.91156005859375	0.02049560546875	5086.75795315717
0.915985107421875	0.0205841064453125	5086.80220315706
0.92041015625	0.0206695556640625	5086.84645315695
0.924835205078125	0.020751953125	5086.89070315684
0.92926025390625	0.0208343505859375	5086.93495315672
0.933685302734375	0.0209197998046875	5086.97920315661
0.9381103515625	0.0210052490234375	5087.0234531565
0.942535400390625	0.021087646484375	5087.06770315639
0.94696044921875	0.0211700439453125	5087.11195315628
0.951385498046875	0.02125244140625	5087.15620315617
0.955810546875	0.021331787109375	5087.20045315605
0.960235595703125	0.0214141845703125	5087.24470315594
0.96466064453125	0.02149658203125	5087.28895315583
0.969085693359375	0.0215789794921875	5087.33320315572
0.9735107421875	0.0216583251953125	5087.37745315561
0.977935791015625	0.02174072265625	5087.42170315549
0.98236083984375	0.021820068359375	5087.46595315538
0.986785888671875	0.0218994140625	5087.51020315527
0.9912109375	0.021978759765625	5087.55445315516
0.995635986328125	0.0220672607421875	5087.59870315505
1.00006103515625	0.022149658203125	5087.64295315494
0.995635986328125	0.0213531494140625	5087.68720315482
0.9912109375	0.0205902099609375	5087.73145315471
0.986785888671875	0.019854736328125	5087.7757031546
0.98236083984375	0.0191375732421875	5087.81995315449
0.977935791015625	0.0184356689453125	5087.86420315438
0.9735107421875	0.017755126953125	5087.90845315427
0.969085693359375	0.0170928955078125	5087.95270315415
0.96466064453125	0.0164398193359375	5087.99695315404
0.960235595703125	0.0158050537109375	5088.04120315393
0.955810546875	0.015185546875	5088.08545315382
0.951385498046875	0.0145751953125	5088.12970315371
0.94696044921875	0.0139801025390625	5088.1739531536
0.942535400390625	0.013397216796875	5088.21820315348
0.9381103515625	0.0128204345703125	5088.26245315337
0.933685302734375	0.012255859375	5088.30670315326
0.92926025390625	0.0117034912109375	5088.35095315315
0.924835205078125	0.0111602783203125	5088.39520315304
0.92041015625	0.01063232421875	5088.43945315293
0.915985107421875	0.0101104736328125	5088.48370315281
0.91156005859375	0.0095977783203125	5088.5279531527
0.907135009765625	0.0090972900390625	5088.57220315259
0.9027099609375	0.008599853515625	5088.61645315248
0.898284912109375	0.0081146240234375	5088.66070315237
0.89385986328125	0.0076416015625	5088.70495315226
0.889434814453125	0.007171630859375	5088.74920315214
0.885009765625	0.006707763671875	5088.79345315203
0.880584716796875	0.0062530517578125	5088.83770315192
0.87615966796875	0.0058074951171875	5088.88195315181
0.871734619140625	0.0053680419921875	5088.9262031517
0.8673095703125	0.00493499755859375	5088.97045315158
0.862884521484375	0.00450897216796875	5089.01470315147
0.85845947265625	0.0040924072265625	5089.05895315136
0.854034423828125	0.003680419921875	5089.10320315125
0.849609375	0.00327545166015625	5089.14745315114
0.845184326171875	0.0028790283203125	5089.19170315103
0.84075927734375	0.0024847412109375	5089.23595315091
0.836334228515625	0.00209747314453125	5089.2802031508
0.8319091796875	0.00171600341796875	5089.32445315069
0.827484130859375	0.00134002685546875	5089.36870315058
0.82305908203125	0.00097015380859375	5089.41295315047
0.818634033203125	0.00060577392578125	5089.45720315036
0.814208984375	0.000246337890625	5089.50145315024
0.809783935546875	-0.00010723876953125	5089.54570315013
0.80535888671875	-0.00045574951171875	5089.58995315002
0.800933837890625	-0.0007989501953125	5089.63420314991
0.7965087890625	-0.00113677978515625	5089.6784531498
0.792083740234375	-0.0014697265625	5089.72270314969
0.78765869140625	-0.0017974853515625	5089.76695314957
0.783233642578125	-0.0021209716796875	5089.81120314946
0.77880859375	-0.00243896484375	5089.85545314935
0.774383544921875	-0.00275238037109375	5089.89970314924
0.76995849609375	-0.00306182861328125	5089.94395314913
0.765533447265625	-0.00336669921875	5089.98820314902
0.7611083984375	-0.0036663818359375	5090.0324531489
0.756683349609375	-0.00396270751953125	5090.07670314879
0.75225830078125	-0.0042547607421875	5090.12095314868
0.747833251953125	-0.0045428466796875	5090.16520314857
0.743408203125	-0.004825439453125	5090.20945314846
0.738983154296875	-0.0051031494140625	5090.25370314834
0.73455810546875	-0.005377197265625	5090.29795314823
0.730133056640625	-0.00564788818359375	5090.34220314812
0.7257080078125	-0.005914306640625	5090.38645314801
0.721282958984375	-0.0061773681640625	5090.4307031479
0.71685791015625	-0.006414794921875	5090.47495314779
0.712432861328125	-0.0066680908203125	5090.51920314767
0.7080078125	-0.00692138671875	5090.56345314756
0.703582763671875	-0.0071685791015625	5090.60770314745
0.69915771484375	-0.00740966796875	5090.65195314734
0.694732666015625	-0.0076507568359375	5090.69620314723
0.6903076171875	-0.0078826904296875	5090.74045314712
0.685882568359375	-0.00811767578125	5090.784703147
0.68145751953125	-0.008349609375	5090.82895314689
0.677032470703125	-0.008575439453125	5090.87320314678
0.672607421875	-0.0087982177734375	5090.91745314667
0.668182373046875	-0.00902099609375	5090.96170314656
0.66375732421875	-0.0092376708984375	5091.00595314645
0.659332275390625	-0.0094482421875	5091.05020314633
0.6549072265625	-0.009661865234375	5091.09445314622
0.650482177734375	-0.0098724365234375	5091.13870314611
0.64605712890625	-0.0100799560546875	5091.182953146
0.641632080078125	-0.010284423828125	5091.22720314589
0.63720703125	-0.01048583984375	5091.27145314578
0.632781982421875	-0.0106842041015625	5091.31570314566
0.62835693359375	-0.0108795166015625	5091.35995314555
0.623931884765625	-0.01107177734375	5091.40420314544
0.6195068359375	-0.0112579345703125	5091.44845314533
0.615081787109375	-0.011444091796875	5091.49270314522
0.61065673828125	-0.011627197265625	5091.53695314511
0.606231689453125	-0.0118133544921875	5091.58120314499
0.601806640625	-0.0119964599609375	5091.62545314488
0.597381591796875	-0.012176513671875	5091.66970314477
0.59295654296875	-0.012353515625	5091.71395314466
0.588531494140625	-0.0125244140625	5091.75820314455
0.5841064453125	-0.0126922607421875	5091.80245314443
0.579681396484375	-0.012860107421875	5091.84670314432
0.57525634765625	-0.0130340576171875	5091.89095314421
0.570831298828125	-0.0131988525390625	5091.9352031441
0.56640625	-0.013360595703125	5091.97945314399
0.561981201171875	-0.0135223388671875	5092.02370314388
0.55755615234375	-0.013677978515625	5092.06795314376
0.553131103515625	-0.0138336181640625	5092.11220314365
0.5487060546875	-0.0139923095703125	5092.15645314354
0.544281005859375	-0.014141845703125	5092.20070314343
0.53985595703125	-0.0142913818359375	5092.24495314332
0.535430908203125	-0.01444091796875	5092.28920314321
0.531005859375	-0.0145904541015625	5092.33345314309
0.526580810546875	-0.01473388671875	5092.37770314298
0.52215576171875	-0.014874267578125	5092.42195314287
0.517730712890625	-0.0150177001953125	5092.46620314276
0.5133056640625	-0.015155029296875	5092.51045314265
0.508880615234375	-0.0152923583984375	5092.55470314254
0.50445556640625	-0.0154296875	5092.59895314242
0.500030517578125	-0.01556396484375	5092.64320314231
0.49560546875	-0.0156982421875	5092.6874531422
0.491180419921875	-0.0158294677734375	5092.73170314209
0.48675537109375	-0.015960693359375	5092.77595314198
0.482330322265625	-0.0160919189453125	5092.82020314187
0.4779052734375	-0.0162200927734375	5092.86445314175
0.473480224609375	-0.016351318359375	5092.90870314164
0.46905517578125	-0.016473388671875	5092.95295314153
0.464630126953125	-0.016595458984375	5092.99720314142
0.460205078125	-0.0167205810546875	5093.04145314131
0.455780029296875	-0.016839599609375	5093.08570314119
0.45135498046875	-0.016961669921875	5093.12995314108
0.446929931640625	-0.017083740234375	5093.17420314097
0.4425048828125	-0.01719970703125	5093.21845314086
0.438079833984375	-0.017315673828125	5093.26270314075
0.43365478515625	-0.017431640625	5093.30695314064
0.429229736328125	-0.0175445556640625	5093.35120314052
0.4248046875	-0.01766357421875	5093.39545314041
0.420379638671875	-0.0177734375	5093.4397031403
0.41595458984375	-0.017889404296875	5093.48395314019
0.411529541015625	-0.017999267578125	5093.52820314008
0.4071044921875	-0.0181060791015625	5093.57245313997
0.402679443359375	-0.0182159423828125	5093.61670313985
0.39825439453125	-0.0183258056640625	5093.66095313974
0.393829345703125	-0.0184356689453125	5093.70520313963
0.389404296875	-0.018536376953125	5093.74945313952
0.384979248046875	-0.0186431884765625	5093.79370313941
0.38055419921875	-0.0187469482421875	5093.8379531393
0.376129150390625	-0.018853759765625	5093.88220313918
0.3717041015625	-0.01895751953125	5093.92645313907
0.367279052734375	-0.0190582275390625	5093.97070313896
0.36285400390625	-0.0191650390625	5094.01495313885
0.358428955078125	-0.0192626953125	5094.05920313874
0.35400390625	-0.019366455078125	5094.10345313862
0.349578857421875	-0.019464111328125	5094.14770313851
0.34515380859375	-0.0195587158203125	5094.1919531384
0.340728759765625	-0.019659423828125	5094.23620313829
0.3363037109375	-0.019757080078125	5094.28045313818
0.331878662109375	-0.019854736328125	5094.32470313807
0.32745361328125	-0.019952392578125	5094.36895313796
0.323028564453125	-0.020050048828125	5094.41320313784
0.318603515625	-0.020147705078125	5094.45745313773
0.314178466796875	-0.0202423095703125	5094.50170313762
0.30975341796875	-0.0203369140625	5094.54595313751
0.305328369140625	-0.020428466796875	5094.5902031374
0.3009033203125	-0.0205230712890625	5094.63445313728
0.296478271484375	-0.0206146240234375	5094.67870313717
0.29205322265625	-0.020709228515625	5094.72295313706
0.287628173828125	-0.0207977294921875	5094.76720313695
0.283203125	-0.0208892822265625	5094.81145313684
0.278778076171875	-0.02098388671875	5094.85570313673
0.27435302734375	-0.0210723876953125	5094.89995313661
0.269927978515625	-0.0211639404296875	5094.9442031365
0.2655029296875	-0.0212554931640625	5094.98845313639
0.261077880859375	-0.021343994140625	5095.03270313628
0.25665283203125	-0.021435546875	5095.07695313617
0.252227783203125	-0.02152099609375	5095.12120313606
0.247802734375	-0.0216094970703125	5095.16545313594
0.243377685546875	-0.0216949462890625	5095.20970313583
0.23895263671875	-0.02177734375	5095.25395313572
0.234527587890625	-0.0218597412109375	5095.29820313561
0.2301025390625	-0.0219451904296875	5095.3424531355
0.225677490234375	-0.022027587890625	5095.38670313539
0.22125244140625	-0.022113037109375	5095.43095313527
0.216827392578125	-0.0221954345703125	5095.47520313516
0.21240234375	-0.0222808837890625	5095.51945313505
0.207977294921875	-0.0223663330078125	5095.56370313494
0.20355224609375	-0.02244873046875	5095.60795313483
0.199127197265625	-0.0225311279296875	5095.65220313471
0.1947021484375	-0.0226104736328125	5095.6964531346
0.190277099609375	-0.0226898193359375	5095.74070313449
0.18585205078125	-0.0227691650390625	5095.78495313438
0.181427001953125	-0.0228485107421875	5095.82920313427
0.177001953125	-0.0229278564453125	5095.87345313416
0.172576904296875	-0.0230072021484375	5095.91770313404
0.16815185546875	-0.02308349609375	5095.96195313393
0.163726806640625	-0.0231597900390625	5096.00620313382
0.1593017578125	-0.0232391357421875	5096.05045313371
0.154876708984375	-0.0233123779296875	5096.0947031336
0.15045166015625	-0.023388671875	5096.13895313349
0.146026611328125	-0.0234619140625	5096.18320313337
0.1416015625	-0.02353515625	5096.22745313326
0.137176513671875	-0.0236083984375	5096.27170313315
0.13275146484375	-0.0236785888671875	5096.31595313304
0.128326416015625	-0.0237518310546875	5096.36020313293
0.1239013671875	-0.023828125	5096.40445313282
0.119476318359375	-0.0238983154296875	5096.4487031327
0.11505126953125	-0.0239715576171875	5096.49295313259
0.110626220703125	-0.0240386962890625	5096.53720313248
0.106201171875	-0.02410888671875	5096.58145313237
0.101776123046875	-0.0241790771484375	5096.62570313226
0.09735107421875	-0.0242462158203125	5096.66995313215
0.092926025390625	-0.02431640625	5096.71420313203
0.0885009765625	-0.024383544921875	5096.75845313192
0.084075927734375	-0.0244537353515625	5096.80270313181
0.07965087890625	-0.024517822265625	5096.8469531317
0.075225830078125	-0.0245819091796875	5096.89120313159
0.07080078125	-0.0246490478515625	5096.93545313147
0.066375732421875	-0.0247161865234375	5096.97970313136
0.06195068359375	-0.0247833251953125	5097.02395313125
0.057525634765625	-0.024847412109375	5097.06820313114
0.0531005859375	-0.0249114990234375	5097.11245313103
0.048675537109375	-0.0249755859375	5097.15670313092
0.04425048828125	-0.0250335693359375	5097.2009531308
0.039825439453125	-0.0251007080078125	5097.24520313069
0.035400390625	-0.025164794921875	5097.28945313058
0.030975341796875	-0.0252288818359375	5097.33370313047
0.02655029296875	-0.0252899169921875	5097.37795313036
0.022125244140625	-0.025347900390625	5097.42220313025
0.0177001953125	-0.0254119873046875	5097.46645313013
0.013275146484375	-0.02547607421875	5097.51070313002
0.00885009765625	-0.025537109375	5097.55495312991
0.004425048828125	-0.025592041015625	5097.5992031298
0	-0.0256561279296875	5097.64345312969
0.004425048828125	-0.0248382568359375	5097.68770312958
0.00885009765625	-0.0240478515625	5097.73195312946
0.013275146484375	-0.0232818603515625	5097.77620312935
0.0177001953125	-0.0225372314453125	5097.82045312924
0.022125244140625	-0.021807861328125	5097.86470312913
0.02655029296875	-0.0210968017578125	5097.90895312902
0.030975341796875	-0.0204010009765625	5097.95320312891
0.035400390625	-0.019720458984375	5097.99745312879
0.039825439453125	-0.0190521240234375	5098.04170312868
0.04425048828125	-0.01839599609375	5098.08595312857
0.048675537109375	-0.0177520751953125	5098.13020312846
0.0531005859375	-0.01712646484375	5098.17445312835
0.057525634765625	-0.0165069580078125	5098.21870312824
0.06195068359375	-0.0159027099609375	5098.26295312812
0.066375732421875	-0.0153076171875	5098.30720312801
0.07080078125	-0.0147216796875	5098.3514531279
0.075225830078125	-0.0141448974609375	5098.39570312779
0.07965087890625	-0.0135833740234375	5098.43995312768
0.084075927734375	-0.0130279541015625	5098.48420312756
0.0885009765625	-0.012481689453125	5098.52845312745
0.092926025390625	-0.011944580078125	5098.57270312734
0.09735107421875	-0.0114166259765625	5098.61695312723
0.101776123046875	-0.01090087890625	5098.66120312712
0.106201171875	-0.01038818359375	5098.70545312701
0.110626220703125	-0.0098876953125	5098.74970312689
0.11505126953125	-0.0093902587890625	5098.79395312678
0.119476318359375	-0.0089080810546875	5098.83820312667
0.1239013671875	-0.0084320068359375	5098.88245312656
0.128326416015625	-0.007958984375	5098.92670312645
0.13275146484375	-0.0074981689453125	5098.97095312634
0.137176513671875	-0.0070404052734375	5099.01520312622
0.1416015625	-0.006591796875	5099.05945312611
0.146026611328125	-0.0061492919921875	5099.103703126
0.15045166015625	-0.005712890625	5099.14795312589
0.154876708984375	-0.0052825927734375	5099.19220312578
0.1593017578125	-0.00486236572265625	5099.23645312567
0.163726806640625	-0.00444610595703125	5099.28070312555
0.16815185546875	-0.00403656005859375	5099.32495312544
0.172576904296875	-0.00363189697265625	5099.36920312533
0.177001953125	-0.00323394775390625	5099.41345312522
0.181427001953125	-0.002852783203125	5099.45770312511
0.18585205078125	-0.00246490478515625	5099.501953125
0.190277099609375	-0.0020831298828125	5099.54620312488
0.1947021484375	-0.0017071533203125	5099.59045312477
0.199127197265625	-0.00133697509765625	5099.63470312466
0.20355224609375	-0.0009722900390625	5099.67895312455
0.207977294921875	-0.00061248779296875	5099.72320312444
0.21240234375	-0.000256927490234375	5099.76745312432
0.216827392578125	9.2926025390625E-05	5099.81170312421
0.22125244140625	0.000437591552734375	5099.8559531241
0.225677490234375	0.0007781982421875	5099.90020312399
0.2301025390625	0.00111419677734375	5099.94445312388
0.234527587890625	0.00144378662109375	5099.98870312377
0.23895263671875	0.00177001953125	5100.03295312365
0.243377685546875	0.00209259033203125	5100.07720312354
0.247802734375	0.00240966796875	5100.12145312343
0.252227783203125	0.00272125244140625	5100.16570312332
0.25665283203125	0.0030303955078125	5100.20995312321
0.261077880859375	0.00333526611328125	5100.2542031231
0.2655029296875	0.00363372802734375	5100.29845312298
0.269927978515625	0.0039288330078125	5100.34270312287
0.27435302734375	0.0042193603515625	5100.38695312276
0.278778076171875	0.00450653076171875	5100.43120312265
0.283203125	0.0047894287109375	5100.47545312254
0.287628173828125	0.0050689697265625	5100.51970312243
0.29205322265625	0.00534393310546875	5100.56395312231
0.296478271484375	0.0056158447265625	5100.6082031222
0.3009033203125	0.00588348388671875	5100.65245312209
0.305328369140625	0.0061468505859375	5100.69670312198
0.30975341796875	0.006396484375	5100.74095312187
0.314178466796875	0.006658935546875	5100.78520312176
0.318603515625	0.0069091796875	5100.82945312164
0.323028564453125	0.007159423828125	5100.87370312153
0.32745361328125	0.007403564453125	5100.91795312142
0.331878662109375	0.007647705078125	5100.96220312131
0.3363037109375	0.0078826904296875	5101.0064531212
0.340728759765625	0.0081207275390625	5101.05070312109
0.34515380859375	0.008355712890625	5101.09495312097
0.349578857421875	0.0085845947265625	5101.13920312086
0.35400390625	0.008807373046875	5101.18345312075
0.358428955078125	0.009033203125	5101.22770312064
0.36285400390625	0.0092529296875	5101.27195312053
0.367279052734375	0.0094696044921875	5101.31620312041
0.3717041015625	0.009686279296875	5101.3604531203
0.376129150390625	0.00989990234375	5101.40470312019
0.38055419921875	0.0101104736328125	5101.44895312008
0.384979248046875	0.0103179931640625	5101.49320311997
0.389404296875	0.0105224609375	5101.53745311986
0.393829345703125	0.010723876953125	5101.58170311974
0.39825439453125	0.0109222412109375	5101.62595311963
0.402679443359375	0.0111175537109375	5101.67020311952
0.4071044921875	0.0113128662109375	5101.71445311941
0.411529541015625	0.011505126953125	5101.7587031193
0.41595458984375	0.0116973876953125	5101.80295311919
0.420379638671875	0.0118804931640625	5101.84720311907
0.4248046875	0.012066650390625	5101.89145311896
0.429229736328125	0.0122528076171875	5101.93570311885
0.43365478515625	0.0124359130859375	5101.97995311874
0.438079833984375	0.012615966796875	5102.02420311863
0.4425048828125	0.01279296875	5102.06845311852
0.446929931640625	0.0129669189453125	5102.1127031184
0.45135498046875	0.0131378173828125	5102.15695311829
0.455780029296875	0.0133056640625	5102.20120311818
0.460205078125	0.013470458984375	5102.24545311807
0.464630126953125	0.0136383056640625	5102.28970311796
0.46905517578125	0.013800048828125	5102.33395311785
0.473480224609375	0.0139617919921875	5102.37820311773
0.4779052734375	0.0141143798828125	5102.42245311762
0.482330322265625	0.0142730712890625	5102.46670311751
0.48675537109375	0.0144317626953125	5102.5109531174
0.491180419921875	0.0145904541015625	5102.55520311729
0.49560546875	0.0147430419921875	5102.59945311717
0.500030517578125	0.014886474609375	5102.64370311706
0.50445556640625	0.0150421142578125	5102.68795311695
0.508880615234375	0.01519775390625	5102.73220311684
0.5133056640625	0.0153472900390625	5102.77645311673
0.517730712890625	0.0154937744140625	5102.82070311662
0.52215576171875	0.015631103515625	5102.8649531165
0.526580810546875	0.015771484375	5102.90920311639
0.531005859375	0.0159088134765625	5102.95345311628
0.535430908203125	0.016046142578125	5102.99770311617
0.53985595703125	0.0161865234375	5103.04195311606
0.544281005859375	0.01632080078125	5103.08620311595
0.5487060546875	0.0164520263671875	5103.13045311583
0.553131103515625	0.016583251953125	5103.17470311572
0.55755615234375	0.01671142578125	5103.21895311561
0.561981201171875	0.016839599609375	5103.2632031155
0.56640625	0.0169677734375	5103.30745311539
0.570831298828125	0.017095947265625	5103.35170311528
0.57525634765625	0.0172149658203125	5103.39595311516
0.579681396484375	0.0173370361328125	5103.44020311505
0.5841064453125	0.0174591064453125	5103.48445311494
0.588531494140625	0.017578125	5103.52870311483
0.59295654296875	0.0177001953125	5103.57295311472
0.597381591796875	0.0178131103515625	5103.61720311461
0.601806640625	0.0179290771484375	5103.66145311449
0.606231689453125	0.0180450439453125	5103.70570311438
0.61065673828125	0.0181610107421875	5103.74995311427
0.615081787109375	0.01827392578125	5103.79420311416
0.6195068359375	0.0183837890625	5103.83845311405
0.623931884765625	0.0184967041015625	5103.88270311394
0.62835693359375	0.0186065673828125	5103.92695311382
0.632781982421875	0.0187164306640625	5103.97120311371
0.63720703125	0.0188201904296875	5104.0154531136
0.641632080078125	0.0189300537109375	5104.05970311349
0.64605712890625	0.01903076171875	5104.10395311338
0.650482177734375	0.019134521484375	5104.14820311326
0.6549072265625	0.01923828125	5104.19245311315
0.659332275390625	0.0193359375	5104.23670311304
0.66375732421875	0.0194366455078125	5104.28095311293
0.668182373046875	0.01953125	5104.32520311282
0.672607421875	0.01962890625	5104.36945311271
0.677032470703125	0.0197265625	5104.41370311259
0.68145751953125	0.019818115234375	5104.45795311248
0.685882568359375	0.0199127197265625	5104.50220311237
0.6903076171875	0.0200042724609375	5104.54645311226
0.694732666015625	0.020098876953125	5104.59070311215
0.69915771484375	0.0201873779296875	5104.63495311204
0.703582763671875	0.02027587890625	5104.67920311192
0.7080078125	0.0203582763671875	5104.72345311181
0.712432861328125	0.02044677734375	5104.7677031117
0.71685791015625	0.0205291748046875	5104.81195311159
0.721282958984375	0.0206146240234375	5104.85620311148
0.7257080078125	0.0207000732421875	5104.90045311137
0.730133056640625	0.0207855224609375	5104.94470311125
0.73455810546875	0.020867919921875	5104.98895311114
0.738983154296875	0.0209503173828125	5105.03320311103
0.743408203125	0.021026611328125	5105.07745311092
0.747833251953125	0.02110595703125	5105.12170311081
0.75225830078125	0.02117919921875	5105.1659531107
0.756683349609375	0.021258544921875	5105.21020311058
0.7611083984375	0.0213348388671875	5105.25445311047
0.765533447265625	0.0214080810546875	5105.29870311036
0.76995849609375	0.021484375	5105.34295311025
0.774383544921875	0.0215606689453125	5105.38720311014
0.77880859375	0.021630859375	5105.43145311002
0.783233642578125	0.0217010498046875	5105.47570310991
0.78765869140625	0.0217742919921875	5105.5199531098
0.792083740234375	0.0218414306640625	5105.56420310969
0.7965087890625	0.0219085693359375	5105.60845310958
0.800933837890625	0.0219757080078125	5105.65270310947
0.80535888671875	0.0220458984375	5105.69695310935
0.809783935546875	0.022113037109375	5105.74120310924
0.814208984375	0.0221771240234375	5105.78545310913
0.818634033203125	0.0222442626953125	5105.82970310902
0.82305908203125	0.0223114013671875	5105.87395310891
0.827484130859375	0.0223724365234375	5105.9182031088
0.8319091796875	0.0224334716796875	5105.96245310868
0.836334228515625	0.0225006103515625	5106.00670310857
0.84075927734375	0.0225616455078125	5106.05095310846
0.845184326171875	0.02261962890625	5106.09520310835
0.849609375	0.0226806640625	5106.13945310824
0.854034423828125	0.0227447509765625	5106.18370310812
0.85845947265625	0.0228057861328125	5106.22795310801
0.862884521484375	0.02286376953125	5106.2722031079
0.8673095703125	0.0229217529296875	5106.31645310779
0.871734619140625	0.022979736328125	5106.36070310768
0.87615966796875	0.0230377197265625	5106.40495310757
0.880584716796875	0.023095703125	5106.44920310746
0.885009765625	0.0231536865234375	5106.49345310734
0.889434814453125	0.023211669921875	5106.53770310723
0.89385986328125	0.0232666015625	5106.58195310712
0.898284912109375	0.0233245849609375	5106.62620310701
0.9027099609375	0.02337646484375	5106.6704531069
0.907135009765625	0.023431396484375	5106.71470310679
0.91156005859375	0.023486328125	5106.75895310667
0.915985107421875	0.0235443115234375	5106.80320310656
0.92041015625	0.02359619140625	5106.84745310645
0.924835205078125	0.023651123046875	5106.89170310634
0.92926025390625	0.0237091064453125	5106.93595310623
0.933685302734375	0.0237579345703125	5106.98020310611
0.9381103515625	0.02381591796875	5107.024453106
0.942535400390625	0.023870849609375	5107.06870310589
0.94696044921875	0.0239227294921875	5107.11295310578
0.951385498046875	0.0239776611328125	5107.15720310567
0.955810546875	0.0240325927734375	5107.20145310556
0.960235595703125	0.02408447265625	5107.24570310544
0.96466064453125	0.024139404296875	5107.28995310533
0.969085693359375	0.0241973876953125	5107.33420310522
0.9735107421875	0.0242523193359375	5107.37845310511
0.977935791015625	0.02430419921875	5107.422703105
0.98236083984375	0.024359130859375	5107.46695310489
0.986785888671875	0.0244110107421875	5107.51120310477
0.9912109375	0.024468994140625	5107.55545310466
0.995635986328125	0.0245208740234375	5107.59970310455
1.00006103515625	0.024578857421875	5107.64395310444
0.995635986328125	0.0237548828125	5107.68820310433
0.9912109375	0.022967529296875	5107.73245310421
0.986785888671875	0.0222015380859375	5107.7767031041
0.98236083984375	0.0214508056640625	5107.82095310399
0.977935791015625	0.0207275390625	5107.86520310388
0.9735107421875	0.0200225830078125	5107.90945310377
0.969085693359375	0.0193328857421875	5107.95370310366
0.96466064453125	0.018658447265625	5107.99795310355
0.960235595703125	0.0179962158203125	5108.04220310343
0.955810546875	0.01734619140625	5108.08645310332
0.951385498046875	0.0167144775390625	5108.13070310321
0.94696044921875	0.016094970703125	5108.1749531031
0.942535400390625	0.0154876708984375	5108.21920310299
0.9381103515625	0.014892578125	5108.26345310287
0.933685302734375	0.014300537109375	5108.30770310276
0.92926025390625	0.013726806640625	5108.35195310265
0.924835205078125	0.013165283203125	5108.39620310254
0.92041015625	0.01260986328125	5108.44045310243
0.915985107421875	0.012066650390625	5108.48470310232
0.91156005859375	0.0115325927734375	5108.5289531022
0.907135009765625	0.0110076904296875	5108.57320310209
0.9027099609375	0.010491943359375	5108.61745310198
0.898284912109375	0.0099853515625	5108.66170310187
0.89385986328125	0.00948486328125	5108.70595310176
0.889434814453125	0.0089996337890625	5108.75020310165
0.885009765625	0.0085174560546875	5108.79445310153
0.880584716796875	0.00804443359375	5108.83870310142
0.87615966796875	0.00758056640625	5108.88295310131
0.871734619140625	0.0071197509765625	5108.9272031012
0.8673095703125	0.0066680908203125	5108.97145310109
0.862884521484375	0.0062255859375	5109.01570310097
0.85845947265625	0.0057891845703125	5109.05995310086
0.854034423828125	0.00535888671875	5109.10420310075
0.849609375	0.004935302734375	5109.14845310064
0.845184326171875	0.00451812744140625	5109.19270310053
0.84075927734375	0.00410736083984375	5109.23695310042
0.836334228515625	0.00370513916015625	5109.2812031003
0.8319091796875	0.00330718994140625	5109.32545310019
0.827484130859375	0.002918701171875	5109.36970310008
0.82305908203125	0.0025323486328125	5109.41395309997
0.818634033203125	0.00215240478515625	5109.45820309986
0.814208984375	0.00177703857421875	5109.50245309975
0.809783935546875	0.00140869140625	5109.54670309964
0.80535888671875	0.001044921875	5109.59095309952
0.800933837890625	0.00068634033203125	5109.63520309941
0.7965087890625	0.00033319091796875	5109.6794530993
0.792083740234375	-1.4935302734375E-05	5109.72370309919
0.78765869140625	-0.000357879638671875	5109.76795309908
0.783233642578125	-0.00069488525390625	5109.81220309896
0.77880859375	-0.00102630615234375	5109.85645309885
0.774383544921875	-0.001353759765625	5109.90070309874
0.76995849609375	-0.00167633056640625	5109.94495309863
0.765533447265625	-0.0019952392578125	5109.98920309852
0.7611083984375	-0.00230865478515625	5110.03345309841
0.756683349609375	-0.00261749267578125	5110.07770309829
0.75225830078125	-0.0029229736328125	5110.12195309818
0.747833251953125	-0.00322296142578125	5110.16620309807
0.743408203125	-0.003519287109375	5110.21045309796
0.738983154296875	-0.00380889892578125	5110.25470309785
0.73455810546875	-0.0040966796875	5110.29895309774
0.730133056640625	-0.00438018798828125	5110.34320309762
0.7257080078125	-0.00465911865234375	5110.38745309751
0.721282958984375	-0.0049334716796875	5110.4317030974
0.71685791015625	-0.0052044677734375	5110.47595309729
0.712432861328125	-0.00547119140625	5110.52020309718
0.7080078125	-0.005736083984375	5110.56445309706
0.703582763671875	-0.005994873046875	5110.60870309695
0.69915771484375	-0.00625	5110.65295309684
0.694732666015625	-0.0064788818359375	5110.69720309673
0.6903076171875	-0.0067291259765625	5110.74145309662
0.685882568359375	-0.006976318359375	5110.78570309651
0.68145751953125	-0.00721435546875	5110.8299530964
0.677032470703125	-0.007452392578125	5110.87420309628
0.672607421875	-0.0076873779296875	5110.91845309617
0.668182373046875	-0.007916259765625	5110.96270309606
0.66375732421875	-0.0081451416015625	5111.00695309595
0.659332275390625	-0.0083709716796875	5111.05120309584
0.6549072265625	-0.0085906982421875	5111.09545309572
0.650482177734375	-0.008807373046875	5111.13970309561
0.64605712890625	-0.0090240478515625	5111.1839530955
0.641632080078125	-0.0092376708984375	5111.22820309539
0.63720703125	-0.0094451904296875	5111.27245309528
0.632781982421875	-0.0096527099609375	5111.31670309517
0.62835693359375	-0.009857177734375	5111.36095309505
0.623931884765625	-0.0100616455078125	5111.40520309494
0.6195068359375	-0.010260009765625	5111.44945309483
0.615081787109375	-0.010455322265625	5111.49370309472
0.61065673828125	-0.010650634765625	5111.53795309461
0.606231689453125	-0.0108428955078125	5111.5822030945
0.601806640625	-0.011029052734375	5111.62645309438
0.597381591796875	-0.01121826171875	5111.67070309427
0.59295654296875	-0.0114044189453125	5111.71495309416
0.588531494140625	-0.01158447265625	5111.75920309405
0.5841064453125	-0.011761474609375	5111.80345309394
0.579681396484375	-0.0119384765625	5111.84770309382
0.57525634765625	-0.012109375	5111.89195309371
0.570831298828125	-0.0122833251953125	5111.9362030936
0.56640625	-0.012451171875	5111.98045309349
0.561981201171875	-0.0126220703125	5112.02470309338
0.55755615234375	-0.0127899169921875	5112.06895309327
0.553131103515625	-0.0129547119140625	5112.11320309315
0.5487060546875	-0.0131195068359375	5112.15745309304
0.544281005859375	-0.0132781982421875	5112.20170309293
0.53985595703125	-0.0134368896484375	5112.24595309282
0.535430908203125	-0.0135986328125	5112.29020309271
0.531005859375	-0.01375732421875	5112.3344530926
0.526580810546875	-0.0139129638671875	5112.37870309249
0.52215576171875	-0.0140625	5112.42295309237
0.517730712890625	-0.014208984375	5112.46720309226
0.5133056640625	-0.0143585205078125	5112.51145309215
0.508880615234375	-0.014508056640625	5112.55570309204
0.50445556640625	-0.014654541015625	5112.59995309193
0.500030517578125	-0.0147979736328125	5112.64420309181
0.49560546875	-0.0149383544921875	5112.6884530917
0.491180419921875	-0.01507568359375	5112.73270309159
0.48675537109375	-0.0152130126953125	5112.77695309148
0.482330322265625	-0.015350341796875	5112.82120309137
0.4779052734375	-0.015484619140625	5112.86545309126
0.473480224609375	-0.0156158447265625	5112.90970309114
0.46905517578125	-0.0157470703125	5112.95395309103
0.464630126953125	-0.0158782958984375	5112.99820309092
0.460205078125	-0.0160064697265625	5113.04245309081
0.455780029296875	-0.0161376953125	5113.0867030907
0.45135498046875	-0.0162628173828125	5113.13095309059
0.446929931640625	-0.016387939453125	5113.17520309047
0.4425048828125	-0.01651611328125	5113.21945309036
0.438079833984375	-0.01663818359375	5113.26370309025
0.43365478515625	-0.01676025390625	5113.30795309014
0.429229736328125	-0.01688232421875	5113.35220309003
0.4248046875	-0.0170074462890625	5113.39645308991
0.420379638671875	-0.0171234130859375	5113.4407030898
0.41595458984375	-0.017236328125	5113.48495308969
0.411529541015625	-0.0173553466796875	5113.52920308958
0.4071044921875	-0.01746826171875	5113.57345308947
0.402679443359375	-0.017584228515625	5113.61770308936
0.39825439453125	-0.0176971435546875	5113.66195308924
0.393829345703125	-0.01781005859375	5113.70620308913
0.389404296875	-0.0179229736328125	5113.75045308902
0.384979248046875	-0.0180328369140625	5113.79470308891
0.38055419921875	-0.018145751953125	5113.8389530888
0.376129150390625	-0.0182525634765625	5113.88320308869
0.3717041015625	-0.018365478515625	5113.92745308857
0.367279052734375	-0.0184722900390625	5113.97170308846
0.36285400390625	-0.0185791015625	5114.01595308835
0.358428955078125	-0.018682861328125	5114.06020308824
0.35400390625	-0.0187896728515625	5114.10445308813
0.349578857421875	-0.0188934326171875	5114.14870308802
0.34515380859375	-0.0189971923828125	5114.1929530879
0.340728759765625	-0.0191009521484375	5114.23720308779
0.3363037109375	-0.0192047119140625	5114.28145308768
0.331878662109375	-0.0193084716796875	5114.32570308757
0.32745361328125	-0.0194122314453125	5114.36995308746
0.323028564453125	-0.0195098876953125	5114.41420308735
0.318603515625	-0.019610595703125	5114.45845308723
0.314178466796875	-0.0197113037109375	5114.50270308712
0.30975341796875	-0.0198150634765625	5114.54695308701
0.305328369140625	-0.0199127197265625	5114.5912030869
0.3009033203125	-0.020013427734375	5114.63545308679
0.296478271484375	-0.020111083984375	5114.67970308667
0.29205322265625	-0.020208740234375	5114.72395308656
0.287628173828125	-0.0203033447265625	5114.76820308645
0.283203125	-0.0203948974609375	5114.81245308634
0.278778076171875	-0.020489501953125	5114.85670308623
0.27435302734375	-0.020587158203125	5114.90095308612
0.269927978515625	-0.0206787109375	5114.945203086
0.2655029296875	-0.0207733154296875	5114.98945308589
0.261077880859375	-0.020867919921875	5115.03370308578
0.25665283203125	-0.02095947265625	5115.07795308567
0.252227783203125	-0.021051025390625	5115.12220308556
0.247802734375	-0.021142578125	5115.16645308545
0.243377685546875	-0.0212310791015625	5115.21070308533
0.23895263671875	-0.0213226318359375	5115.25495308522
0.234527587890625	-0.0214111328125	5115.29920308511
0.2301025390625	-0.0214996337890625	5115.343453085
0.225677490234375	-0.021588134765625	5115.38770308489
0.22125244140625	-0.021673583984375	5115.43195308478
0.216827392578125	-0.0217620849609375	5115.47620308466
0.21240234375	-0.0218475341796875	5115.52045308455
0.207977294921875	-0.0219329833984375	5115.56470308444
0.20355224609375	-0.0220184326171875	5115.60895308433
0.199127197265625	-0.0221038818359375	5115.65320308422
0.1947021484375	-0.0221893310546875	5115.69745308411
0.190277099609375	-0.0222747802734375	5115.74170308399
0.18585205078125	-0.0223541259765625	5115.78595308388
0.181427001953125	-0.0224334716796875	5115.83020308377
0.177001953125	-0.022515869140625	5115.87445308366
0.172576904296875	-0.0225982666015625	5115.91870308355
0.16815185546875	-0.022674560546875	5115.96295308344
0.163726806640625	-0.02275390625	5116.00720308332
0.1593017578125	-0.022833251953125	5116.05145308321
0.154876708984375	-0.02291259765625	5116.0957030831
0.15045166015625	-0.0229888916015625	5116.13995308299
0.146026611328125	-0.0230682373046875	5116.18420308288
0.1416015625	-0.02314453125	5116.22845308276
0.137176513671875	-0.0232177734375	5116.27270308265
0.13275146484375	-0.0232940673828125	5116.31695308254
0.128326416015625	-0.0233673095703125	5116.36120308243
0.1239013671875	-0.0234375	5116.40545308232
0.119476318359375	-0.0235076904296875	5116.44970308221
0.11505126953125	-0.023577880859375	5116.49395308209
0.110626220703125	-0.0236480712890625	5116.53820308198
0.106201171875	-0.02371826171875	5116.58245308187
0.101776123046875	-0.02379150390625	5116.62670308176
0.09735107421875	-0.02386474609375	5116.67095308165
0.092926025390625	-0.023931884765625	5116.71520308154
0.0885009765625	-0.024005126953125	5116.75945308142
0.084075927734375	-0.024072265625	5116.80370308131
0.07965087890625	-0.024139404296875	5116.8479530812
0.075225830078125	-0.0242034912109375	5116.89220308109
0.07080078125	-0.0242706298828125	5116.93645308098
0.066375732421875	-0.024334716796875	5116.98070308087
0.06195068359375	-0.0243988037109375	5117.02495308075
0.057525634765625	-0.024462890625	5117.06920308064
0.0531005859375	-0.0245269775390625	5117.11345308053
0.048675537109375	-0.024591064453125	5117.15770308042
0.04425048828125	-0.024658203125	5117.20195308031
0.039825439453125	-0.0247222900390625	5117.2462030802
0.035400390625	-0.0247833251953125	5117.29045308008
0.030975341796875	-0.024847412109375	5117.33470307997
0.02655029296875	-0.024908447265625	5117.37895307986
0.022125244140625	-0.0249664306640625	5117.42320307975
0.0177001953125	-0.0250244140625	5117.46745307964
0.013275146484375	-0.02508544921875	5117.51170307952
0.00885009765625	-0.0251434326171875	5117.55595307941
0.004425048828125	-0.025201416015625	5117.6002030793
0	-0.0252593994140625	5117.64445307919
0.004425048828125	-0.024444580078125	5117.68870307908
0.00885009765625	-0.0236572265625	5117.73295307897
0.013275146484375	-0.0228912353515625	5117.77720307885
0.0177001953125	-0.0221435546875	5117.82145307874
0.022125244140625	-0.0214111328125	5117.86570307863
0.02655029296875	-0.0207000732421875	5117.90995307852
0.030975341796875	-0.0200103759765625	5117.95420307841
0.035400390625	-0.019329833984375	5117.9984530783
0.039825439453125	-0.0186614990234375	5118.04270307818
0.04425048828125	-0.0180023193359375	5118.08695307807
0.048675537109375	-0.0173583984375	5118.13120307796
0.0531005859375	-0.0167327880859375	5118.17545307785
0.057525634765625	-0.016119384765625	5118.21970307774
0.06195068359375	-0.01551513671875	5118.26395307763
0.066375732421875	-0.0149169921875	5118.30820307751
0.07080078125	-0.0143341064453125	5118.3524530774
0.075225830078125	-0.013763427734375	5118.39670307729
0.07965087890625	-0.0131988525390625	5118.44095307718
0.084075927734375	-0.0126434326171875	5118.48520307707
0.0885009765625	-0.012103271484375	5118.52945307696
0.092926025390625	-0.011566162109375	5118.57370307684
0.09735107421875	-0.011041259765625	5118.61795307673
0.101776123046875	-0.0105255126953125	5118.66220307662
0.106201171875	-0.010015869140625	5118.70645307651
0.110626220703125	-0.0095123291015625	5118.7507030764
0.11505126953125	-0.009027099609375	5118.79495307629
0.119476318359375	-0.0085418701171875	5118.83920307617
0.1239013671875	-0.008062744140625	5118.88345307606
0.128326416015625	-0.007598876953125	5118.92770307595
0.13275146484375	-0.007135009765625	5118.97195307584
0.137176513671875	-0.0066802978515625	5119.01620307573
0.1416015625	-0.0062347412109375	5119.06045307561
0.146026611328125	-0.005792236328125	5119.1047030755
0.15045166015625	-0.00535888671875	5119.14895307539
0.154876708984375	-0.004932861328125	5119.19320307528
0.1593017578125	-0.00451416015625	5119.23745307517
0.163726806640625	-0.00410003662109375	5119.28170307506
0.16815185546875	-0.00369293212890625	5119.32595307494
0.172576904296875	-0.003291015625	5119.37020307483
0.177001953125	-0.002906494140625	5119.41445307472
0.181427001953125	-0.00251495361328125	5119.45870307461
0.18585205078125	-0.00213043212890625	5119.5029530745
0.190277099609375	-0.001751708984375	5119.54720307439
0.1947021484375	-0.0013787841796875	5119.59145307427
0.199127197265625	-0.00101104736328125	5119.63570307416
0.20355224609375	-0.000648193359375	5119.67995307405
0.207977294921875	-0.0002913818359375	5119.72420307394
0.21240234375	6.085205078125E-05	5119.76845307383
0.216827392578125	0.000407958984375	5119.81270307372
0.22125244140625	0.000750732421875	5119.8569530736
0.225677490234375	0.0010888671875	5119.90120307349
0.2301025390625	0.0014227294921875	5119.94545307338
0.234527587890625	0.00175018310546875	5119.98970307327
0.23895263671875	0.002073974609375	5120.03395307316
0.243377685546875	0.0023931884765625	5120.07820307305
0.247802734375	0.0027069091796875	5120.12245307293
0.252227783203125	0.00301788330078125	5120.16670307282
0.25665283203125	0.0033233642578125	5120.21095307271
0.261077880859375	0.003624267578125	5120.2552030726
0.2655029296875	0.00392059326171875	5120.29945307249
0.269927978515625	0.0042132568359375	5120.34370307237
0.27435302734375	0.00450164794921875	5120.38795307226
0.278778076171875	0.00478607177734375	5120.43220307215
0.283203125	0.0050665283203125	5120.47645307204
0.287628173828125	0.00534332275390625	5120.52070307193
0.29205322265625	0.00561614990234375	5120.56495307182
0.296478271484375	0.00588531494140625	5120.6092030717
0.3009033203125	0.00615081787109375	5120.65345307159
0.305328369140625	0.006402587890625	5120.69770307148
0.30975341796875	0.0066619873046875	5120.74195307137
0.314178466796875	0.0069183349609375	5120.78620307126
0.318603515625	0.00716552734375	5120.83045307115
0.323028564453125	0.0074127197265625	5120.87470307103
0.32745361328125	0.0076568603515625	5120.91895307092
0.331878662109375	0.007891845703125	5120.96320307081
0.3363037109375	0.0081329345703125	5121.0074530707
0.340728759765625	0.008367919921875	5121.05170307059
0.34515380859375	0.008599853515625	5121.09595307048
0.349578857421875	0.00882568359375	5121.14020307036
0.35400390625	0.0090484619140625	5121.18445307025
0.358428955078125	0.009271240234375	5121.22870307014
0.36285400390625	0.0094879150390625	5121.27295307003
0.367279052734375	0.00970458984375	5121.31720306992
0.3717041015625	0.009918212890625	5121.36145306981
0.376129150390625	0.0101287841796875	5121.40570306969
0.38055419921875	0.0103363037109375	5121.44995306958
0.384979248046875	0.0105438232421875	5121.49420306947
0.389404296875	0.010748291015625	5121.53845306936
0.393829345703125	0.010943603515625	5121.58270306925
0.39825439453125	0.011138916015625	5121.62695306914
0.402679443359375	0.0113372802734375	5121.67120306902
0.4071044921875	0.011529541015625	5121.71545306891
0.411529541015625	0.01171875	5121.7597030688
0.41595458984375	0.0119049072265625	5121.80395306869
0.420379638671875	0.012091064453125	5121.84820306858
0.4248046875	0.012274169921875	5121.89245306846
0.429229736328125	0.012457275390625	5121.93670306835
0.43365478515625	0.01263427734375	5121.98095306824
0.438079833984375	0.012811279296875	5122.02520306813
0.4425048828125	0.0129852294921875	5122.06945306802
0.446929931640625	0.0131591796875	5122.11370306791
0.45135498046875	0.0133270263671875	5122.15795306779
0.455780029296875	0.0134918212890625	5122.20220306768
0.460205078125	0.013653564453125	5122.24645306757
0.464630126953125	0.013812255859375	5122.29070306746
0.46905517578125	0.0139739990234375	5122.33495306735
0.473480224609375	0.0141326904296875	5122.37920306724
0.4779052734375	0.014300537109375	5122.42345306712
0.482330322265625	0.0144561767578125	5122.46770306701
0.48675537109375	0.014605712890625	5122.5119530669
0.491180419921875	0.014764404296875	5122.55620306679
0.49560546875	0.0149261474609375	5122.60045306668
0.500030517578125	0.0150787353515625	5122.64470306657
0.50445556640625	0.0152252197265625	5122.68895306645
0.508880615234375	0.01536865234375	5122.73320306634
0.5133056640625	0.01551513671875	5122.77745306623
0.517730712890625	0.0156524658203125	5122.82170306612
0.52215576171875	0.0157928466796875	5122.86595306601
0.526580810546875	0.0159332275390625	5122.9102030659
0.531005859375	0.0160675048828125	5122.95445306578
0.535430908203125	0.016204833984375	5122.99870306567
0.53985595703125	0.016339111328125	5123.04295306556
0.544281005859375	0.016473388671875	5123.08720306545
0.5487060546875	0.0166046142578125	5123.13145306534
0.553131103515625	0.01673583984375	5123.17570306522
0.55755615234375	0.0168670654296875	5123.21995306511
0.561981201171875	0.0169952392578125	5123.264203065
0.56640625	0.0171173095703125	5123.30845306489
0.570831298828125	0.017236328125	5123.35270306478
0.57525634765625	0.0173614501953125	5123.39695306467
0.579681396484375	0.0174835205078125	5123.44120306455
0.5841064453125	0.0176055908203125	5123.48545306444
0.588531494140625	0.0177215576171875	5123.52970306433
0.59295654296875	0.017840576171875	5123.57395306422
0.597381591796875	0.0179595947265625	5123.61820306411
0.601806640625	0.018072509765625	5123.662453064
0.606231689453125	0.0181854248046875	5123.70670306388
0.61065673828125	0.0183013916015625	5123.75095306377
0.615081787109375	0.0184112548828125	5123.79520306366
0.6195068359375	0.018524169921875	5123.83945306355
0.623931884765625	0.0186309814453125	5123.88370306344
0.62835693359375	0.018743896484375	5123.92795306333
0.632781982421875	0.0188507080078125	5123.97220306321
0.63720703125	0.0189544677734375	5124.0164530631
0.641632080078125	0.01905517578125	5124.06070306299
0.64605712890625	0.019158935546875	5124.10495306288
0.650482177734375	0.0192626953125	5124.14920306277
0.6549072265625	0.019366455078125	5124.19345306265
0.659332275390625	0.019464111328125	5124.23770306254
0.66375732421875	0.0195587158203125	5124.28195306243
0.668182373046875	0.0196563720703125	5124.32620306232
0.672607421875	0.0197540283203125	5124.37045306221
0.677032470703125	0.0198486328125	5124.4147030621
0.68145751953125	0.019940185546875	5124.45895306199
0.685882568359375	0.020037841796875	5124.50320306187
0.6903076171875	0.0201263427734375	5124.54745306176
0.694732666015625	0.0202178955078125	5124.59170306165
0.69915771484375	0.020306396484375	5124.63595306154
0.703582763671875	0.0203887939453125	5124.68020306143
0.7080078125	0.020477294921875	5124.72445306131
0.712432861328125	0.020562744140625	5124.7687030612
0.71685791015625	0.020648193359375	5124.81295306109
0.721282958984375	0.020733642578125	5124.85720306098
0.7257080078125	0.020819091796875	5124.90145306087
0.730133056640625	0.0208984375	5124.94570306076
0.73455810546875	0.020977783203125	5124.98995306064
0.738983154296875	0.02105712890625	5125.03420306053
0.743408203125	0.0211334228515625	5125.07845306042
0.747833251953125	0.021209716796875	5125.12270306031
0.75225830078125	0.0212890625	5125.1669530602
0.756683349609375	0.0213623046875	5125.21120306009
0.7611083984375	0.0214385986328125	5125.25545305997
0.765533447265625	0.0215118408203125	5125.29970305986
0.76995849609375	0.021588134765625	5125.34395305975
0.774383544921875	0.0216583251953125	5125.38820305964
0.77880859375	0.0217315673828125	5125.43245305953
0.783233642578125	0.0217987060546875	5125.47670305942
0.78765869140625	0.021868896484375	5125.5209530593
0.792083740234375	0.02193603515625	5125.56520305919
0.7965087890625	0.0220062255859375	5125.60945305908
0.800933837890625	0.022076416015625	5125.65370305897
0.80535888671875	0.0221405029296875	5125.69795305886
0.809783935546875	0.02220458984375	5125.74220305874
0.814208984375	0.022271728515625	5125.78645305863
0.818634033203125	0.0223358154296875	5125.83070305852
0.82305908203125	0.02239990234375	5125.87495305841
0.827484130859375	0.0224639892578125	5125.9192030583
0.8319091796875	0.0225250244140625	5125.96345305819
0.836334228515625	0.0225860595703125	5126.00770305807
0.84075927734375	0.0226470947265625	5126.05195305796
0.845184326171875	0.0227081298828125	5126.09620305785
0.849609375	0.0227691650390625	5126.14045305774
0.854034423828125	0.0228271484375	5126.18470305763
0.85845947265625	0.02288818359375	5126.22895305752
0.862884521484375	0.022943115234375	5126.2732030574
0.8673095703125	0.0230010986328125	5126.31745305729
0.871734619140625	0.02305908203125	5126.36170305718
0.87615966796875	0.023114013671875	5126.40595305707
0.880584716796875	0.0231719970703125	5126.45020305696
0.885009765625	0.0232269287109375	5126.49445305685
0.889434814453125	0.023284912109375	5126.53870305673
0.89385986328125	0.02333984375	5126.58295305662
0.898284912109375	0.0233917236328125	5126.62720305651
0.9027099609375	0.0234466552734375	5126.6714530564
0.907135009765625	0.02349853515625	5126.71570305629
0.91156005859375	0.0235504150390625	5126.75995305618
0.915985107421875	0.0236053466796875	5126.80420305606
0.92041015625	0.0236572265625	5126.84845305595
0.924835205078125	0.0237152099609375	5126.89270305584
0.92926025390625	0.0237701416015625	5126.93695305573
0.933685302734375	0.023822021484375	5126.98120305562
0.9381103515625	0.023876953125	5127.0254530555
0.942535400390625	0.023931884765625	5127.06970305539
0.94696044921875	0.0239837646484375	5127.11395305528
0.951385498046875	0.0240386962890625	5127.15820305517
0.955810546875	0.0240936279296875	5127.20245305506
0.960235595703125	0.0241455078125	5127.24670305495
0.96466064453125	0.0241973876953125	5127.29095305483
0.969085693359375	0.0242523193359375	5127.33520305472
0.9735107421875	0.0243072509765625	5127.37945305461
0.977935791015625	0.024359130859375	5127.4237030545
0.98236083984375	0.0244140625	5127.46795305439
0.986785888671875	0.0244720458984375	5127.51220305428
0.9912109375	0.0245269775390625	5127.55645305416
0.995635986328125	0.0245849609375	5127.60070305405
1.00006103515625	0.0246429443359375	5127.64495305394
0.995635986328125	0.02381591796875	5127.68920305383
0.9912109375	0.0230224609375	5127.73345305372
0.986785888671875	0.0222564697265625	5127.77770305361
0.98236083984375	0.0215118408203125	5127.82195305349
0.977935791015625	0.020782470703125	5127.86620305338
0.9735107421875	0.02008056640625	5127.91045305327
0.969085693359375	0.0193878173828125	5127.95470305316
0.96466064453125	0.0187103271484375	5127.99895305305
0.960235595703125	0.018048095703125	5128.04320305294
0.955810546875	0.017401123046875	5128.08745305282
0.951385498046875	0.0167694091796875	5128.13170305271
0.94696044921875	0.01614990234375	5128.1759530526
0.942535400390625	0.0155426025390625	5128.22020305249
0.9381103515625	0.0149444580078125	5128.26445305238
0.933685302734375	0.01435546875	5128.30870305227
0.92926025390625	0.0137847900390625	5128.35295305215
0.924835205078125	0.01322021484375	5128.39720305204
0.92041015625	0.012664794921875	5128.44145305193
0.915985107421875	0.01212158203125	5128.48570305182
0.91156005859375	0.0115875244140625	5128.52995305171
0.907135009765625	0.0110626220703125	5128.57420305159
0.9027099609375	0.0105499267578125	5128.61845305148
0.898284912109375	0.0100433349609375	5128.66270305137
0.89385986328125	0.0095428466796875	5128.70695305126
0.889434814453125	0.0090545654296875	5128.75120305115
0.885009765625	0.008575439453125	5128.79545305104
0.880584716796875	0.008099365234375	5128.83970305092
0.87615966796875	0.0076385498046875	5128.88395305081
0.871734619140625	0.007177734375	5128.9282030507
0.8673095703125	0.0067291259765625	5128.97245305059
0.862884521484375	0.0062835693359375	5129.01670305048
0.85845947265625	0.00584716796875	5129.06095305037
0.854034423828125	0.0054168701171875	5129.10520305025
0.849609375	0.0049951171875	5129.14945305014
0.845184326171875	0.00457855224609375	5129.19370305003
0.84075927734375	0.00416839599609375	5129.23795304992
0.836334228515625	0.00376495361328125	5129.28220304981
0.8319091796875	0.003367919921875	5129.3264530497
0.827484130859375	0.002979736328125	5129.37070304958
0.82305908203125	0.00259368896484375	5129.41495304947
0.818634033203125	0.00221405029296875	5129.45920304936
0.814208984375	0.00183929443359375	5129.50345304925
0.809783935546875	0.0014703369140625	5129.54770304914
0.80535888671875	0.001107177734375	5129.59195304903
0.800933837890625	0.00074951171875	5129.63620304891
0.7965087890625	0.000396636962890625	5129.6804530488
0.792083740234375	4.8797607421875E-05	5129.72470304869
0.78765869140625	-0.0002940673828125	5129.76895304858
0.783233642578125	-0.000631103515625	5129.81320304847
0.77880859375	-0.000963134765625	5129.85745304835
0.774383544921875	-0.00129058837890625	5129.90170304824
0.76995849609375	-0.00161376953125	5129.94595304813
0.765533447265625	-0.00193145751953125	5129.99020304802
0.7611083984375	-0.0022442626953125	5130.03445304791
0.756683349609375	-0.00255340576171875	5130.0787030478
0.75225830078125	-0.00285797119140625	5130.12295304768
0.747833251953125	-0.0031585693359375	5130.16720304757
0.743408203125	-0.0034539794921875	5130.21145304746
0.738983154296875	-0.0037432861328125	5130.25570304735
0.73455810546875	-0.0040313720703125	5130.29995304724
0.730133056640625	-0.00431488037109375	5130.34420304713
0.7257080078125	-0.0045941162109375	5130.38845304701
0.721282958984375	-0.00486907958984375	5130.4327030469
0.71685791015625	-0.005140380859375	5130.47695304679
0.712432861328125	-0.00540618896484375	5130.52120304668
0.7080078125	-0.005670166015625	5130.56545304657
0.703582763671875	-0.005928955078125	5130.60970304646
0.69915771484375	-0.00618316650390625	5130.65395304634
0.694732666015625	-0.0064117431640625	5130.69820304623
0.6903076171875	-0.0066619873046875	5130.74245304612
0.685882568359375	-0.0069091796875	5130.78670304601
0.68145751953125	-0.0071502685546875	5130.8309530459
0.677032470703125	-0.0073883056640625	5130.87520304579
0.672607421875	-0.007623291015625	5130.91945304567
0.668182373046875	-0.0078521728515625	5130.96370304556
0.66375732421875	-0.0080780029296875	5131.00795304545
0.659332275390625	-0.0083038330078125	5131.05220304534
0.6549072265625	-0.0085235595703125	5131.09645304523
0.650482177734375	-0.0087432861328125	5131.14070304512
0.64605712890625	-0.0089569091796875	5131.184953045
0.641632080078125	-0.0091705322265625	5131.22920304489
0.63720703125	-0.0093780517578125	5131.27345304478
0.632781982421875	-0.0095855712890625	5131.31770304467
0.62835693359375	-0.0097900390625	5131.36195304456
0.623931884765625	-0.0099945068359375	5131.40620304444
0.6195068359375	-0.01019287109375	5131.45045304433
0.615081787109375	-0.01038818359375	5131.49470304422
0.61065673828125	-0.01058349609375	5131.53895304411
0.606231689453125	-0.0107696533203125	5131.583203044
0.601806640625	-0.010955810546875	5131.62745304389
0.597381591796875	-0.01114501953125	5131.67170304377
0.59295654296875	-0.011328125	5131.71595304366
0.588531494140625	-0.0115142822265625	5131.76020304355
0.5841064453125	-0.011688232421875	5131.80445304344
0.579681396484375	-0.011865234375	5131.84870304333
0.57525634765625	-0.0120361328125	5131.89295304322
0.570831298828125	-0.01220703125	5131.9372030431
0.56640625	-0.0123779296875	5131.98145304299
0.561981201171875	-0.012542724609375	5132.02570304288
0.55755615234375	-0.012713623046875	5132.06995304277
0.553131103515625	-0.0128753662109375	5132.11420304266
0.5487060546875	-0.0130401611328125	5132.15845304255
0.544281005859375	-0.013201904296875	5132.20270304243
0.53985595703125	-0.0133575439453125	5132.24695304232
0.535430908203125	-0.013519287109375	5132.29120304221
0.531005859375	-0.013677978515625	5132.3354530421
0.526580810546875	-0.013836669921875	5132.37970304199
0.52215576171875	-0.0139892578125	5132.42395304188
0.517730712890625	-0.0141357421875	5132.46820304176
0.5133056640625	-0.0142852783203125	5132.51245304165
0.508880615234375	-0.0144317626953125	5132.55670304154
0.50445556640625	-0.014581298828125	5132.60095304143
0.500030517578125	-0.0147247314453125	5132.64520304132
0.49560546875	-0.0148651123046875	5132.6894530412
0.491180419921875	-0.01500244140625	5132.73370304109
0.48675537109375	-0.0151397705078125	5132.77795304098
0.482330322265625	-0.0152801513671875	5132.82220304087
0.4779052734375	-0.0154144287109375	5132.86645304076
0.473480224609375	-0.0155487060546875	5132.91070304065
0.46905517578125	-0.015679931640625	5132.95495304053
0.464630126953125	-0.01580810546875	5132.99920304042
0.460205078125	-0.015936279296875	5133.04345304031
0.455780029296875	-0.016064453125	5133.0877030402
0.45135498046875	-0.0161956787109375	5133.13195304009
0.446929931640625	-0.01632080078125	5133.17620303998
0.4425048828125	-0.0164459228515625	5133.22045303986
0.438079833984375	-0.0165679931640625	5133.26470303975
0.43365478515625	-0.0166900634765625	5133.30895303964
0.429229736328125	-0.01680908203125	5133.35320303953
0.4248046875	-0.01693115234375	5133.39745303942
0.420379638671875	-0.01705322265625	5133.44170303931
0.41595458984375	-0.017169189453125	5133.48595303919
0.411529541015625	-0.0172821044921875	5133.53020303908
0.4071044921875	-0.0173980712890625	5133.57445303897
0.402679443359375	-0.0175140380859375	5133.61870303886
0.39825439453125	-0.0176300048828125	5133.66295303875
0.393829345703125	-0.0177398681640625	5133.70720303864
0.389404296875	-0.017852783203125	5133.75145303852
0.384979248046875	-0.0179656982421875	5133.79570303841
0.38055419921875	-0.0180755615234375	5133.8399530383
0.376129150390625	-0.0181854248046875	5133.88420303819
0.3717041015625	-0.0182952880859375	5133.92845303808
0.367279052734375	-0.0184051513671875	5133.97270303797
0.36285400390625	-0.018511962890625	5134.01695303785
0.358428955078125	-0.01861572265625	5134.06120303774
0.35400390625	-0.0187225341796875	5134.10545303763
0.349578857421875	-0.0188262939453125	5134.14970303752
0.34515380859375	-0.01893310546875	5134.19395303741
0.340728759765625	-0.0190338134765625	5134.23820303729
0.3363037109375	-0.0191375732421875	5134.28245303718
0.331878662109375	-0.0192413330078125	5134.32670303707
0.32745361328125	-0.019342041015625	5134.37095303696
0.323028564453125	-0.01944580078125	5134.41520303685
0.318603515625	-0.01954345703125	5134.45945303674
0.314178466796875	-0.0196441650390625	5134.50370303662
0.30975341796875	-0.0197509765625	5134.54795303651
0.305328369140625	-0.0198486328125	5134.5922030364
0.3009033203125	-0.0199462890625	5134.63645303629
0.296478271484375	-0.0200439453125	5134.68070303618
0.29205322265625	-0.0201416015625	5134.72495303607
0.287628173828125	-0.0202362060546875	5134.76920303595
0.283203125	-0.020330810546875	5134.81345303584
0.278778076171875	-0.02042236328125	5134.85770303573
0.27435302734375	-0.02052001953125	5134.90195303562
0.269927978515625	-0.02061767578125	5134.94620303551
0.2655029296875	-0.020709228515625	5134.9904530354
0.261077880859375	-0.02080078125	5135.03470303528
0.25665283203125	-0.0208953857421875	5135.07895303517
0.252227783203125	-0.0209869384765625	5135.12320303506
0.247802734375	-0.021075439453125	5135.16745303495
0.243377685546875	-0.0211669921875	5135.21170303484
0.23895263671875	-0.021258544921875	5135.25595303473
0.234527587890625	-0.02135009765625	5135.30020303461
0.2301025390625	-0.0214385986328125	5135.3444530345
0.225677490234375	-0.021527099609375	5135.38870303439
0.22125244140625	-0.021612548828125	5135.43295303428
0.216827392578125	-0.0217041015625	5135.47720303417
0.21240234375	-0.02178955078125	5135.52145303405
0.207977294921875	-0.021875	5135.56570303394
0.20355224609375	-0.021954345703125	5135.60995303383
0.199127197265625	-0.0220458984375	5135.65420303372
0.1947021484375	-0.0221282958984375	5135.69845303361
0.190277099609375	-0.022210693359375	5135.7427030335
0.18585205078125	-0.022296142578125	5135.78695303338
0.181427001953125	-0.02237548828125	5135.83120303327
0.177001953125	-0.0224578857421875	5135.87545303316
0.172576904296875	-0.0225341796875	5135.91970303305
0.16815185546875	-0.022613525390625	5135.96395303294
0.163726806640625	-0.0226898193359375	5136.00820303283
0.1593017578125	-0.022772216796875	5136.05245303271
0.154876708984375	-0.0228515625	5136.0967030326
0.15045166015625	-0.0229278564453125	5136.14095303249
0.146026611328125	-0.0230072021484375	5136.18520303238
0.1416015625	-0.02308349609375	5136.22945303227
0.137176513671875	-0.02315673828125	5136.27370303216
0.13275146484375	-0.02322998046875	5136.31795303204
0.128326416015625	-0.02330322265625	5136.36220303193
0.1239013671875	-0.0233795166015625	5136.40645303182
0.119476318359375	-0.02344970703125	5136.45070303171
0.11505126953125	-0.023516845703125	5136.4949530316
0.110626220703125	-0.023590087890625	5136.53920303149
0.106201171875	-0.023663330078125	5136.58345303137
0.101776123046875	-0.0237335205078125	5136.62770303126
0.09735107421875	-0.0238006591796875	5136.67195303115
0.092926025390625	-0.023870849609375	5136.71620303104
0.0885009765625	-0.0239410400390625	5136.76045303093
0.084075927734375	-0.0240081787109375	5136.80470303082
0.07965087890625	-0.0240753173828125	5136.8489530307
0.075225830078125	-0.024139404296875	5136.89320303059
0.07080078125	-0.02420654296875	5136.93745303048
0.066375732421875	-0.024273681640625	5136.98170303037
0.06195068359375	-0.0243408203125	5137.02595303026
0.057525634765625	-0.0243988037109375	5137.07020303014
0.0531005859375	-0.024462890625	5137.11445303003
0.048675537109375	-0.024530029296875	5137.15870302992
0.04425048828125	-0.0245880126953125	5137.20295302981
0.039825439453125	-0.0246551513671875	5137.2472030297
0.035400390625	-0.0247161865234375	5137.29145302959
0.030975341796875	-0.0247772216796875	5137.33570302947
0.02655029296875	-0.0248382568359375	5137.37995302936
0.022125244140625	-0.0248992919921875	5137.42420302925
0.0177001953125	-0.024957275390625	5137.46845302914
0.013275146484375	-0.0250152587890625	5137.51270302903
0.00885009765625	-0.0250701904296875	5137.55695302892
0.004425048828125	-0.0251312255859375	5137.6012030288
0	-0.0251861572265625	5137.64545302869
0.004425048828125	-0.024371337890625	5137.68970302858
0.00885009765625	-0.0235809326171875	5137.73395302847
0.013275146484375	-0.02281494140625	5137.77820302836
0.0177001953125	-0.0220672607421875	5137.82245302825
0.022125244140625	-0.0213409423828125	5137.86670302813
0.02655029296875	-0.0206298828125	5137.91095302802
0.030975341796875	-0.0199371337890625	5137.95520302791
0.035400390625	-0.019256591796875	5137.9994530278
0.039825439453125	-0.0185882568359375	5138.04370302769
0.04425048828125	-0.01793212890625	5138.08795302758
0.048675537109375	-0.017291259765625	5138.13220302746
0.0531005859375	-0.01666259765625	5138.17645302735
0.057525634765625	-0.0160491943359375	5138.22070302724
0.06195068359375	-0.01544189453125	5138.26495302713
0.066375732421875	-0.0148468017578125	5138.30920302702
0.07080078125	-0.014263916015625	5138.3534530269
0.075225830078125	-0.0136932373046875	5138.39770302679
0.07965087890625	-0.0131317138671875	5138.44195302668
0.084075927734375	-0.0125732421875	5138.48620302657
0.0885009765625	-0.0120330810546875	5138.53045302646
0.092926025390625	-0.0114959716796875	5138.57470302635
0.09735107421875	-0.010968017578125	5138.61895302623
0.101776123046875	-0.010455322265625	5138.66320302612
0.106201171875	-0.0099456787109375	5138.70745302601
0.110626220703125	-0.0094451904296875	5138.7517030259
0.11505126953125	-0.008953857421875	5138.79595302579
0.119476318359375	-0.0084716796875	5138.84020302568
0.1239013671875	-0.00799560546875	5138.88445302556
0.128326416015625	-0.0075286865234375	5138.92870302545
0.13275146484375	-0.0070648193359375	5138.97295302534
0.137176513671875	-0.0066131591796875	5139.01720302523
0.1416015625	-0.0061676025390625	5139.06145302512
0.146026611328125	-0.00572509765625	5139.105703025
0.15045166015625	-0.0052947998046875	5139.14995302489
0.154876708984375	-0.004869384765625	5139.19420302478
0.1593017578125	-0.00445037841796875	5139.23845302467
0.163726806640625	-0.004036865234375	5139.28270302456
0.16815185546875	-0.003629150390625	5139.32695302445
0.172576904296875	-0.003228759765625	5139.37120302434
0.177001953125	-0.00284423828125	5139.41545302422
0.181427001953125	-0.00245391845703125	5139.45970302411
0.18585205078125	-0.00207000732421875	5139.503953024
0.190277099609375	-0.0016912841796875	5139.54820302389
0.1947021484375	-0.00131744384765625	5139.59245302378
0.199127197265625	-0.0009503173828125	5139.63670302367
0.20355224609375	-0.0005889892578125	5139.68095302355
0.207977294921875	-0.00023199462890625	5139.72520302344
0.21240234375	0.000119293212890625	5139.76945302333
0.216827392578125	0.000466278076171875	5139.81370302322
0.22125244140625	0.00080810546875	5139.85795302311
0.225677490234375	0.0011456298828125	5139.90220302299
0.2301025390625	0.001478271484375	5139.94645302288
0.234527587890625	0.0018048095703125	5139.99070302277
0.23895263671875	0.00212890625	5140.03495302266
0.243377685546875	0.0024481201171875	5140.07920302255
0.247802734375	0.00276153564453125	5140.12345302244
0.252227783203125	0.00307281494140625	5140.16770302232
0.25665283203125	0.00337738037109375	5140.21195302221
0.261077880859375	0.00367767333984375	5140.2562030221
0.2655029296875	0.003973388671875	5140.30045302199
0.269927978515625	0.00426422119140625	5140.34470302188
0.27435302734375	0.0045513916015625	5140.38895302177
0.278778076171875	0.0048358154296875	5140.43320302165
0.283203125	0.00511505126953125	5140.47745302154
0.287628173828125	0.0053912353515625	5140.52170302143
0.29205322265625	0.005662841796875	5140.56595302132
0.296478271484375	0.0059320068359375	5140.61020302121
0.3009033203125	0.0061956787109375	5140.65445302109
0.305328369140625	0.0064453125	5140.69870302098
0.30975341796875	0.0067047119140625	5140.74295302087
0.314178466796875	0.006964111328125	5140.78720302076
0.318603515625	0.0072113037109375	5140.83145302065
0.323028564453125	0.00745849609375	5140.87570302054
0.32745361328125	0.0076995849609375	5140.91995302043
0.331878662109375	0.0079376220703125	5140.96420302031
0.3363037109375	0.0081756591796875	5141.0084530202
0.340728759765625	0.0084075927734375	5141.05270302009
0.34515380859375	0.0086395263671875	5141.09695301998
0.349578857421875	0.0088653564453125	5141.14120301987
0.35400390625	0.009088134765625	5141.18545301975
0.358428955078125	0.0093109130859375	5141.22970301964
0.36285400390625	0.009527587890625	5141.27395301953
0.367279052734375	0.0097442626953125	5141.31820301942
0.3717041015625	0.0099609375	5141.36245301931
0.376129150390625	0.0101715087890625	5141.4067030192
0.38055419921875	0.0103759765625	5141.45095301908
0.384979248046875	0.01058349609375	5141.49520301897
0.389404296875	0.010784912109375	5141.53945301886
0.393829345703125	0.010980224609375	5141.58370301875
0.39825439453125	0.011175537109375	5141.62795301864
0.402679443359375	0.011370849609375	5141.67220301853
0.4071044921875	0.0115631103515625	5141.71645301841
0.411529541015625	0.01175537109375	5141.7607030183
0.41595458984375	0.0119415283203125	5141.80495301819
0.420379638671875	0.0121307373046875	5141.84920301808
0.4248046875	0.012310791015625	5141.89345301797
0.429229736328125	0.012493896484375	5141.93770301785
0.43365478515625	0.0126708984375	5141.98195301774
0.438079833984375	0.012847900390625	5142.02620301763
0.4425048828125	0.0130218505859375	5142.07045301752
0.446929931640625	0.013189697265625	5142.11470301741
0.45135498046875	0.0133514404296875	5142.1589530173
0.455780029296875	0.01351318359375	5142.20320301718
0.460205078125	0.0136749267578125	5142.24745301707
0.464630126953125	0.013836669921875	5142.29170301696
0.46905517578125	0.01400146484375	5142.33595301685
0.473480224609375	0.014166259765625	5142.38020301674
0.4779052734375	0.0143280029296875	5142.42445301663
0.482330322265625	0.0144805908203125	5142.46870301652
0.48675537109375	0.0146331787109375	5142.5129530164
0.491180419921875	0.014794921875	5142.55720301629
0.49560546875	0.0149505615234375	5142.60145301618
0.500030517578125	0.01510009765625	5142.64570301607
0.50445556640625	0.0152496337890625	5142.68995301596
0.508880615234375	0.0153961181640625	5142.73420301584
0.5133056640625	0.0155364990234375	5142.77845301573
0.517730712890625	0.0156768798828125	5142.82270301562
0.52215576171875	0.0158172607421875	5142.86695301551
0.526580810546875	0.0159576416015625	5142.9112030154
0.531005859375	0.016094970703125	5142.95545301529
0.535430908203125	0.0162322998046875	5142.99970301517
0.53985595703125	0.0163665771484375	5143.04395301506
0.544281005859375	0.016497802734375	5143.08820301495
0.5487060546875	0.0166259765625	5143.13245301484
0.553131103515625	0.0167572021484375	5143.17670301473
0.55755615234375	0.016888427734375	5143.22095301462
0.561981201171875	0.0170135498046875	5143.2652030145
0.56640625	0.017138671875	5143.30945301439
0.570831298828125	0.0172607421875	5143.35370301428
0.57525634765625	0.0173828125	5143.39795301417
0.579681396484375	0.0175048828125	5143.44220301406
0.5841064453125	0.017626953125	5143.48645301394
0.588531494140625	0.017742919921875	5143.53070301383
0.59295654296875	0.01785888671875	5143.57495301372
0.597381591796875	0.017974853515625	5143.61920301361
0.601806640625	0.0180877685546875	5143.6634530135
0.606231689453125	0.0182037353515625	5143.70770301339
0.61065673828125	0.0183135986328125	5143.75195301327
0.615081787109375	0.0184295654296875	5143.79620301316
0.6195068359375	0.018536376953125	5143.84045301305
0.623931884765625	0.0186431884765625	5143.88470301294
0.62835693359375	0.018756103515625	5143.92895301283
0.632781982421875	0.01885986328125	5143.97320301272
0.63720703125	0.0189666748046875	5144.0174530126
0.641632080078125	0.0190704345703125	5144.06170301249
0.64605712890625	0.0191741943359375	5144.10595301238
0.650482177734375	0.01927490234375	5144.15020301227
0.6549072265625	0.0193756103515625	5144.19445301216
0.659332275390625	0.019476318359375	5144.23870301205
0.66375732421875	0.0195709228515625	5144.28295301193
0.668182373046875	0.0196685791015625	5144.32720301182
0.672607421875	0.01976318359375	5144.37145301171
0.677032470703125	0.0198577880859375	5144.4157030116
0.68145751953125	0.019952392578125	5144.45995301149
0.685882568359375	0.0200469970703125	5144.50420301138
0.6903076171875	0.020135498046875	5144.54845301126
0.694732666015625	0.0202301025390625	5144.59270301115
0.69915771484375	0.0203155517578125	5144.63695301104
0.703582763671875	0.0204010009765625	5144.68120301093
0.7080078125	0.0204864501953125	5144.72545301082
0.712432861328125	0.0205718994140625	5144.7697030107
0.71685791015625	0.0206573486328125	5144.81395301059
0.721282958984375	0.02073974609375	5144.85820301048
0.7257080078125	0.0208251953125	5144.90245301037
0.730133056640625	0.0209075927734375	5144.94670301026
0.73455810546875	0.0209869384765625	5144.99095301015
0.738983154296875	0.0210693359375	5145.03520301003
0.743408203125	0.021142578125	5145.07945300992
0.747833251953125	0.021221923828125	5145.12370300981
0.75225830078125	0.0212982177734375	5145.1679530097
0.756683349609375	0.0213714599609375	5145.21220300959
0.7611083984375	0.0214447021484375	5145.25645300948
0.765533447265625	0.0215179443359375	5145.30070300936
0.76995849609375	0.0215911865234375	5145.34495300925
0.774383544921875	0.021661376953125	5145.38920300914
0.77880859375	0.0217376708984375	5145.43345300903
0.783233642578125	0.021807861328125	5145.47770300892
0.78765869140625	0.021875	5145.52195300881
0.792083740234375	0.021942138671875	5145.56620300869
0.7965087890625	0.02200927734375	5145.61045300858
0.800933837890625	0.022076416015625	5145.65470300847
0.80535888671875	0.0221435546875	5145.69895300836
0.809783935546875	0.0222076416015625	5145.74320300825
0.814208984375	0.0222686767578125	5145.78745300814
0.818634033203125	0.0223358154296875	5145.83170300802
0.82305908203125	0.0224029541015625	5145.87595300791
0.827484130859375	0.0224609375	5145.9202030078
0.8319091796875	0.02252197265625	5145.96445300769
0.836334228515625	0.0225860595703125	5146.00870300758
0.84075927734375	0.02264404296875	5146.05295300747
0.845184326171875	0.022705078125	5146.09720300735
0.849609375	0.0227630615234375	5146.14145300724
0.854034423828125	0.0228240966796875	5146.18570300713
0.85845947265625	0.0228851318359375	5146.22995300702
0.862884521484375	0.022943115234375	5146.27420300691
0.8673095703125	0.022998046875	5146.31845300679
0.871734619140625	0.0230499267578125	5146.36270300668
0.87615966796875	0.0231109619140625	5146.40695300657
0.880584716796875	0.0231658935546875	5146.45120300646
0.885009765625	0.0232208251953125	5146.49545300635
0.889434814453125	0.0232757568359375	5146.53970300624
0.89385986328125	0.023333740234375	5146.58395300612
0.898284912109375	0.023388671875	5146.62820300601
0.9027099609375	0.0234375	5146.6724530059
0.907135009765625	0.023492431640625	5146.71670300579
0.91156005859375	0.02354736328125	5146.76095300568
0.915985107421875	0.023602294921875	5146.80520300557
0.92041015625	0.0236541748046875	5146.84945300545
0.924835205078125	0.0237060546875	5146.89370300534
0.92926025390625	0.023760986328125	5146.93795300523
0.933685302734375	0.0238128662109375	5146.98220300512
0.9381103515625	0.0238677978515625	5147.02645300501
0.942535400390625	0.023919677734375	5147.0707030049
0.94696044921875	0.023974609375	5147.11495300478
0.951385498046875	0.024029541015625	5147.15920300467
0.955810546875	0.02408447265625	5147.20345300456
0.960235595703125	0.024139404296875	5147.24770300445
0.96466064453125	0.0241912841796875	5147.29195300434
0.969085693359375	0.0242462158203125	5147.33620300423
0.9735107421875	0.024298095703125	5147.38045300411
0.977935791015625	0.0243499755859375	5147.424703004
0.98236083984375	0.02440185546875	5147.46895300389
0.986785888671875	0.0244598388671875	5147.51320300378
0.9912109375	0.0245086669921875	5147.55745300367
