Time (s)	WE(1).Potential (V)
1074.5176112871	0.7757568359375
1075.51761128458	0.767822265625
1076.51761128205	0.7611083984375
1077.51761127953	0.75469970703125
1078.517611277	0.7489013671875
1079.51761127448	0.743408203125
1080.51761127196	0.73822021484375
1081.51761126943	0.7330322265625
1082.51761126691	0.72784423828125
1083.51761126438	0.72296142578125
1084.51761126186	0.71807861328125
1085.51761125933	0.71319580078125
1086.51761125681	0.7086181640625
1087.51761125428	0.70404052734375
1088.51761125176	0.699462890625
1089.51761124923	0.69488525390625
1090.51761124671	0.6903076171875
1091.51761124418	0.68572998046875
1092.51761124166	0.68145751953125
1093.51761123913	0.6768798828125
1094.51761123661	0.672607421875
1095.51761123408	0.66802978515625
1096.51761123156	0.66375732421875
1097.51761122903	0.6591796875
1098.51761122651	0.6549072265625
1099.51761122398	0.650634765625
1100.51761122146	0.6463623046875
1101.51761121894	0.64208984375
1102.51761121641	0.6378173828125
1103.51761121389	0.633544921875
1104.51761121136	0.6292724609375
1105.51761120884	0.62530517578125
1106.51761120631	0.62103271484375
1107.51761120379	0.61676025390625
1108.51761120126	0.61248779296875
1109.51761119874	0.6085205078125
1110.51761119621	0.604248046875
1111.51761119369	0.5999755859375
1112.51761119116	0.59600830078125
1113.51761118864	0.59173583984375
1114.51761118611	0.58746337890625
1115.51761118359	0.58349609375
1116.51761118106	0.5792236328125
1117.51761117854	0.57525634765625
1118.51761117601	0.57098388671875
1119.51761117349	0.5670166015625
1120.51761117096	0.562744140625
1121.51761116844	0.55877685546875
1122.51761116592	0.55450439453125
1123.51761116339	0.550537109375
1124.51761116087	0.54656982421875
1125.51761115834	0.5426025390625
1126.51761115582	0.53863525390625
1127.51761115329	0.53436279296875
1128.51761115077	0.5303955078125
1129.51761114824	0.52642822265625
1130.51761114572	0.5224609375
1131.51761114319	0.51849365234375
1132.51761114067	0.51422119140625
1133.51761113814	0.51025390625
1134.51761113562	0.50628662109375
1135.51761113309	0.5023193359375
1136.51761113057	0.498443603515625
1137.51761112804	0.494476318359375
1138.51761112552	0.49053955078125
1139.51761112299	0.486602783203125
1140.51761112047	0.482696533203125
1141.51761111795	0.478759765625
1142.51761111542	0.474853515625
1143.5176111129	0.470947265625
1144.51761111037	0.467071533203125
1145.51761110785	0.463165283203125
1146.51761110532	0.459320068359375
1147.5176111028	0.4554443359375
1148.51761110027	0.45159912109375
1149.51761109775	0.44775390625
1150.51761109522	0.44390869140625
1151.5176110927	0.4400634765625
1152.51761109017	0.436248779296875
1153.51761108765	0.432403564453125
1154.51761108512	0.428619384765625
1155.5176110826	0.4248046875
1156.51761108007	0.4210205078125
1157.51761107755	0.417236328125
1158.51761107502	0.413482666015625
1159.5176110725	0.409698486328125
1160.51761106997	0.40594482421875
1161.51761106745	0.402191162109375
1162.51761106493	0.3984375
1163.5176110624	0.39471435546875
1164.51761105988	0.390960693359375
1165.51761105735	0.38726806640625
1166.51761105483	0.383575439453125
1167.5176110523	0.3798828125
1168.51761104978	0.37615966796875
1169.51761104725	0.372528076171875
1170.51761104473	0.36883544921875
1171.5176110422	0.365203857421875
1172.51761103968	0.361541748046875
1173.51761103715	0.35791015625
1174.51761103463	0.354278564453125
1175.5176110321	0.350677490234375
1176.51761102958	0.3470458984375
1177.51761102705	0.343475341796875
1178.51761102453	0.339874267578125
1179.517611022	0.3363037109375
1180.51761101948	0.332733154296875
1181.51761101695	0.32916259765625
1182.51761101443	0.325653076171875
1183.51761101191	0.32208251953125
1184.51761100938	0.318572998046875
1185.51761100686	0.315032958984375
1186.51761100433	0.311553955078125
1187.51761100181	0.308013916015625
1188.51761099928	0.304534912109375
1189.51761099676	0.301055908203125
1190.51761099423	0.297576904296875
1191.51761099171	0.294158935546875
1192.51761098918	0.290679931640625
1193.51761098666	0.287261962890625
1194.51761098413	0.2838134765625
1195.51761098161	0.2803955078125
1196.51761097908	0.2769775390625
1197.51761097656	0.2735595703125
1198.51761097403	0.270172119140625
1199.51761097151	0.266754150390625
1200.51761096898	0.263427734375
1201.51761096646	0.260009765625
1202.51761096393	0.25665283203125
1203.51761096141	0.2532958984375
1204.51761095889	0.249969482421875
1205.51761095636	0.246612548828125
1206.51761095384	0.243255615234375
1207.51761095131	0.23992919921875
1208.51761094879	0.236602783203125
1209.51761094626	0.23333740234375
1210.51761094374	0.230010986328125
1211.51761094121	0.2266845703125
1212.51761093869	0.223388671875
1213.51761093616	0.2200927734375
1214.51761093364	0.216827392578125
1215.51761093111	0.213531494140625
1216.51761092859	0.21026611328125
1217.51761092606	0.20697021484375
1218.51761092354	0.203704833984375
1219.51761092101	0.200469970703125
1220.51761091849	0.19720458984375
1221.51761091596	0.1939697265625
1222.51761091344	0.190704345703125
1223.51761091091	0.1875
1224.51761090839	0.184234619140625
1225.51761090587	0.180999755859375
1226.51761090334	0.17779541015625
1227.51761090082	0.174560546875
1228.51761089829	0.17138671875
1229.51761089577	0.168182373046875
1230.51761089324	0.16497802734375
1231.51761089072	0.16180419921875
1232.51761088819	0.158599853515625
1233.51761088567	0.15545654296875
1234.51761088314	0.15228271484375
1235.51761088062	0.14910888671875
1236.51761087809	0.145965576171875
1237.51761087557	0.142822265625
1238.51761087304	0.139739990234375
1239.51761087052	0.1365966796875
1240.51761086799	0.13348388671875
1241.51761086547	0.13037109375
1242.51761086294	0.127288818359375
1243.51761086042	0.12420654296875
1244.5176108579	0.121124267578125
1245.51761085537	0.118072509765625
1246.51761085285	0.115020751953125
1247.51761085032	0.111968994140625
1248.5176108478	0.10894775390625
1249.51761084527	0.105926513671875
1250.51761084275	0.1029052734375
1251.51761084022	0.099884033203125
1252.5176108377	0.09686279296875
1253.51761083517	0.0938720703125
1254.51761083265	0.090911865234375
1255.51761083012	0.087921142578125
1256.5176108276	0.0849609375
1257.51761082507	0.082000732421875
1258.51761082255	0.07904052734375
1259.51761082002	0.076141357421875
1260.5176108175	0.07318115234375
1261.51761081497	0.070281982421875
1262.51761081245	0.067352294921875
1263.51761080992	0.064422607421875
1264.5176108074	0.0615234375
1265.51761080488	0.058624267578125
1266.51761080235	0.05572509765625
1267.51761079983	0.0528564453125
1268.5176107973	0.04998779296875
1269.51761079478	0.0471099853515625
1270.51761079225	0.0442596435546875
1271.51761078973	0.04141845703125
1272.5176107872	0.0385894775390625
1273.51761078468	0.0357757568359375
1274.51761078215	0.0329620361328125
1275.51761077963	0.0301666259765625
1276.5176107771	0.02738037109375
1277.51761077458	0.024609375
1278.51761077205	0.0218475341796875
1279.51761076953	0.0190948486328125
1280.517610767	0.016363525390625
1281.51761076448	0.01363525390625
1282.51761076195	0.010931396484375
1283.51761075943	0.00823364257812501
1284.5176107569	0.00554809570312501
1285.51761075438	0.00287475585937499
1286.51761075186	0.000210571289062503
1287.51761074933	-0.00243225097656249
1288.51761074681	-0.0050628662109375
1289.51761074428	-0.00768432617187501
1290.51761074176	-0.010284423828125
