Potential applied (V)	WE(1).Current (A)	Time (s)
0.004425048828125	-0.0873565673828125	4936.07209253762
0.00885009765625	-0.082568359375	4936.16059353739
0.013275146484375	-0.0782684326171875	4936.24909453717
0.0177001953125	-0.0744171142578125	4936.33759553695
0.022125244140625	-0.0709228515625	4936.42609653672
0.02655029296875	-0.0676727294921875	4936.5145975365
0.030975341796875	-0.0646148681640625	4936.60309853627
0.035400390625	-0.0617767333984375	4936.69159953605
0.039825439453125	-0.059100341796875	4936.78010053583
0.04425048828125	-0.0565704345703125	4936.86860153561
0.048675537109375	-0.05419921875	4936.95710253538
0.0531005859375	-0.0519439697265625	4937.04560353516
0.057525634765625	-0.049786376953125	4937.13410453493
0.06195068359375	-0.04775390625	4937.22260553471
0.066375732421875	-0.045819091796875	4937.31110653449
0.07080078125	-0.0439666748046875	4937.39960753426
0.075225830078125	-0.042205810546875	4937.48810853404
0.07965087890625	-0.040533447265625	4937.57660953382
0.084075927734375	-0.0389251708984375	4937.66511053359
0.0885009765625	-0.0373809814453125	4937.75361153337
0.092926025390625	-0.03590087890625	4937.84211253315
0.09735107421875	-0.0344818115234375	4937.93061353292
0.101776123046875	-0.033123779296875	4938.0191145327
0.106201171875	-0.0318145751953125	4938.10761553248
0.110626220703125	-0.03055419921875	4938.19611653225
0.11505126953125	-0.029339599609375	4938.28461753203
0.119476318359375	-0.028167724609375	4938.37311853181
0.1239013671875	-0.027044677734375	4938.46161953158
0.128326416015625	-0.0259613037109375	4938.55012053136
0.13275146484375	-0.0249114990234375	4938.63862153114
0.137176513671875	-0.0238922119140625	4938.72712253091
0.1416015625	-0.022906494140625	4938.81562353069
0.146026611328125	-0.021954345703125	4938.90412453047
0.15045166015625	-0.0210357666015625	4938.99262553024
0.154876708984375	-0.020147705078125	4939.08112653002
0.1593017578125	-0.0192840576171875	4939.1696275298
0.163726806640625	-0.0184478759765625	4939.25812852957
0.16815185546875	-0.0176361083984375	4939.34662952935
0.172576904296875	-0.0168487548828125	4939.43513052912
0.177001953125	-0.0160888671875	4939.5236315289
0.181427001953125	-0.0153472900390625	4939.61213252868
0.18585205078125	-0.014630126953125	4939.70063352846
0.190277099609375	-0.0139373779296875	4939.78913452823
0.1947021484375	-0.0132568359375	4939.87763552801
0.199127197265625	-0.01259765625	4939.96613652778
0.20355224609375	-0.0119598388671875	4940.05463752756
0.207977294921875	-0.0113433837890625	4940.14313852734
0.21240234375	-0.010736083984375	4940.23163952711
0.216827392578125	-0.010150146484375	4940.32014052689
0.22125244140625	-0.0095794677734375	4940.40864152667
0.225677490234375	-0.009027099609375	4940.49714252644
0.2301025390625	-0.0084869384765625	4940.58564352622
0.234527587890625	-0.0079620361328125	4940.674144526
0.23895263671875	-0.007452392578125	4940.76264552577
0.243377685546875	-0.0069549560546875	4940.85114652555
0.247802734375	-0.0064697265625	4940.93964752533
0.252227783203125	-0.005999755859375	4941.0281485251
0.25665283203125	-0.0055389404296875	4941.11664952488
0.261077880859375	-0.0050933837890625	4941.20515052466
0.2655029296875	-0.004661865234375	4941.29365152443
0.269927978515625	-0.0042388916015625	4941.38215252421
0.27435302734375	-0.0038275146484375	4941.47065352399
0.278778076171875	-0.003427734375	4941.55915452376
0.283203125	-0.0030364990234375	4941.64765552354
0.287628173828125	-0.00266510009765625	4941.73615652332
0.29205322265625	-0.0022943115234375	4941.82465752309
0.296478271484375	-0.00193206787109375	4941.91315852287
0.3009033203125	-0.0015789794921875	4942.00165952265
0.305328369140625	-0.0012359619140625	4942.09016052242
0.30975341796875	-0.00090118408203125	4942.1786615222
0.314178466796875	-0.0005712890625	4942.26716252197
0.318603515625	-0.000253265380859375	4942.35566352175
0.323028564453125	5.7403564453125E-05	4942.44416452153
0.32745361328125	0.0003602294921875	4942.5326655213
0.331878662109375	0.00065582275390625	4942.62116652108
0.3363037109375	0.000943603515625	4942.70966752086
0.340728759765625	0.00122467041015625	4942.79816852063
0.34515380859375	0.00149932861328125	4942.88666952041
0.349578857421875	0.00176788330078125	4942.97517052019
0.35400390625	0.0020269775390625	4943.06367151996
0.358428955078125	0.0022808837890625	4943.15217251974
0.36285400390625	0.0025286865234375	4943.24067351952
0.367279052734375	0.00277069091796875	4943.32917451929
0.3717041015625	0.0030059814453125	4943.41767551907
0.376129150390625	0.0032366943359375	4943.50617651885
0.38055419921875	0.00345947265625	4943.59467751862
0.384979248046875	0.00367919921875	4943.6831785184
0.389404296875	0.00389312744140625	4943.77167951818
0.393829345703125	0.00409942626953125	4943.86018051795
0.39825439453125	0.0043035888671875	4943.94868151773
0.402679443359375	0.0045050048828125	4944.03718251751
0.4071044921875	0.0047003173828125	4944.12568351728
0.411529541015625	0.0048907470703125	4944.21418451706
0.41595458984375	0.005078125	4944.30268551684
0.420379638671875	0.005262451171875	4944.39118651661
0.4248046875	0.0054425048828125	4944.47968751639
0.429229736328125	0.005616455078125	4944.56818851617
0.43365478515625	0.005784912109375	4944.65668951594
0.438079833984375	0.00595123291015625	4944.74519051572
0.4425048828125	0.00611419677734375	4944.8336915155
0.446929931640625	0.00626220703125	4944.92219251527
0.45135498046875	0.0064178466796875	4945.01069351505
0.455780029296875	0.0065704345703125	4945.09919451482
0.460205078125	0.0067169189453125	4945.1876955146
0.464630126953125	0.0068634033203125	4945.27619651438
0.46905517578125	0.0070037841796875	4945.36469751415
0.473480224609375	0.007135009765625	4945.45319851393
0.4779052734375	0.007269287109375	4945.54169951371
0.482330322265625	0.0074066162109375	4945.63020051348
0.48675537109375	0.007537841796875	4945.71870151326
0.491180419921875	0.0076629638671875	4945.80720251304
0.49560546875	0.0077880859375	4945.89570351281
0.500030517578125	0.0079132080078125	4945.98420451259
0.50445556640625	0.0080352783203125	4946.07270551237
0.508880615234375	0.0081512451171875	4946.16120651214
0.5133056640625	0.0082672119140625	4946.24970751192
0.517730712890625	0.008380126953125	4946.3382085117
0.52215576171875	0.0084930419921875	4946.42670951147
0.526580810546875	0.008599853515625	4946.51521051125
0.531005859375	0.00870361328125	4946.60371151103
0.535430908203125	0.0088104248046875	4946.6922125108
0.53985595703125	0.0089141845703125	4946.78071351058
0.544281005859375	0.0090118408203125	4946.86921451036
0.5487060546875	0.0091094970703125	4946.95771551013
0.553131103515625	0.0092071533203125	4947.04621650991
0.55755615234375	0.0092987060546875	4947.13471750969
0.561981201171875	0.0093902587890625	4947.22321850946
0.56640625	0.0094818115234375	4947.31171950924
0.570831298828125	0.0095703125	4947.40022050902
0.57525634765625	0.0096588134765625	4947.48872150879
0.579681396484375	0.0097412109375	4947.57722250857
0.5841064453125	0.00982666015625	4947.66572350834
0.588531494140625	0.009906005859375	4947.75422450812
0.59295654296875	0.0099884033203125	4947.8427255079
0.597381591796875	0.0100677490234375	4947.93122650767
0.601806640625	0.01014404296875	4948.01972750745
0.606231689453125	0.010223388671875	4948.10822850723
0.61065673828125	0.010296630859375	4948.196729507
0.615081787109375	0.0103729248046875	4948.28523050678
0.6195068359375	0.010443115234375	4948.37373150656
0.623931884765625	0.0105133056640625	4948.46223250633
0.62835693359375	0.010589599609375	4948.55073350611
0.632781982421875	0.01065673828125	4948.63923450589
0.63720703125	0.010723876953125	4948.72773550566
0.641632080078125	0.010791015625	4948.81623650544
0.64605712890625	0.0108551025390625	4948.90473750522
0.650482177734375	0.0109161376953125	4948.99323850499
0.6549072265625	0.01097412109375	4949.08173950477
0.659332275390625	0.01103515625	4949.17024050455
0.66375732421875	0.01109619140625	4949.25874150432
0.668182373046875	0.0111541748046875	4949.3472425041
0.672607421875	0.011212158203125	4949.43574350388
0.677032470703125	0.0112701416015625	4949.52424450365
0.68145751953125	0.0113250732421875	4949.61274550343
0.685882568359375	0.0113800048828125	4949.70124650321
0.6903076171875	0.0114349365234375	4949.78974750298
0.694732666015625	0.01148681640625	4949.87824850276
0.69915771484375	0.0115386962890625	4949.96674950254
0.703582763671875	0.0115875244140625	4950.05525050231
0.7080078125	0.011639404296875	4950.14375150209
0.712432861328125	0.011688232421875	4950.23225250187
0.71685791015625	0.011737060546875	4950.32075350164
0.721282958984375	0.0117828369140625	4950.40925450142
0.7257080078125	0.0118316650390625	4950.49775550119
0.730133056640625	0.0118743896484375	4950.58625650097
0.73455810546875	0.0119232177734375	4950.67475750075
0.738983154296875	0.0119659423828125	4950.76325850052
0.743408203125	0.01201171875	4950.8517595003
0.747833251953125	0.0120513916015625	4950.94026050008
0.75225830078125	0.0120941162109375	4951.02876149985
0.756683349609375	0.012139892578125	4951.11726249963
0.7611083984375	0.0121826171875	4951.20576349941
0.765533447265625	0.0122222900390625	4951.29426449918
0.76995849609375	0.012261962890625	4951.38276549896
0.774383544921875	0.0123046875	4951.47126649874
0.77880859375	0.01234130859375	4951.55976749851
0.783233642578125	0.012384033203125	4951.64826849829
0.78765869140625	0.0124237060546875	4951.73676949807
0.792083740234375	0.01246337890625	4951.82527049784
0.7965087890625	0.0125030517578125	4951.91377149762
0.800933837890625	0.01253662109375	4952.0022724974
0.80535888671875	0.0125762939453125	4952.09077349717
0.809783935546875	0.0126129150390625	4952.17927449695
0.814208984375	0.0126495361328125	4952.26777549673
0.818634033203125	0.0126861572265625	4952.3562764965
0.82305908203125	0.0127227783203125	4952.44477749628
0.827484130859375	0.0127593994140625	4952.53327849606
0.8319091796875	0.01279296875	4952.62177949583
0.836334228515625	0.0128326416015625	4952.71028049561
0.84075927734375	0.0128692626953125	4952.79878149538
0.845184326171875	0.0129058837890625	4952.88728249516
0.849609375	0.0129425048828125	4952.97578349494
0.854034423828125	0.0129791259765625	4953.06428449472
0.85845947265625	0.0130157470703125	4953.15278549449
0.862884521484375	0.0130523681640625	4953.24128649427
0.8673095703125	0.0130859375	4953.32978749404
0.871734619140625	0.01312255859375	4953.41828849382
0.87615966796875	0.0131622314453125	4953.5067894936
0.880584716796875	0.0131988525390625	4953.59529049337
0.885009765625	0.013238525390625	4953.68379149315
0.889434814453125	0.013275146484375	4953.77229249293
0.89385986328125	0.013311767578125	4953.8607934927
0.898284912109375	0.0133544921875	4953.94929449248
0.9027099609375	0.01339111328125	4954.03779549226
0.907135009765625	0.0134307861328125	4954.12629649203
0.91156005859375	0.013470458984375	4954.21479749181
0.915985107421875	0.01351318359375	4954.30329849159
0.92041015625	0.013555908203125	4954.39179949136
0.924835205078125	0.0136016845703125	4954.48030049114
0.92926025390625	0.0136444091796875	4954.56880149092
0.933685302734375	0.013690185546875	4954.65730249069
0.9381103515625	0.0137420654296875	4954.74580349047
0.942535400390625	0.013787841796875	4954.83430449025
0.94696044921875	0.013836669921875	4954.92280549002
0.951385498046875	0.013885498046875	4955.0113064898
0.955810546875	0.0139373779296875	4955.09980748958
0.960235595703125	0.0139892578125	4955.18830848935
0.96466064453125	0.014044189453125	4955.27680948913
0.969085693359375	0.01409912109375	4955.36531048891
0.9735107421875	0.0141571044921875	4955.45381148868
0.977935791015625	0.0142120361328125	4955.54231248846
0.98236083984375	0.0142730712890625	4955.63081348823
0.986785888671875	0.0143341064453125	4955.71931448801
0.9912109375	0.014398193359375	4955.80781548779
0.995635986328125	0.0144683837890625	4955.89631648756
1.00006103515625	0.0145355224609375	4955.98481748734
0.995635986328125	0.0137603759765625	4956.07331848712
0.9912109375	0.0130279541015625	4956.16181948689
0.986785888671875	0.0123291015625	4956.25032048667
0.98236083984375	0.0116607666015625	4956.33882148645
0.977935791015625	0.0110137939453125	4956.42732248622
0.9735107421875	0.010400390625	4956.515823486
0.969085693359375	0.00980224609375	4956.60432448578
0.96466064453125	0.0092254638671875	4956.69282548555
0.960235595703125	0.0086639404296875	4956.78132648533
0.955810546875	0.0081207275390625	4956.86982748511
0.951385498046875	0.007598876953125	4956.95832848488
0.94696044921875	0.0070892333984375	4957.04682948466
0.942535400390625	0.0065948486328125	4957.13533048444
0.9381103515625	0.00611572265625	4957.22383148421
0.933685302734375	0.0056427001953125	4957.31233248399
0.92926025390625	0.00518798828125	4957.40083348377
0.924835205078125	0.0047454833984375	4957.48933448354
0.92041015625	0.00431427001953125	4957.57783548332
0.915985107421875	0.0038946533203125	4957.6663364831
0.91156005859375	0.00348419189453125	4957.75483748287
0.907135009765625	0.0030853271484375	4957.84333848265
0.9027099609375	0.00269775390625	4957.93183948243
0.898284912109375	0.0023175048828125	4958.0203404822
0.89385986328125	0.00194610595703125	4958.10884148198
0.889434814453125	0.001583251953125	4958.19734248176
0.885009765625	0.00122894287109375	4958.28584348153
0.880584716796875	0.00088348388671875	4958.37434448131
0.87615966796875	0.00054595947265625	4958.46284548108
0.871734619140625	0.00021612548828125	4958.55134648086
0.8673095703125	-0.00010595703125	4958.63984748064
0.862884521484375	-0.000420806884765625	4958.72834848041
0.85845947265625	-0.00072723388671875	4958.81684948019
0.854034423828125	-0.00102783203125	4958.90535047997
0.849609375	-0.00132110595703125	4958.99385147974
0.845184326171875	-0.001607666015625	4959.08235247952
0.84075927734375	-0.00188812255859375	4959.1708534793
0.836334228515625	-0.00216156005859375	4959.25935447907
0.8319091796875	-0.00242950439453125	4959.34785547885
0.827484130859375	-0.0026898193359375	4959.43635647863
0.82305908203125	-0.0029449462890625	4959.5248574784
0.818634033203125	-0.00319366455078125	4959.61335847818
0.814208984375	-0.00343719482421875	4959.70185947796
0.809783935546875	-0.00367431640625	4959.79036047773
0.80535888671875	-0.0039068603515625	4959.87886147751
0.800933837890625	-0.00413330078125	4959.96736247729
0.7965087890625	-0.00435394287109375	4960.05586347706
0.792083740234375	-0.00456939697265625	4960.14436447684
0.78765869140625	-0.0047802734375	4960.23286547662
0.783233642578125	-0.00498626708984375	4960.32136647639
0.77880859375	-0.00518585205078125	4960.40986747617
0.774383544921875	-0.00538177490234375	4960.49836847595
0.76995849609375	-0.00557220458984375	4960.58686947572
0.765533447265625	-0.005758056640625	4960.6753704755
0.7611083984375	-0.00594024658203125	4960.76387147528
0.756683349609375	-0.0061181640625	4960.85237247505
0.75225830078125	-0.006268310546875	4960.94087347483
0.747833251953125	-0.006439208984375	4961.0293744746
0.743408203125	-0.0066009521484375	4961.11787547438
0.738983154296875	-0.0067626953125	4961.20637647416
0.73455810546875	-0.0069183349609375	4961.29487747393
0.730133056640625	-0.00706787109375	4961.38337847371
0.7257080078125	-0.0072174072265625	4961.47187947349
0.721282958984375	-0.007366943359375	4961.56038047326
0.71685791015625	-0.0075103759765625	4961.64888147304
0.712432861328125	-0.007647705078125	4961.73738247282
0.7080078125	-0.007781982421875	4961.82588347259
0.703582763671875	-0.00791015625	4961.91438447237
0.69915771484375	-0.008038330078125	4962.00288547215
0.694732666015625	-0.0081634521484375	4962.09138647192
0.6903076171875	-0.0082855224609375	4962.1798874717
0.685882568359375	-0.0084075927734375	4962.26838847148
0.68145751953125	-0.008526611328125	4962.35688947125
0.677032470703125	-0.0086395263671875	4962.44539047103
0.672607421875	-0.0087493896484375	4962.53389147081
0.668182373046875	-0.008856201171875	4962.62239247058
0.66375732421875	-0.0089630126953125	4962.71089347036
0.659332275390625	-0.0090667724609375	4962.79939447014
0.6549072265625	-0.009173583984375	4962.88789546991
0.650482177734375	-0.0092742919921875	4962.97639646969
0.64605712890625	-0.009368896484375	4963.06489746947
0.641632080078125	-0.00946044921875	4963.15339846924
0.63720703125	-0.009552001953125	4963.24189946902
0.632781982421875	-0.0096435546875	4963.3304004688
0.62835693359375	-0.00972900390625	4963.41890146857
0.623931884765625	-0.009820556640625	4963.50740246835
0.6195068359375	-0.009906005859375	4963.59590346813
0.615081787109375	-0.0099853515625	4963.6844044679
0.61065673828125	-0.010064697265625	4963.77290546768
0.606231689453125	-0.0101409912109375	4963.86140646745
0.601806640625	-0.01021728515625	4963.94990746723
0.597381591796875	-0.01029052734375	4964.03840846701
0.59295654296875	-0.01036376953125	4964.12690946678
0.588531494140625	-0.01043701171875	4964.21541046656
0.5841064453125	-0.010504150390625	4964.30391146634
0.579681396484375	-0.0105743408203125	4964.39241246611
0.57525634765625	-0.010638427734375	4964.48091346589
0.570831298828125	-0.01070556640625	4964.56941446567
0.56640625	-0.0107757568359375	4964.65791546544
0.561981201171875	-0.0108367919921875	4964.74641646522
0.55755615234375	-0.01090087890625	4964.834917465
0.553131103515625	-0.0109588623046875	4964.92341846477
0.5487060546875	-0.0110198974609375	4965.01191946455
0.544281005859375	-0.011077880859375	4965.10042046433
0.53985595703125	-0.011138916015625	4965.1889214641
0.535430908203125	-0.01119384765625	4965.27742246388
0.531005859375	-0.0112518310546875	4965.36592346366
0.526580810546875	-0.011309814453125	4965.45442446343
0.52215576171875	-0.01136474609375	4965.54292546321
0.517730712890625	-0.011419677734375	4965.63142646299
0.5133056640625	-0.0114715576171875	4965.71992746276
0.508880615234375	-0.0115264892578125	4965.80842846254
0.50445556640625	-0.011578369140625	4965.89692946232
0.500030517578125	-0.0116302490234375	4965.98543046209
0.49560546875	-0.01168212890625	4966.07393146187
0.491180419921875	-0.01173095703125	4966.16243246165
0.48675537109375	-0.0117828369140625	4966.25093346142
0.482330322265625	-0.0118316650390625	4966.3394344612
0.4779052734375	-0.0118804931640625	4966.42793546098
0.473480224609375	-0.0119293212890625	4966.51643646075
0.46905517578125	-0.0119781494140625	4966.60493746053
0.464630126953125	-0.0120269775390625	4966.6934384603
0.460205078125	-0.0120697021484375	4966.78193946008
0.455780029296875	-0.01212158203125	4966.87044045986
0.45135498046875	-0.01217041015625	4966.95894145963
0.446929931640625	-0.012213134765625	4967.04744245941
0.4425048828125	-0.0122589111328125	4967.13594345919
0.438079833984375	-0.0123077392578125	4967.22444445896
0.43365478515625	-0.012353515625	4967.31294545874
0.429229736328125	-0.0123992919921875	4967.40144645852
0.4248046875	-0.0124481201171875	4967.48994745829
0.420379638671875	-0.0124908447265625	4967.57844845807
0.41595458984375	-0.0125335693359375	4967.66694945785
0.411529541015625	-0.012579345703125	4967.75545045762
0.4071044921875	-0.0126220703125	4967.8439514574
0.402679443359375	-0.0126678466796875	4967.93245245718
0.39825439453125	-0.012713623046875	4968.02095345695
0.393829345703125	-0.01275634765625	4968.10945445673
0.389404296875	-0.012799072265625	4968.19795545651
0.384979248046875	-0.012841796875	4968.28645645628
0.38055419921875	-0.0128875732421875	4968.37495745606
0.376129150390625	-0.012933349609375	4968.46345845584
0.3717041015625	-0.0129791259765625	4968.55195945561
0.367279052734375	-0.0130218505859375	4968.64046045539
0.36285400390625	-0.013067626953125	4968.72896145517
0.358428955078125	-0.0131103515625	4968.81746245494
0.35400390625	-0.013153076171875	4968.90596345472
0.349578857421875	-0.0131927490234375	4968.99446445449
0.34515380859375	-0.0132354736328125	4969.08296545427
0.340728759765625	-0.01328125	4969.17146645405
0.3363037109375	-0.013323974609375	4969.25996745383
0.331878662109375	-0.01336669921875	4969.3484684536
0.32745361328125	-0.0134063720703125	4969.43696945338
0.323028564453125	-0.0134490966796875	4969.52547045315
0.318603515625	-0.0134918212890625	4969.61397145293
0.314178466796875	-0.0135345458984375	4969.70247245271
0.30975341796875	-0.0135772705078125	4969.79097345248
0.305328369140625	-0.0136199951171875	4969.87947445226
0.3009033203125	-0.01365966796875	4969.96797545204
0.296478271484375	-0.0136993408203125	4970.05647645181
0.29205322265625	-0.0137420654296875	4970.14497745159
0.287628173828125	-0.01378173828125	4970.23347845137
0.283203125	-0.0138214111328125	4970.32197945114
0.278778076171875	-0.013861083984375	4970.41048045092
0.27435302734375	-0.013897705078125	4970.4989814507
0.269927978515625	-0.0139373779296875	4970.58748245047
0.2655029296875	-0.0139739990234375	4970.67598345025
0.261077880859375	-0.0140106201171875	4970.76448445003
0.25665283203125	-0.0140472412109375	4970.8529854498
0.252227783203125	-0.014080810546875	4970.94148644958
0.247802734375	-0.0141143798828125	4971.02998744936
0.243377685546875	-0.0141510009765625	4971.11848844913
0.23895263671875	-0.0141845703125	4971.20698944891
0.234527587890625	-0.01422119140625	4971.29549044869
0.2301025390625	-0.0142547607421875	4971.38399144846
0.225677490234375	-0.014288330078125	4971.47249244824
0.22125244140625	-0.01431884765625	4971.56099344802
0.216827392578125	-0.0143524169921875	4971.64949444779
0.21240234375	-0.0143829345703125	4971.73799544757
0.207977294921875	-0.01441650390625	4971.82649644734
0.20355224609375	-0.0144500732421875	4971.91499744712
0.199127197265625	-0.0144775390625	4972.0034984469
0.1947021484375	-0.0145050048828125	4972.09199944667
0.190277099609375	-0.0145355224609375	4972.18050044645
0.18585205078125	-0.01456298828125	4972.26900144623
0.181427001953125	-0.014593505859375	4972.357502446
0.177001953125	-0.0146240234375	4972.44600344578
0.172576904296875	-0.0146484375	4972.53450444556
0.16815185546875	-0.014678955078125	4972.62300544533
0.163726806640625	-0.0147003173828125	4972.71150644511
0.1593017578125	-0.0147308349609375	4972.80000744489
0.154876708984375	-0.014752197265625	4972.88850844466
0.15045166015625	-0.0147796630859375	4972.97700944444
0.146026611328125	-0.01480712890625	4973.06551044422
0.1416015625	-0.0148345947265625	4973.15401144399
0.137176513671875	-0.01485595703125	4973.24251244377
0.13275146484375	-0.0148834228515625	4973.33101344355
0.128326416015625	-0.014910888671875	4973.41951444332
0.1239013671875	-0.0149383544921875	4973.5080154431
0.119476318359375	-0.014959716796875	4973.59651644288
0.11505126953125	-0.014984130859375	4973.68501744265
0.110626220703125	-0.015008544921875	4973.77351844243
0.106201171875	-0.015032958984375	4973.86201944221
0.101776123046875	-0.015057373046875	4973.95052044198
0.09735107421875	-0.0150848388671875	4974.03902144176
0.092926025390625	-0.0151092529296875	4974.12752244153
0.0885009765625	-0.0151336669921875	4974.21602344131
0.084075927734375	-0.0151611328125	4974.30452444109
0.07965087890625	-0.015185546875	4974.39302544087
0.075225830078125	-0.0152099609375	4974.48152644064
0.07080078125	-0.0152374267578125	4974.57002744042
0.066375732421875	-0.0152618408203125	4974.65852844019
0.06195068359375	-0.015283203125	4974.74702943997
0.057525634765625	-0.0153106689453125	4974.83553043975
0.0531005859375	-0.0153350830078125	4974.92403143952
0.048675537109375	-0.0153594970703125	4975.0125324393
0.04425048828125	-0.0153839111328125	4975.10103343908
0.039825439453125	-0.0154083251953125	4975.18953443885
0.035400390625	-0.015435791015625	4975.27803543863
0.030975341796875	-0.015460205078125	4975.36653643841
0.02655029296875	-0.0154876708984375	4975.45503743818
0.022125244140625	-0.0155120849609375	4975.54353843796
0.0177001953125	-0.01553955078125	4975.63203943774
0.013275146484375	-0.0155670166015625	4975.72054043751
0.00885009765625	-0.01558837890625	4975.80904143729
0.004425048828125	-0.0156158447265625	4975.89754243707
0	-0.015643310546875	4975.98604343684
0.004425048828125	-0.01483154296875	4976.07454443662
0.00885009765625	-0.0140625	4976.1630454364
0.013275146484375	-0.0133270263671875	4976.25154643617
0.0177001953125	-0.012615966796875	4976.34004743595
0.022125244140625	-0.0119384765625	4976.42854843573
0.02655029296875	-0.0112823486328125	4976.5170494355
0.030975341796875	-0.010650634765625	4976.60555043528
0.035400390625	-0.010040283203125	4976.69405143506
0.039825439453125	-0.0094482421875	4976.78255243483
0.04425048828125	-0.00887451171875	4976.87105343461
0.048675537109375	-0.008319091796875	4976.95955443438
0.0531005859375	-0.0077850341796875	4977.04805543416
0.057525634765625	-0.0072601318359375	4977.13655643394
0.06195068359375	-0.0067535400390625	4977.22505743371
0.066375732421875	-0.0062591552734375	4977.31355843349
0.07080078125	-0.0057830810546875	4977.40205943327
0.075225830078125	-0.0053192138671875	4977.49056043304
0.07965087890625	-0.00487030029296875	4977.57906143282
0.084075927734375	-0.00443145751953125	4977.6675624326
0.0885009765625	-0.00400543212890625	4977.75606343237
0.092926025390625	-0.00359130859375	4977.84456443215
0.09735107421875	-0.00318756103515625	4977.93306543193
0.101776123046875	-0.00280517578125	4978.0215664317
0.106201171875	-0.0024224853515625	4978.11006743148
0.110626220703125	-0.0020489501953125	4978.19856843126
0.11505126953125	-0.001685791015625	4978.28706943103
0.119476318359375	-0.00133453369140625	4978.37557043081
0.1239013671875	-0.00098968505859375	4978.46407143059
0.128326416015625	-0.000654296875	4978.55257243036
0.13275146484375	-0.00032745361328125	4978.64107343014
0.137176513671875	-8.6029052734375E-06	4978.72957442992
0.1416015625	0.00030181884765625	4978.81807542969
0.146026611328125	0.00060577392578125	4978.90657642947
0.15045166015625	0.0009014892578125	4978.99507742925
0.154876708984375	0.0011895751953125	4979.08357842902
0.1593017578125	0.0014703369140625	4979.1720794288
0.163726806640625	0.0017449951171875	4979.26058042858
0.16815185546875	0.00201446533203125	4979.34908142835
0.172576904296875	0.002275390625	4979.43758242813
0.177001953125	0.00252716064453125	4979.52608342791
0.181427001953125	0.0027740478515625	4979.61458442768
0.18585205078125	0.00301422119140625	4979.70308542746
0.190277099609375	0.00324920654296875	4979.79158642723
0.1947021484375	0.003477783203125	4979.88008742701
0.199127197265625	0.0037017822265625	4979.96858842679
0.20355224609375	0.0039202880859375	4980.05708942656
0.207977294921875	0.00413299560546875	4980.14559042634
0.21240234375	0.00433990478515625	4980.23409142612
0.216827392578125	0.0045416259765625	4980.32259242589
0.22125244140625	0.00473876953125	4980.41109342567
0.225677490234375	0.0049322509765625	4980.49959442545
0.2301025390625	0.00512237548828125	4980.58809542522
0.234527587890625	0.00530609130859375	4980.676596425
0.23895263671875	0.00548675537109375	4980.76509742478
0.243377685546875	0.00566314697265625	4980.85359842455
0.247802734375	0.00583465576171875	4980.94209942433
0.252227783203125	0.0060052490234375	4981.03060042411
0.25665283203125	0.0061614990234375	4981.11910142388
0.261077880859375	0.0063232421875	4981.20760242366
0.2655029296875	0.0064788818359375	4981.29610342344
0.269927978515625	0.0066314697265625	4981.38460442321
0.27435302734375	0.0067779541015625	4981.47310542299
0.278778076171875	0.006927490234375	4981.56160642277
0.283203125	0.00706787109375	4981.65010742254
0.287628173828125	0.007208251953125	4981.73860842232
0.29205322265625	0.0073455810546875	4981.8271094221
0.296478271484375	0.0074798583984375	4981.91561042187
0.3009033203125	0.007611083984375	4982.00411142165
0.305328369140625	0.0077392578125	4982.09261242143
0.30975341796875	0.007861328125	4982.1811134212
0.314178466796875	0.007989501953125	4982.26961442098
0.318603515625	0.0081085205078125	4982.35811542075
0.323028564453125	0.0082244873046875	4982.44661642053
0.32745361328125	0.00833740234375	4982.53511742031
0.331878662109375	0.0084503173828125	4982.62361842008
0.3363037109375	0.0085601806640625	4982.71211941986
0.340728759765625	0.0086700439453125	4982.80062041964
0.34515380859375	0.00877685546875	4982.88912141941
0.349578857421875	0.008880615234375	4982.97762241919
0.35400390625	0.0089813232421875	4983.06612341897
0.358428955078125	0.0090850830078125	4983.15462441874
0.36285400390625	0.0091827392578125	4983.24312541852
0.367279052734375	0.0092803955078125	4983.3316264183
0.3717041015625	0.009375	4983.42012741807
0.376129150390625	0.00946044921875	4983.50862841785
0.38055419921875	0.009552001953125	4983.59712941763
0.384979248046875	0.0096466064453125	4983.6856304174
0.389404296875	0.0097381591796875	4983.77413141718
0.393829345703125	0.009820556640625	4983.86263241696
0.39825439453125	0.009906005859375	4983.95113341673
0.402679443359375	0.0099884033203125	4984.03963441651
0.4071044921875	0.01007080078125	4984.12813541629
0.411529541015625	0.010150146484375	4984.21663641606
0.41595458984375	0.0102294921875	4984.30513741584
0.420379638671875	0.010308837890625	4984.39363841562
0.4248046875	0.01038818359375	4984.48213941539
0.429229736328125	0.01046142578125	4984.57064041517
0.43365478515625	0.01053466796875	4984.65914141495
0.438079833984375	0.0106109619140625	4984.74764241472
0.4425048828125	0.01068115234375	4984.8361434145
0.446929931640625	0.01075439453125	4984.92464441428
0.45135498046875	0.0108245849609375	4985.01314541405
0.455780029296875	0.0108917236328125	4985.10164641383
0.460205078125	0.010955810546875	4985.1901474136
0.464630126953125	0.01102294921875	4985.27864841338
0.46905517578125	0.0110870361328125	4985.36714941316
0.473480224609375	0.0111541748046875	4985.45565041293
0.4779052734375	0.0112213134765625	4985.54415141271
0.482330322265625	0.0112823486328125	4985.63265241249
0.48675537109375	0.0113433837890625	4985.72115341226
0.491180419921875	0.0114044189453125	4985.80965441204
0.49560546875	0.0114654541015625	4985.89815541182
0.500030517578125	0.0115264892578125	4985.98665641159
0.50445556640625	0.01158447265625	4986.07515741137
0.508880615234375	0.0116424560546875	4986.16365841115
0.5133056640625	0.011700439453125	4986.25215941092
0.517730712890625	0.01175537109375	4986.3406604107
0.52215576171875	0.011810302734375	4986.42916141048
0.526580810546875	0.011865234375	4986.51766241025
0.531005859375	0.0119171142578125	4986.60616341003
0.535430908203125	0.0119720458984375	4986.69466440981
0.53985595703125	0.01202392578125	4986.78316540958
0.544281005859375	0.012078857421875	4986.87166640936
0.5487060546875	0.012127685546875	4986.96016740914
0.553131103515625	0.0121795654296875	4987.04866840891
0.55755615234375	0.012225341796875	4987.13716940869
0.561981201171875	0.0122772216796875	4987.22567040847
0.56640625	0.012322998046875	4987.31417140824
0.570831298828125	0.0123687744140625	4987.40267240802
0.57525634765625	0.0124176025390625	4987.4911734078
0.579681396484375	0.01246337890625	4987.57967440757
0.5841064453125	0.0125091552734375	4987.66817540735
0.588531494140625	0.012548828125	4987.75667640713
0.59295654296875	0.012591552734375	4987.8451774069
0.597381591796875	0.01263427734375	4987.93367840668
0.601806640625	0.012677001953125	4988.02217940645
0.606231689453125	0.0127197265625	4988.11068040623
0.61065673828125	0.0127593994140625	4988.19918140601
0.615081787109375	0.0128021240234375	4988.28768240578
0.6195068359375	0.0128387451171875	4988.37618340556
0.623931884765625	0.01287841796875	4988.46468440534
0.62835693359375	0.012921142578125	4988.55318540511
0.632781982421875	0.0129608154296875	4988.64168640489
0.63720703125	0.012994384765625	4988.73018740467
0.641632080078125	0.013031005859375	4988.81868840444
0.64605712890625	0.013067626953125	4988.90718940422
0.650482177734375	0.0131011962890625	4988.995690404
0.6549072265625	0.013134765625	4989.08419140377
0.659332275390625	0.0131683349609375	4989.17269240355
0.66375732421875	0.013201904296875	4989.26119340333
0.668182373046875	0.0132354736328125	4989.3496944031
0.672607421875	0.0132659912109375	4989.43819540288
0.677032470703125	0.0132965087890625	4989.52669640266
0.68145751953125	0.013330078125	4989.61519740243
0.685882568359375	0.0133575439453125	4989.70369840221
0.6903076171875	0.0133880615234375	4989.79219940199
0.694732666015625	0.0134185791015625	4989.88070040176
0.69915771484375	0.013446044921875	4989.96920140154
0.703582763671875	0.013470458984375	4990.05770240132
0.7080078125	0.0134979248046875	4990.14620340109
0.712432861328125	0.0135284423828125	4990.23470440087
0.71685791015625	0.0135528564453125	4990.32320540064
0.721282958984375	0.013580322265625	4990.41170640042
0.7257080078125	0.013604736328125	4990.5002074002
0.730133056640625	0.0136322021484375	4990.58870839998
0.73455810546875	0.0136566162109375	4990.67720939975
0.738983154296875	0.0136810302734375	4990.76571039953
0.743408203125	0.0137054443359375	4990.8542113993
0.747833251953125	0.0137298583984375	4990.94271239908
0.75225830078125	0.013751220703125	4991.03121339886
0.756683349609375	0.0137786865234375	4991.11971439863
0.7611083984375	0.0138031005859375	4991.20821539841
0.765533447265625	0.0138214111328125	4991.29671639819
0.76995849609375	0.013848876953125	4991.38521739796
0.774383544921875	0.013873291015625	4991.47371839774
0.77880859375	0.0138946533203125	4991.56221939752
0.783233642578125	0.013916015625	4991.65072039729
0.78765869140625	0.0139373779296875	4991.73922139707
0.792083740234375	0.013958740234375	4991.82772239685
0.7965087890625	0.013983154296875	4991.91622339662
0.800933837890625	0.0140045166015625	4992.0047243964
0.80535888671875	0.01402587890625	4992.09322539618
0.809783935546875	0.01405029296875	4992.18172639595
0.814208984375	0.0140655517578125	4992.27022739573
0.818634033203125	0.0140869140625	4992.35872839551
0.82305908203125	0.0141082763671875	4992.44722939528
0.827484130859375	0.0141326904296875	4992.53573039506
0.8319091796875	0.014154052734375	4992.62423139484
0.836334228515625	0.014178466796875	4992.71273239461
0.84075927734375	0.0141998291015625	4992.80123339439
0.845184326171875	0.0142242431640625	4992.88973439417
0.849609375	0.01424560546875	4992.97823539394
0.854034423828125	0.01427001953125	4993.06673639372
0.85845947265625	0.01429443359375	4993.15523739349
0.862884521484375	0.014312744140625	4993.24373839327
0.8673095703125	0.014337158203125	4993.33223939305
0.871734619140625	0.014361572265625	4993.42074039282
0.87615966796875	0.0143890380859375	4993.5092413926
0.880584716796875	0.0144134521484375	4993.59774239238
0.885009765625	0.0144378662109375	4993.68624339215
0.889434814453125	0.0144622802734375	4993.77474439193
0.89385986328125	0.01448974609375	4993.86324539171
0.898284912109375	0.014520263671875	4993.95174639148
0.9027099609375	0.0145477294921875	4994.04024739126
0.907135009765625	0.0145751953125	4994.12874839104
0.91156005859375	0.014605712890625	4994.21724939081
0.915985107421875	0.01463623046875	4994.30575039059
0.92041015625	0.0146636962890625	4994.39425139037
0.924835205078125	0.014697265625	4994.48275239014
0.92926025390625	0.0147308349609375	4994.57125338992
0.933685302734375	0.0147674560546875	4994.6597543897
0.9381103515625	0.01480712890625	4994.74825538947
0.942535400390625	0.0148406982421875	4994.83675638925
0.94696044921875	0.01488037109375	4994.92525738903
0.951385498046875	0.0149169921875	4995.0137583888
0.955810546875	0.0149566650390625	4995.10225938858
0.960235595703125	0.01500244140625	4995.19076038836
0.96466064453125	0.015045166015625	4995.27926138813
0.969085693359375	0.0150909423828125	4995.36776238791
0.9735107421875	0.01513671875	4995.45626338768
0.977935791015625	0.0151824951171875	4995.54476438746
0.98236083984375	0.015234375	4995.63326538724
0.986785888671875	0.015283203125	4995.72176638702
0.9912109375	0.0153411865234375	4995.81026738679
0.995635986328125	0.0153961181640625	4995.89876838657
1.00006103515625	0.0154541015625	4995.98726938634
0.995635986328125	0.0146636962890625	4996.07577038612
0.9912109375	0.013922119140625	4996.1642713859
0.986785888671875	0.0132110595703125	4996.25277238567
0.98236083984375	0.0125274658203125	4996.34127338545
0.977935791015625	0.01187744140625	4996.42977438523
0.9735107421875	0.011248779296875	4996.518275385
0.969085693359375	0.0106414794921875	4996.60677638478
0.96466064453125	0.010052490234375	4996.69527738456
0.960235595703125	0.0094818115234375	4996.78377838433
0.955810546875	0.0089324951171875	4996.87227938411
0.951385498046875	0.0083984375	4996.96078038389
0.94696044921875	0.007879638671875	4997.04928138366
0.942535400390625	0.0073760986328125	4997.13778238344
0.9381103515625	0.0068878173828125	4997.22628338322
0.933685302734375	0.0064056396484375	4997.31478438299
0.92926025390625	0.00594482421875	4997.40328538277
0.924835205078125	0.0054931640625	4997.49178638255
0.92041015625	0.0050506591796875	4997.58028738232
0.915985107421875	0.0046234130859375	4997.6687883821
0.91156005859375	0.00420623779296875	4997.75728938188
0.907135009765625	0.00379852294921875	4997.84579038165
0.9027099609375	0.00340057373046875	4997.93429138143
0.898284912109375	0.0030126953125	4998.02279238121
0.89385986328125	0.00263641357421875	4998.11129338098
0.889434814453125	0.00226593017578125	4998.19979438076
0.885009765625	0.00190460205078125	4998.28829538053
0.880584716796875	0.00155120849609375	4998.37679638031
0.87615966796875	0.0012060546875	4998.46529738009
0.871734619140625	0.00086883544921875	4998.55379837986
0.8673095703125	0.0005401611328125	4998.64229937964
0.862884521484375	0.000218475341796875	4998.73080037942
0.85845947265625	-9.4573974609375E-05	4998.81930137919
0.854034423828125	-0.000402069091796875	4998.90780237897
0.849609375	-0.00070220947265625	4998.99630337875
0.845184326171875	-0.00099517822265625	4999.08480437852
0.84075927734375	-0.00128204345703125	4999.1733053783
0.836334228515625	-0.001561279296875	4999.26180637808
0.8319091796875	-0.00183502197265625	4999.35030737785
0.827484130859375	-0.00210235595703125	4999.43880837763
0.82305908203125	-0.0023638916015625	4999.52730937741
0.818634033203125	-0.00261871337890625	4999.61581037718
0.814208984375	-0.0028680419921875	4999.70431137696
0.809783935546875	-0.0031103515625	4999.79281237674
0.80535888671875	-0.003348388671875	4999.88131337651
0.800933837890625	-0.00358062744140625	4999.96981437629
0.7965087890625	-0.00380706787109375	5000.05831537607
0.792083740234375	-0.0040289306640625	5000.14681637584
0.78765869140625	-0.00424407958984375	5000.23531737562
0.783233642578125	-0.00445526123046875	5000.3238183754
0.77880859375	-0.00466033935546875	5000.41231937517
0.774383544921875	-0.00486175537109375	5000.50082037495
0.76995849609375	-0.0050579833984375	5000.58932137473
0.765533447265625	-0.005250244140625	5000.6778223745
0.7611083984375	-0.00543701171875	5000.76632337428
0.756683349609375	-0.0056195068359375	5000.85482437406
0.75225830078125	-0.00579620361328125	5000.94332537383
0.747833251953125	-0.00597015380859375	5001.03182637361
0.743408203125	-0.00614013671875	5001.12032737338
0.738983154296875	-0.006280517578125	5001.20882837316
0.73455810546875	-0.0064422607421875	5001.29732937294
0.730133056640625	-0.0066009521484375	5001.38583037271
0.7257080078125	-0.0067535400390625	5001.47433137249
0.721282958984375	-0.006903076171875	5001.56283237227
0.71685791015625	-0.0070526123046875	5001.65133337204
0.712432861328125	-0.007196044921875	5001.73983437182
0.7080078125	-0.0073333740234375	5001.8283353716
0.703582763671875	-0.007470703125	5001.91683637137
0.69915771484375	-0.0076019287109375	5002.00533737115
0.694732666015625	-0.0077301025390625	5002.09383837093
0.6903076171875	-0.007855224609375	5002.1823393707
0.685882568359375	-0.0079803466796875	5002.27084037048
0.68145751953125	-0.0081024169921875	5002.35934137026
0.677032470703125	-0.008221435546875	5002.44784237003
0.672607421875	-0.00833740234375	5002.53634336981
0.668182373046875	-0.008447265625	5002.62484436959
0.66375732421875	-0.00855712890625	5002.71334536936
0.659332275390625	-0.0086639404296875	5002.80184636914
0.6549072265625	-0.0087677001953125	5002.89034736892
0.650482177734375	-0.0088714599609375	5002.97884836869
0.64605712890625	-0.00897216796875	5003.06734936847
0.641632080078125	-0.00906982421875	5003.15585036825
0.63720703125	-0.00916748046875	5003.24435136802
0.632781982421875	-0.0092620849609375	5003.3328523678
0.62835693359375	-0.0093536376953125	5003.42135336758
0.623931884765625	-0.0094482421875	5003.50985436735
0.6195068359375	-0.009539794921875	5003.59835536713
0.615081787109375	-0.0096282958984375	5003.6868563669
0.61065673828125	-0.0097137451171875	5003.77535736668
0.606231689453125	-0.0097930908203125	5003.86385836646
0.601806640625	-0.00987548828125	5003.95235936623
0.597381591796875	-0.0099517822265625	5004.04086036601
0.59295654296875	-0.010028076171875	5004.12936136579
0.588531494140625	-0.010107421875	5004.21786236556
0.5841064453125	-0.0101806640625	5004.30636336534
0.579681396484375	-0.0102508544921875	5004.39486436512
0.57525634765625	-0.010321044921875	5004.48336536489
0.570831298828125	-0.0103912353515625	5004.57186636467
0.56640625	-0.0104583740234375	5004.66036736445
0.561981201171875	-0.010528564453125	5004.74886836422
0.55755615234375	-0.010595703125	5004.837369364
0.553131103515625	-0.0106597900390625	5004.92587036378
0.5487060546875	-0.010723876953125	5005.01437136355
0.544281005859375	-0.0107879638671875	5005.10287236333
0.53985595703125	-0.010845947265625	5005.19137336311
0.535430908203125	-0.0109100341796875	5005.27987436288
0.531005859375	-0.010968017578125	5005.36837536266
0.526580810546875	-0.0110260009765625	5005.45687636244
0.52215576171875	-0.0110870361328125	5005.54537736221
0.517730712890625	-0.0111419677734375	5005.63387836199
0.5133056640625	-0.011199951171875	5005.72237936177
0.508880615234375	-0.0112579345703125	5005.81088036154
0.50445556640625	-0.0113128662109375	5005.89938136132
0.500030517578125	-0.0113677978515625	5005.9878823611
0.49560546875	-0.0114227294921875	5006.07638336087
0.491180419921875	-0.0114776611328125	5006.16488436065
0.48675537109375	-0.011529541015625	5006.25338536043
0.482330322265625	-0.01158447265625	5006.3418863602
0.4779052734375	-0.0116363525390625	5006.43038735998
0.473480224609375	-0.011688232421875	5006.51888835975
0.46905517578125	-0.0117401123046875	5006.60738935953
0.464630126953125	-0.0117889404296875	5006.69589035931
0.460205078125	-0.0118408203125	5006.78439135908
0.455780029296875	-0.0118896484375	5006.87289235886
0.45135498046875	-0.0119384765625	5006.96139335864
0.446929931640625	-0.0119873046875	5007.04989435841
0.4425048828125	-0.0120391845703125	5007.13839535819
0.438079833984375	-0.0120880126953125	5007.22689635797
0.43365478515625	-0.0121337890625	5007.31539735774
0.429229736328125	-0.0121826171875	5007.40389835752
0.4248046875	-0.0122344970703125	5007.4923993573
0.420379638671875	-0.0122802734375	5007.58090035707
0.41595458984375	-0.0123291015625	5007.66940135685
0.411529541015625	-0.0123748779296875	5007.75790235663
0.4071044921875	-0.0124237060546875	5007.8464033564
0.402679443359375	-0.012469482421875	5007.93490435618
0.39825439453125	-0.01251220703125	5008.02340535596
0.393829345703125	-0.0125579833984375	5008.11190635573
0.389404296875	-0.012603759765625	5008.20040735551
0.384979248046875	-0.012652587890625	5008.28890835529
0.38055419921875	-0.0126983642578125	5008.37740935506
0.376129150390625	-0.0127471923828125	5008.46591035484
0.3717041015625	-0.01279296875	5008.55441135462
0.367279052734375	-0.012835693359375	5008.64291235439
0.36285400390625	-0.0128814697265625	5008.73141335417
0.358428955078125	-0.0129302978515625	5008.81991435395
0.35400390625	-0.01297607421875	5008.90841535372
0.349578857421875	-0.013018798828125	5008.9969163535
0.34515380859375	-0.0130645751953125	5009.08541735328
0.340728759765625	-0.0131103515625	5009.17391835305
0.3363037109375	-0.013153076171875	5009.26241935283
0.331878662109375	-0.0131988525390625	5009.3509203526
0.32745361328125	-0.0132415771484375	5009.43942135238
0.323028564453125	-0.0132843017578125	5009.52792235216
0.318603515625	-0.013330078125	5009.61642335193
0.314178466796875	-0.0133758544921875	5009.70492435171
0.30975341796875	-0.013421630859375	5009.79342535149
0.305328369140625	-0.01346435546875	5009.88192635126
0.3009033203125	-0.013507080078125	5009.97042735104
0.296478271484375	-0.0135467529296875	5010.05892835082
0.29205322265625	-0.01358642578125	5010.14742935059
0.287628173828125	-0.013629150390625	5010.23593035037
0.283203125	-0.0136688232421875	5010.32443135015
0.278778076171875	-0.01370849609375	5010.41293234992
0.27435302734375	-0.013751220703125	5010.5014333497
0.269927978515625	-0.013787841796875	5010.58993434948
0.2655029296875	-0.0138275146484375	5010.67843534925
0.261077880859375	-0.0138671875	5010.76693634903
0.25665283203125	-0.01390380859375	5010.85543734881
0.252227783203125	-0.0139404296875	5010.94393834858
0.247802734375	-0.01397705078125	5011.03243934836
0.243377685546875	-0.014013671875	5011.12094034814
0.23895263671875	-0.0140472412109375	5011.20944134791
0.234527587890625	-0.014080810546875	5011.29794234769
0.2301025390625	-0.0141143798828125	5011.38644334747
0.225677490234375	-0.01414794921875	5011.47494434724
0.22125244140625	-0.0141815185546875	5011.56344534702
0.216827392578125	-0.014215087890625	5011.65194634679
0.21240234375	-0.0142486572265625	5011.74044734657
0.207977294921875	-0.0142791748046875	5011.82894834635
0.20355224609375	-0.014312744140625	5011.91744934613
0.199127197265625	-0.0143402099609375	5012.0059503459
0.1947021484375	-0.014373779296875	5012.09445134568
0.190277099609375	-0.0144012451171875	5012.18295234545
0.18585205078125	-0.0144287109375	5012.27145334523
0.181427001953125	-0.014459228515625	5012.35995434501
0.177001953125	-0.0144866943359375	5012.44845534478
0.172576904296875	-0.01451416015625	5012.53695634456
0.16815185546875	-0.0145416259765625	5012.62545734434
0.163726806640625	-0.014569091796875	5012.71395834411
0.1593017578125	-0.014593505859375	5012.80245934389
0.154876708984375	-0.0146209716796875	5012.89096034367
0.15045166015625	-0.0146484375	5012.97946134344
0.146026611328125	-0.0146728515625	5013.06796234322
0.1416015625	-0.014697265625	5013.156463343
0.137176513671875	-0.0147247314453125	5013.24496434277
0.13275146484375	-0.0147491455078125	5013.33346534255
0.128326416015625	-0.0147735595703125	5013.42196634233
0.1239013671875	-0.0147979736328125	5013.5104673421
0.119476318359375	-0.0148193359375	5013.59896834188
0.11505126953125	-0.0148406982421875	5013.68746934166
0.110626220703125	-0.0148651123046875	5013.77597034143
0.106201171875	-0.0148895263671875	5013.86447134121
0.101776123046875	-0.014910888671875	5013.95297234099
0.09735107421875	-0.014935302734375	5014.04147334076
0.092926025390625	-0.0149566650390625	5014.12997434054
0.0885009765625	-0.0149810791015625	5014.21847534032
0.084075927734375	-0.015008544921875	5014.30697634009
0.07965087890625	-0.0150299072265625	5014.39547733987
0.075225830078125	-0.01505126953125	5014.48397833964
0.07080078125	-0.0150726318359375	5014.57247933942
0.066375732421875	-0.0150970458984375	5014.6609803392
0.06195068359375	-0.0151214599609375	5014.74948133897
0.057525634765625	-0.015142822265625	5014.83798233875
0.0531005859375	-0.015167236328125	5014.92648333853
0.048675537109375	-0.0151885986328125	5015.0149843383
0.04425048828125	-0.0152130126953125	5015.10348533808
0.039825439453125	-0.0152313232421875	5015.19198633786
0.035400390625	-0.0152587890625	5015.28048733763
0.030975341796875	-0.015283203125	5015.36898833741
0.02655029296875	-0.0153076171875	5015.45748933719
0.022125244140625	-0.01533203125	5015.54599033696
0.0177001953125	-0.0153564453125	5015.63449133674
0.013275146484375	-0.015380859375	5015.72299233652
0.00885009765625	-0.0154083251953125	5015.81149333629
0.004425048828125	-0.0154327392578125	5015.89999433607
0	-0.015460205078125	5015.98849533585
0.004425048828125	-0.0146453857421875	5016.07699633562
0.00885009765625	-0.01387939453125	5016.1654973354
0.013275146484375	-0.013140869140625	5016.25399833518
0.0177001953125	-0.0124359130859375	5016.34249933495
0.022125244140625	-0.0117523193359375	5016.43100033473
0.02655029296875	-0.0110992431640625	5016.51950133451
0.030975341796875	-0.010467529296875	5016.60800233428
0.035400390625	-0.009857177734375	5016.69650333406
0.039825439453125	-0.00926513671875	5016.78500433384
0.04425048828125	-0.00869140625	5016.87350533361
0.048675537109375	-0.0081390380859375	5016.96200633339
0.0531005859375	-0.00760498046875	5017.05050733317
0.057525634765625	-0.0070831298828125	5017.13900833294
0.06195068359375	-0.0065765380859375	5017.22750933272
0.066375732421875	-0.0060882568359375	5017.31601033249
0.07080078125	-0.005609130859375	5017.40451133227
0.075225830078125	-0.0051483154296875	5017.49301233205
0.07965087890625	-0.004700927734375	5017.58151333182
0.084075927734375	-0.00426483154296875	5017.6700143316
0.0885009765625	-0.00384063720703125	5017.75851533138
0.092926025390625	-0.0034283447265625	5017.84701633115
0.09735107421875	-0.00302642822265625	5017.93551733093
0.101776123046875	-0.00264617919921875	5018.02401833071
0.106201171875	-0.00226531982421875	5018.11251933048
0.110626220703125	-0.00189422607421875	5018.20102033026
0.11505126953125	-0.001533203125	5018.28952133004
0.119476318359375	-0.00118377685546875	5018.37802232981
0.1239013671875	-0.000841064453125	5018.46652332959
0.128326416015625	-0.00050750732421875	5018.55502432937
0.13275146484375	-0.000182281494140625	5018.64352532914
0.137176513671875	0.000134124755859375	5018.73202632892
0.1416015625	0.000442413330078125	5018.8205273287
0.146026611328125	0.0007440185546875	5018.90902832847
0.15045166015625	0.00103790283203125	5018.99752932825
0.154876708984375	0.001324462890625	5019.08603032803
0.1593017578125	0.00160400390625	5019.1745313278
0.163726806640625	0.0018768310546875	5019.26303232758
0.16815185546875	0.002142333984375	5019.35153332736
0.172576904296875	0.0023992919921875	5019.44003432713
0.177001953125	0.0026507568359375	5019.52853532691
0.181427001953125	0.0028961181640625	5019.61703632669
0.18585205078125	0.003134765625	5019.70553732646
0.190277099609375	0.00336761474609375	5019.79403832624
0.1947021484375	0.0035943603515625	5019.88253932601
0.199127197265625	0.00381561279296875	5019.97104032579
0.20355224609375	0.00403167724609375	5020.05954132557
0.207977294921875	0.00424285888671875	5020.14804232534
0.21240234375	0.0044476318359375	5020.23654332512
0.216827392578125	0.0046478271484375	5020.3250443249
0.22125244140625	0.0048431396484375	5020.41354532467
0.225677490234375	0.00503509521484375	5020.50204632445
0.2301025390625	0.00522369384765625	5020.59054732423
0.234527587890625	0.00540679931640625	5020.679048324
0.23895263671875	0.0055865478515625	5020.76754932378
0.243377685546875	0.0057611083984375	5020.85605032356
0.247802734375	0.0059320068359375	5020.94455132333
0.252227783203125	0.00609893798828125	5021.03305232311
0.25665283203125	0.006256103515625	5021.12155332289
0.261077880859375	0.0064117431640625	5021.21005432266
0.2655029296875	0.0065704345703125	5021.29855532244
0.269927978515625	0.006719970703125	5021.38705632222
0.27435302734375	0.0068695068359375	5021.47555732199
0.278778076171875	0.007012939453125	5021.56405832177
0.283203125	0.0071533203125	5021.65255932155
0.287628173828125	0.0072906494140625	5021.74106032132
0.29205322265625	0.007427978515625	5021.8295613211
0.296478271484375	0.0075592041015625	5021.91806232088
0.3009033203125	0.0076904296875	5022.00656332065
0.305328369140625	0.0078155517578125	5022.09506432043
0.30975341796875	0.007940673828125	5022.18356532021
0.314178466796875	0.008062744140625	5022.27206631998
0.318603515625	0.0081817626953125	5022.36056731976
0.323028564453125	0.0082977294921875	5022.44906831954
0.32745361328125	0.00841064453125	5022.53756931931
0.331878662109375	0.0085205078125	5022.62607031909
0.3363037109375	0.0086273193359375	5022.71457131886
0.340728759765625	0.008734130859375	5022.80307231864
0.34515380859375	0.008837890625	5022.89157331842
0.349578857421875	0.008941650390625	5022.98007431819
0.35400390625	0.009039306640625	5023.06857531797
0.358428955078125	0.0091400146484375	5023.15707631775
0.36285400390625	0.00924072265625	5023.24557731752
0.367279052734375	0.0093353271484375	5023.3340783173
0.3717041015625	0.009423828125	5023.42257931708
0.376129150390625	0.009521484375	5023.51108031685
0.38055419921875	0.0096160888671875	5023.59958131663
0.384979248046875	0.00970458984375	5023.68808231641
0.389404296875	0.0097900390625	5023.77658331618
0.393829345703125	0.00987548828125	5023.86508431596
0.39825439453125	0.0099578857421875	5023.95358531574
0.402679443359375	0.010040283203125	5024.04208631551
0.4071044921875	0.0101226806640625	5024.13058731529
0.411529541015625	0.0102020263671875	5024.21908831507
0.41595458984375	0.0102783203125	5024.30758931484
0.420379638671875	0.0103546142578125	5024.39609031462
0.4248046875	0.0104339599609375	5024.4845913144
0.429229736328125	0.0105072021484375	5024.57309231417
0.43365478515625	0.01058349609375	5024.66159331395
0.438079833984375	0.0106536865234375	5024.75009431373
0.4425048828125	0.0107269287109375	5024.8385953135
0.446929931640625	0.010797119140625	5024.92709631328
0.45135498046875	0.0108642578125	5025.01559731305
0.455780029296875	0.0109344482421875	5025.10409831283
0.460205078125	0.01099853515625	5025.19259931261
0.464630126953125	0.011065673828125	5025.28110031239
0.46905517578125	0.0111297607421875	5025.36960131216
0.473480224609375	0.01119384765625	5025.45810231194
0.4779052734375	0.0112579345703125	5025.54660331171
0.482330322265625	0.0113189697265625	5025.63510431149
0.48675537109375	0.011383056640625	5025.72360531127
0.491180419921875	0.011444091796875	5025.81210631104
0.49560546875	0.011505126953125	5025.90060731082
0.500030517578125	0.0115631103515625	5025.9891083106
0.50445556640625	0.01162109375	5026.07760931037
0.508880615234375	0.0116790771484375	5026.16611031015
0.5133056640625	0.0117340087890625	5026.25461130993
0.517730712890625	0.0117919921875	5026.3431123097
0.52215576171875	0.0118438720703125	5026.43161330948
0.526580810546875	0.0118988037109375	5026.52011430926
0.531005859375	0.0119537353515625	5026.60861530903
0.535430908203125	0.012005615234375	5026.69711630881
0.53985595703125	0.0120574951171875	5026.78561730859
0.544281005859375	0.012109375	5026.87411830836
0.5487060546875	0.012158203125	5026.96261930814
0.553131103515625	0.0122100830078125	5027.05112030792
0.55755615234375	0.0122589111328125	5027.13962130769
0.561981201171875	0.0123046875	5027.22812230747
0.56640625	0.0123504638671875	5027.31662330725
0.570831298828125	0.0123992919921875	5027.40512430702
0.57525634765625	0.012445068359375	5027.4936253068
0.579681396484375	0.0124908447265625	5027.58212630658
0.5841064453125	0.01253662109375	5027.67062730635
0.588531494140625	0.0125762939453125	5027.75912830613
0.59295654296875	0.0126190185546875	5027.8476293059
0.597381591796875	0.0126617431640625	5027.93613030568
0.601806640625	0.012701416015625	5028.02463130546
0.606231689453125	0.012744140625	5028.11313230524
0.61065673828125	0.0127838134765625	5028.20163330501
0.615081787109375	0.0128265380859375	5028.29013430479
0.6195068359375	0.0128631591796875	5028.37863530456
0.623931884765625	0.01290283203125	5028.46713630434
0.62835693359375	0.012945556640625	5028.55563730412
0.632781982421875	0.012982177734375	5028.64413830389
0.63720703125	0.013018798828125	5028.73263930367
0.641632080078125	0.013055419921875	5028.82114030345
0.64605712890625	0.0130889892578125	5028.90964130322
0.650482177734375	0.0131256103515625	5028.998142303
0.6549072265625	0.0131591796875	5029.08664330278
0.659332275390625	0.0131927490234375	5029.17514430255
0.66375732421875	0.0132232666015625	5029.26364530233
0.668182373046875	0.0132537841796875	5029.35214630211
0.672607421875	0.0132843017578125	5029.44064730188
0.677032470703125	0.0133148193359375	5029.52914830166
0.68145751953125	0.0133453369140625	5029.61764930144
0.685882568359375	0.0133758544921875	5029.70615030121
0.6903076171875	0.0134033203125	5029.79465130099
0.694732666015625	0.013433837890625	5029.88315230077
0.69915771484375	0.0134613037109375	5029.97165330054
0.703582763671875	0.0134857177734375	5030.06015430032
0.7080078125	0.0135162353515625	5030.1486553001
0.712432861328125	0.013543701171875	5030.23715629987
0.71685791015625	0.013568115234375	5030.32565729965
0.721282958984375	0.0135955810546875	5030.41415829943
0.7257080078125	0.013623046875	5030.5026592992
0.730133056640625	0.0136474609375	5030.59116029898
0.73455810546875	0.013671875	5030.67966129875
0.738983154296875	0.0136962890625	5030.76816229853
0.743408203125	0.0137176513671875	5030.85666329831
0.747833251953125	0.0137420654296875	5030.94516429808
0.75225830078125	0.013763427734375	5031.03366529786
0.756683349609375	0.013787841796875	5031.12216629764
0.7611083984375	0.013812255859375	5031.21066729741
0.765533447265625	0.013836669921875	5031.29916829719
0.76995849609375	0.01385498046875	5031.38766929697
0.774383544921875	0.01387939453125	5031.47617029674
0.77880859375	0.01390380859375	5031.56467129652
0.783233642578125	0.0139251708984375	5031.6531722963
0.78765869140625	0.013946533203125	5031.74167329607
0.792083740234375	0.0139678955078125	5031.83017429585
0.7965087890625	0.0139892578125	5031.91867529563
0.800933837890625	0.0140106201171875	5032.0071762954
0.80535888671875	0.014031982421875	5032.09567729518
0.809783935546875	0.0140533447265625	5032.18417829496
0.814208984375	0.01407470703125	5032.27267929473
0.818634033203125	0.014093017578125	5032.36118029451
0.82305908203125	0.014117431640625	5032.44968129429
0.827484130859375	0.0141387939453125	5032.53818229406
0.8319091796875	0.01416015625	5032.62668329384
0.836334228515625	0.0141845703125	5032.71518429362
0.84075927734375	0.0142059326171875	5032.80368529339
0.845184326171875	0.014227294921875	5032.89218629317
0.849609375	0.014251708984375	5032.98068729295
0.854034423828125	0.01427001953125	5033.06918829272
0.85845947265625	0.0142974853515625	5033.1576892925
0.862884521484375	0.01431884765625	5033.24619029228
0.8673095703125	0.0143402099609375	5033.33469129205
0.871734619140625	0.0143646240234375	5033.42319229183
0.87615966796875	0.0143890380859375	5033.5116932916
0.880584716796875	0.0144134521484375	5033.60019429138
0.885009765625	0.01444091796875	5033.68869529116
0.889434814453125	0.01446533203125	5033.77719629093
0.89385986328125	0.01448974609375	5033.86569729071
0.898284912109375	0.014520263671875	5033.95419829049
0.9027099609375	0.0145477294921875	5034.04269929026
0.907135009765625	0.0145751953125	5034.13120029004
0.91156005859375	0.014605712890625	5034.21970128982
0.915985107421875	0.0146331787109375	5034.30820228959
0.92041015625	0.0146636962890625	5034.39670328937
0.924835205078125	0.014697265625	5034.48520428915
0.92926025390625	0.0147308349609375	5034.57370528892
0.933685302734375	0.014764404296875	5034.6622062887
0.9381103515625	0.0148040771484375	5034.75070728848
0.942535400390625	0.0148406982421875	5034.83920828825
0.94696044921875	0.0148773193359375	5034.92770928803
0.951385498046875	0.0149139404296875	5035.01621028781
0.955810546875	0.01495361328125	5035.10471128758
0.960235595703125	0.014996337890625	5035.19321228736
0.96466064453125	0.0150390625	5035.28171328714
0.969085693359375	0.0150848388671875	5035.37021428691
0.9735107421875	0.0151336669921875	5035.45871528669
0.977935791015625	0.015179443359375	5035.54721628647
0.98236083984375	0.015228271484375	5035.63571728624
0.986785888671875	0.0152801513671875	5035.72421828602
0.9912109375	0.0153350830078125	5035.8127192858
0.995635986328125	0.0153900146484375	5035.90122028557
1.00006103515625	0.0154510498046875	5035.98972128535
0.995635986328125	0.01466064453125	5036.07822228512
0.9912109375	0.0139190673828125	5036.1667232849
0.986785888671875	0.0132110595703125	5036.25522428468
0.98236083984375	0.0125274658203125	5036.34372528445
0.977935791015625	0.0118743896484375	5036.43222628423
0.9735107421875	0.011248779296875	5036.52072728401
0.969085693359375	0.01064453125	5036.60922828378
0.96466064453125	0.0100555419921875	5036.69772928356
0.960235595703125	0.00948486328125	5036.78623028334
0.955810546875	0.008935546875	5036.87473128311
0.951385498046875	0.0084014892578125	5036.96323228289
0.94696044921875	0.0078826904296875	5037.05173328267
0.942535400390625	0.0073822021484375	5037.14023428244
0.9381103515625	0.0068939208984375	5037.22873528222
0.933685302734375	0.0064117431640625	5037.317236282
0.92926025390625	0.005950927734375	5037.40573728177
0.924835205078125	0.005499267578125	5037.49423828155
0.92041015625	0.0050567626953125	5037.58273928133
0.915985107421875	0.00463104248046875	5037.6712402811
0.91156005859375	0.0042138671875	5037.75974128088
0.907135009765625	0.0038067626953125	5037.84824228066
0.9027099609375	0.00341033935546875	5037.93674328043
0.898284912109375	0.00302276611328125	5038.02524428021
0.89385986328125	0.00264678955078125	5038.11374527999
0.889434814453125	0.002276611328125	5038.20224627976
0.885009765625	0.00191558837890625	5038.29074727954
0.880584716796875	0.00156341552734375	5038.37924827932
0.87615966796875	0.0012188720703125	5038.46774927909
0.871734619140625	0.00088287353515625	5038.55625027887
0.8673095703125	0.0005535888671875	5038.64475127865
0.862884521484375	0.000232818603515625	5038.73325227842
0.85845947265625	-8.0108642578125E-05	5038.8217532782
0.854034423828125	-0.000386322021484375	5038.91025427797
0.849609375	-0.00068634033203125	5038.99875527775
0.845184326171875	-0.00097930908203125	5039.08725627753
0.84075927734375	-0.00126556396484375	5039.1757572773
0.836334228515625	-0.00154541015625	5039.26425827708
0.8319091796875	-0.00181884765625	5039.35275927686
0.827484130859375	-0.0020849609375	5039.44126027663
0.82305908203125	-0.0023455810546875	5039.52976127641
0.818634033203125	-0.00260009765625	5039.61826227619
0.814208984375	-0.00284942626953125	5039.70676327596
0.809783935546875	-0.0030926513671875	5039.79526427574
0.80535888671875	-0.00332977294921875	5039.88376527552
0.800933837890625	-0.0035614013671875	5039.97226627529
0.7965087890625	-0.0037872314453125	5040.06076727507
0.792083740234375	-0.0040087890625	5040.14926827485
0.78765869140625	-0.004224853515625	5040.23776927462
0.783233642578125	-0.00443634033203125	5040.3262702744
0.77880859375	-0.00464111328125	5040.41477127418
0.774383544921875	-0.00484161376953125	5040.50327227395
0.76995849609375	-0.00503662109375	5040.59177327373
0.765533447265625	-0.0052288818359375	5040.68027427351
0.7611083984375	-0.00541534423828125	5040.76877527328
0.756683349609375	-0.00559814453125	5040.85727627306
0.75225830078125	-0.005775146484375	5040.94577727284
0.747833251953125	-0.00594940185546875	5041.03427827261
0.743408203125	-0.00611785888671875	5041.12277927239
0.738983154296875	-0.0062591552734375	5041.21128027216
0.73455810546875	-0.0064208984375	5041.29978127194
0.730133056640625	-0.00657958984375	5041.38828227172
0.7257080078125	-0.006732177734375	5041.4767832715
0.721282958984375	-0.0068817138671875	5041.56528427127
0.71685791015625	-0.0070281982421875	5041.65378527105
0.712432861328125	-0.0071685791015625	5041.74228627082
0.7080078125	-0.0073089599609375	5041.8307872706
0.703582763671875	-0.0074462890625	5041.91928827038
0.69915771484375	-0.0075775146484375	5042.00778927015
0.694732666015625	-0.0077056884765625	5042.09629026993
0.6903076171875	-0.007830810546875	5042.18479126971
0.685882568359375	-0.007952880859375	5042.27329226948
0.68145751953125	-0.008074951171875	5042.36179326926
0.677032470703125	-0.00819091796875	5042.45029426904
0.672607421875	-0.0083099365234375	5042.53879526881
0.668182373046875	-0.0084228515625	5042.62729626859
0.66375732421875	-0.0085296630859375	5042.71579726837
0.659332275390625	-0.008636474609375	5042.80429826814
0.6549072265625	-0.008740234375	5042.89279926792
0.650482177734375	-0.0088409423828125	5042.9813002677
0.64605712890625	-0.008941650390625	5043.06980126747
0.641632080078125	-0.0090423583984375	5043.15830226725
0.63720703125	-0.0091400146484375	5043.24680326703
0.632781982421875	-0.009234619140625	5043.3353042668
0.62835693359375	-0.0093231201171875	5043.42380526658
0.623931884765625	-0.0094146728515625	5043.51230626636
0.6195068359375	-0.0095062255859375	5043.60080726613
0.615081787109375	-0.0095947265625	5043.68930826591
0.61065673828125	-0.0096832275390625	5043.77780926569
0.606231689453125	-0.0097686767578125	5043.86631026546
0.601806640625	-0.009844970703125	5043.95481126524
0.597381591796875	-0.0099273681640625	5044.04331226501
0.59295654296875	-0.010003662109375	5044.13181326479
0.588531494140625	-0.0100799560546875	5044.22031426457
0.5841064453125	-0.0101531982421875	5044.30881526434
0.579681396484375	-0.0102264404296875	5044.39731626412
0.57525634765625	-0.010296630859375	5044.4858172639
0.570831298828125	-0.0103668212890625	5044.57431826367
0.56640625	-0.01043701171875	5044.66281926345
0.561981201171875	-0.010504150390625	5044.75132026323
0.55755615234375	-0.0105682373046875	5044.839821263
0.553131103515625	-0.01063232421875	5044.92832226278
0.5487060546875	-0.0106964111328125	5045.01682326256
0.544281005859375	-0.010760498046875	5045.10532426233
0.53985595703125	-0.010821533203125	5045.19382526211
0.535430908203125	-0.010882568359375	5045.28232626189
0.531005859375	-0.010943603515625	5045.37082726166
0.526580810546875	-0.0110015869140625	5045.45932826144
0.52215576171875	-0.0110595703125	5045.54782926122
0.517730712890625	-0.0111175537109375	5045.63633026099
0.5133056640625	-0.011175537109375	5045.72483126077
0.508880615234375	-0.01123046875	5045.81333226055
0.50445556640625	-0.0112884521484375	5045.90183326032
0.500030517578125	-0.0113433837890625	5045.9903342601
0.49560546875	-0.011395263671875	5046.07883525988
0.491180419921875	-0.0114532470703125	5046.16733625965
0.48675537109375	-0.011505126953125	5046.25583725943
0.482330322265625	-0.0115570068359375	5046.3443382592
0.4779052734375	-0.0116119384765625	5046.43283925898
0.473480224609375	-0.011663818359375	5046.52134025876
0.46905517578125	-0.011712646484375	5046.60984125854
0.464630126953125	-0.0117645263671875	5046.69834225831
0.460205078125	-0.0118133544921875	5046.78684325809
0.455780029296875	-0.011865234375	5046.87534425786
0.45135498046875	-0.0119140625	5046.96384525764
0.446929931640625	-0.011962890625	5047.05234625742
0.4425048828125	-0.01201171875	5047.14084725719
0.438079833984375	-0.012060546875	5047.22934825697
0.43365478515625	-0.0121124267578125	5047.31784925675
0.429229736328125	-0.012158203125	5047.40635025652
0.4248046875	-0.01220703125	5047.4948512563
0.420379638671875	-0.0122528076171875	5047.58335225608
0.41595458984375	-0.0123016357421875	5047.67185325585
0.411529541015625	-0.0123504638671875	5047.76035425563
0.4071044921875	-0.012396240234375	5047.84885525541
0.402679443359375	-0.0124420166015625	5047.93735625518
0.39825439453125	-0.01248779296875	5048.02585725496
0.393829345703125	-0.0125335693359375	5048.11435825474
0.389404296875	-0.0125823974609375	5048.20285925451
0.384979248046875	-0.012628173828125	5048.29136025429
0.38055419921875	-0.0126739501953125	5048.37986125407
0.376129150390625	-0.0127197265625	5048.46836225384
0.3717041015625	-0.0127685546875	5048.55686325362
0.367279052734375	-0.0128143310546875	5048.6453642534
0.36285400390625	-0.012860107421875	5048.73386525317
0.358428955078125	-0.0129058837890625	5048.82236625295
0.35400390625	-0.0129486083984375	5048.91086725273
0.349578857421875	-0.012994384765625	5048.9993682525
0.34515380859375	-0.0130401611328125	5049.08786925228
0.340728759765625	-0.0130859375	5049.17637025205
0.3363037109375	-0.013128662109375	5049.26487125183
0.331878662109375	-0.0131744384765625	5049.35337225161
0.32745361328125	-0.01322021484375	5049.44187325139
0.323028564453125	-0.013262939453125	5049.53037425116
0.318603515625	-0.0133056640625	5049.61887525094
0.314178466796875	-0.0133514404296875	5049.70737625071
0.30975341796875	-0.013397216796875	5049.79587725049
0.305328369140625	-0.0134368896484375	5049.88437825027
0.3009033203125	-0.0134796142578125	5049.97287925004
0.296478271484375	-0.0135223388671875	5050.06138024982
0.29205322265625	-0.0135650634765625	5050.1498812496
0.287628173828125	-0.013604736328125	5050.23838224937
0.283203125	-0.0136444091796875	5050.32688324915
0.278778076171875	-0.0136871337890625	5050.41538424893
0.27435302734375	-0.013726806640625	5050.5038852487
0.269927978515625	-0.0137664794921875	5050.59238624848
0.2655029296875	-0.01380615234375	5050.68088724826
0.261077880859375	-0.0138458251953125	5050.76938824803
0.25665283203125	-0.0138824462890625	5050.85788924781
0.252227783203125	-0.0139190673828125	5050.94639024759
0.247802734375	-0.0139556884765625	5051.03489124736
0.243377685546875	-0.0139923095703125	5051.12339224714
0.23895263671875	-0.0140289306640625	5051.21189324692
0.234527587890625	-0.0140625	5051.30039424669
0.2301025390625	-0.014093017578125	5051.38889524647
0.225677490234375	-0.0141265869140625	5051.47739624625
0.22125244140625	-0.01416015625	5051.56589724602
0.216827392578125	-0.014190673828125	5051.6543982458
0.21240234375	-0.0142242431640625	5051.74289924558
0.207977294921875	-0.0142547607421875	5051.83140024535
0.20355224609375	-0.014288330078125	5051.91990124513
0.199127197265625	-0.01431884765625	5052.0084022449
0.1947021484375	-0.0143463134765625	5052.09690324468
0.190277099609375	-0.0143768310546875	5052.18540424446
0.18585205078125	-0.014404296875	5052.27390524423
0.181427001953125	-0.0144317626953125	5052.36240624401
0.177001953125	-0.0144622802734375	5052.45090724379
0.172576904296875	-0.01448974609375	5052.53940824356
0.16815185546875	-0.0145172119140625	5052.62790924334
0.163726806640625	-0.0145416259765625	5052.71641024312
0.1593017578125	-0.0145721435546875	5052.80491124289
0.154876708984375	-0.014593505859375	5052.89341224267
0.15045166015625	-0.0146209716796875	5052.98191324245
0.146026611328125	-0.0146484375	5053.07041424222
0.1416015625	-0.0146728515625	5053.158915242
0.137176513671875	-0.014697265625	5053.24741624178
0.13275146484375	-0.0147216796875	5053.33591724155
0.128326416015625	-0.01474609375	5053.42441824133
0.1239013671875	-0.0147705078125	5053.51291924111
0.119476318359375	-0.014794921875	5053.60142024088
0.11505126953125	-0.014813232421875	5053.68992124066
0.110626220703125	-0.014837646484375	5053.77842224044
0.106201171875	-0.0148590087890625	5053.86692324021
0.101776123046875	-0.0148834228515625	5053.95542423999
0.09735107421875	-0.0149078369140625	5054.04392523977
0.092926025390625	-0.01492919921875	5054.13242623954
0.0885009765625	-0.01495361328125	5054.22092723932
0.084075927734375	-0.0149749755859375	5054.3094282391
0.07965087890625	-0.0149993896484375	5054.39792923887
0.075225830078125	-0.015020751953125	5054.48643023865
0.07080078125	-0.0150421142578125	5054.57493123843
0.066375732421875	-0.0150665283203125	5054.6634322382
0.06195068359375	-0.015087890625	5054.75193323798
0.057525634765625	-0.0151092529296875	5054.84043423775
0.0531005859375	-0.0151336669921875	5054.92893523753
0.048675537109375	-0.015155029296875	5055.01743623731
0.04425048828125	-0.015179443359375	5055.10593723708
0.039825439453125	-0.015203857421875	5055.19443823686
0.035400390625	-0.0152252197265625	5055.28293923664
0.030975341796875	-0.01524658203125	5055.37144023641
0.02655029296875	-0.01527099609375	5055.45994123619
0.022125244140625	-0.01529541015625	5055.54844223597
0.0177001953125	-0.01531982421875	5055.63694323574
0.013275146484375	-0.01534423828125	5055.72544423552
0.00885009765625	-0.01536865234375	5055.8139452353
0.004425048828125	-0.0153961181640625	5055.90244623507
0	-0.0154205322265625	5055.99094723485
0.004425048828125	-0.014605712890625	5056.07944823463
0.00885009765625	-0.0138397216796875	5056.1679492344
0.013275146484375	-0.013104248046875	5056.25645023418
0.0177001953125	-0.012396240234375	5056.34495123396
0.022125244140625	-0.0117156982421875	5056.43345223373
0.02655029296875	-0.0110626220703125	5056.52195323351
0.030975341796875	-0.010430908203125	5056.61045423329
0.035400390625	-0.009820556640625	5056.69895523306
0.039825439453125	-0.0092315673828125	5056.78745623284
0.04425048828125	-0.0086578369140625	5056.87595723262
0.048675537109375	-0.0081024169921875	5056.96445823239
0.0531005859375	-0.0075714111328125	5057.05295923217
0.057525634765625	-0.0070465087890625	5057.14146023195
0.06195068359375	-0.00654296875	5057.22996123172
0.066375732421875	-0.0060546875	5057.3184622315
0.07080078125	-0.0055755615234375	5057.40696323127
0.075225830078125	-0.00511474609375	5057.49546423105
0.07965087890625	-0.004669189453125	5057.58396523083
0.084075927734375	-0.0042327880859375	5057.6724662306
0.0885009765625	-0.00380859375	5057.76096723038
0.092926025390625	-0.00339599609375	5057.84946823016
0.09735107421875	-0.00299468994140625	5057.93796922993
0.101776123046875	-0.0026153564453125	5058.02647022971
0.106201171875	-0.0022344970703125	5058.11497122949
0.110626220703125	-0.00186370849609375	5058.20347222926
0.11505126953125	-0.001502685546875	5058.29197322904
0.119476318359375	-0.001153564453125	5058.38047422882
0.1239013671875	-0.00081207275390625	5058.46897522859
0.128326416015625	-0.000479217529296875	5058.55747622837
0.13275146484375	-0.000154083251953125	5058.64597722815
0.137176513671875	0.00016204833984375	5058.73447822792
0.1416015625	0.000470703125	5058.8229792277
0.146026611328125	0.0007720947265625	5058.91148022748
0.15045166015625	0.0010650634765625	5058.99998122725
0.154876708984375	0.0013507080078125	5059.08848222703
0.1593017578125	0.00162933349609375	5059.17698322681
0.163726806640625	0.00190185546875	5059.26548422658
0.16815185546875	0.00216705322265625	5059.35398522636
0.172576904296875	0.00242462158203125	5059.44248622614
0.177001953125	0.0026751708984375	5059.53098722591
0.181427001953125	0.002919921875	5059.61948822569
0.18585205078125	0.00315826416015625	5059.70798922547
0.190277099609375	0.00339080810546875	5059.79649022524
0.1947021484375	0.00361785888671875	5059.88499122502
0.199127197265625	0.00383941650390625	5059.9734922248
0.20355224609375	0.00405517578125	5060.06199322457
0.207977294921875	0.00426483154296875	5060.15049422435
0.21240234375	0.00446990966796875	5060.23899522412
0.216827392578125	0.00466949462890625	5060.3274962239
0.22125244140625	0.00486541748046875	5060.41599722368
0.225677490234375	0.00505767822265625	5060.50449822345
0.2301025390625	0.0052447509765625	5060.59299922323
0.234527587890625	0.0054266357421875	5060.68150022301
0.23895263671875	0.00560546875	5060.77000122278
0.243377685546875	0.005780029296875	5060.85850222256
0.247802734375	0.005950927734375	5060.94700322234
0.252227783203125	0.00611846923828125	5061.03550422211
0.25665283203125	0.0062713623046875	5061.12400522189
0.261077880859375	0.0064300537109375	5061.21250622167
0.2655029296875	0.006585693359375	5061.30100722144
0.269927978515625	0.00673828125	5061.38950822122
0.27435302734375	0.006884765625	5061.478009221
0.278778076171875	0.0070281982421875	5061.56651022077
0.283203125	0.0071685791015625	5061.65501122055
0.287628173828125	0.007305908203125	5061.74351222033
0.29205322265625	0.0074432373046875	5061.8320132201
0.296478271484375	0.0075775146484375	5061.92051421988
0.3009033203125	0.0077056884765625	5062.00901521966
0.305328369140625	0.007830810546875	5062.09751621943
0.30975341796875	0.007952880859375	5062.18601721921
0.314178466796875	0.0080780029296875	5062.27451821899
0.318603515625	0.0081939697265625	5062.36301921876
0.323028564453125	0.0083099365234375	5062.45152021854
0.32745361328125	0.0084228515625	5062.54002121831
0.331878662109375	0.00853271484375	5062.62852221809
0.3363037109375	0.008642578125	5062.71702321787
0.340728759765625	0.008746337890625	5062.80552421765
0.34515380859375	0.0088531494140625	5062.89402521742
0.349578857421875	0.0089569091796875	5062.9825262172
0.35400390625	0.0090576171875	5063.07102721697
0.358428955078125	0.0091583251953125	5063.15952821675
0.36285400390625	0.0092498779296875	5063.24802921653
0.367279052734375	0.0093475341796875	5063.3365302163
0.3717041015625	0.0094451904296875	5063.42503121608
0.376129150390625	0.0095367431640625	5063.51353221586
0.38055419921875	0.009625244140625	5063.60203321563
0.384979248046875	0.0097137451171875	5063.69053421541
0.389404296875	0.00980224609375	5063.77903521519
0.393829345703125	0.0098846435546875	5063.86753621496
0.39825439453125	0.0099700927734375	5063.95603721474
0.402679443359375	0.0100494384765625	5064.04453821452
0.4071044921875	0.0101318359375	5064.13303921429
0.411529541015625	0.010211181640625	5064.22154021407
0.41595458984375	0.01029052734375	5064.31004121385
0.420379638671875	0.0103668212890625	5064.39854221362
0.4248046875	0.0104400634765625	5064.4870432134
0.429229736328125	0.010516357421875	5064.57554421318
0.43365478515625	0.010589599609375	5064.66404521295
0.438079833984375	0.010662841796875	5064.75254621273
0.4425048828125	0.0107330322265625	5064.84104721251
0.446929931640625	0.01080322265625	5064.92954821228
0.45135498046875	0.010870361328125	5065.01804921206
0.455780029296875	0.0109375	5065.10655021184
0.460205078125	0.0110015869140625	5065.19505121161
0.464630126953125	0.0110687255859375	5065.28355221139
0.46905517578125	0.0111358642578125	5065.37205321116
0.473480224609375	0.011199951171875	5065.46055421094
0.4779052734375	0.011260986328125	5065.54905521072
0.482330322265625	0.0113250732421875	5065.63755621049
0.48675537109375	0.011383056640625	5065.72605721027
0.491180419921875	0.0114471435546875	5065.81455821005
0.49560546875	0.0115081787109375	5065.90305920982
0.500030517578125	0.011566162109375	5065.9915602096
0.50445556640625	0.0116241455078125	5066.08006120938
0.508880615234375	0.01168212890625	5066.16856220915
0.5133056640625	0.0117340087890625	5066.25706320893
0.517730712890625	0.0117919921875	5066.34556420871
0.52215576171875	0.011846923828125	5066.43406520848
0.526580810546875	0.01190185546875	5066.52256620826
0.531005859375	0.0119537353515625	5066.61106720804
0.535430908203125	0.0120086669921875	5066.69956820781
0.53985595703125	0.0120574951171875	5066.78806920759
0.544281005859375	0.012109375	5066.87657020737
0.5487060546875	0.012158203125	5066.96507120714
0.553131103515625	0.0122100830078125	5067.05357220692
0.55755615234375	0.0122589111328125	5067.1420732067
0.561981201171875	0.0123046875	5067.23057420647
0.56640625	0.0123504638671875	5067.31907520625
0.570831298828125	0.0123992919921875	5067.40757620603
0.57525634765625	0.012445068359375	5067.4960772058
0.579681396484375	0.0124908447265625	5067.58457820558
0.5841064453125	0.0125335693359375	5067.67307920535
0.588531494140625	0.0125732421875	5067.76158020513
0.59295654296875	0.012615966796875	5067.85008120491
0.597381591796875	0.01265869140625	5067.93858220469
0.601806640625	0.012701416015625	5068.02708320446
0.606231689453125	0.0127410888671875	5068.11558420424
0.61065673828125	0.0127838134765625	5068.20408520401
0.615081787109375	0.0128204345703125	5068.29258620379
0.6195068359375	0.012860107421875	5068.38108720357
0.623931884765625	0.012896728515625	5068.46958820334
0.62835693359375	0.012939453125	5068.55808920312
0.632781982421875	0.01297607421875	5068.6465902029
0.63720703125	0.0130126953125	5068.73509120267
0.641632080078125	0.01304931640625	5068.82359220245
0.64605712890625	0.0130828857421875	5068.91209320223
0.650482177734375	0.013116455078125	5069.000594202
0.6549072265625	0.0131500244140625	5069.08909520178
0.659332275390625	0.01318359375	5069.17759620156
0.66375732421875	0.013214111328125	5069.26609720133
0.668182373046875	0.0132476806640625	5069.35459820111
0.672607421875	0.0132781982421875	5069.44309920089
0.677032470703125	0.0133056640625	5069.53160020066
0.68145751953125	0.013336181640625	5069.62010120044
0.685882568359375	0.0133636474609375	5069.70860220022
0.6903076171875	0.0133941650390625	5069.79710319999
0.694732666015625	0.0134246826171875	5069.88560419977
0.69915771484375	0.0134521484375	5069.97410519955
0.703582763671875	0.0134765625	5070.06260619932
0.7080078125	0.0135009765625	5070.1511071991
0.712432861328125	0.013531494140625	5070.23960819888
0.71685791015625	0.013555908203125	5070.32810919865
0.721282958984375	0.0135833740234375	5070.41661019843
0.7257080078125	0.0136077880859375	5070.5051111982
0.730133056640625	0.013629150390625	5070.59361219798
0.73455810546875	0.0136566162109375	5070.68211319776
0.738983154296875	0.0136810302734375	5070.77061419753
0.743408203125	0.013702392578125	5070.85911519731
0.747833251953125	0.013726806640625	5070.94761619709
0.75225830078125	0.013751220703125	5071.03611719686
0.756683349609375	0.0137725830078125	5071.12461819664
0.7611083984375	0.0137969970703125	5071.21311919642
0.765533447265625	0.013818359375	5071.30162019619
0.76995849609375	0.0138427734375	5071.39012119597
0.774383544921875	0.0138671875	5071.47862219575
0.77880859375	0.0138885498046875	5071.56712319552
0.783233642578125	0.0139068603515625	5071.6556241953
0.78765869140625	0.01392822265625	5071.74412519508
0.792083740234375	0.0139495849609375	5071.83262619485
0.7965087890625	0.013970947265625	5071.92112719463
0.800933837890625	0.013995361328125	5072.00962819441
0.80535888671875	0.0140167236328125	5072.09812919418
0.809783935546875	0.0140380859375	5072.18663019396
0.814208984375	0.0140594482421875	5072.27513119374
0.818634033203125	0.0140777587890625	5072.36363219351
0.82305908203125	0.01409912109375	5072.45213319329
0.827484130859375	0.014117431640625	5072.54063419307
0.8319091796875	0.014141845703125	5072.62913519284
0.836334228515625	0.0141632080078125	5072.71763619262
0.84075927734375	0.0141815185546875	5072.8061371924
0.845184326171875	0.014208984375	5072.89463819217
0.849609375	0.014227294921875	5072.98313919195
0.854034423828125	0.014251708984375	5073.07164019173
0.85845947265625	0.0142730712890625	5073.1601411915
0.862884521484375	0.0142974853515625	5073.24864219128
0.8673095703125	0.01431884765625	5073.33714319105
0.871734619140625	0.01434326171875	5073.42564419083
0.87615966796875	0.01436767578125	5073.51414519061
0.880584716796875	0.01439208984375	5073.60264619038
0.885009765625	0.01441650390625	5073.69114719016
0.889434814453125	0.01444091796875	5073.77964818994
0.89385986328125	0.014471435546875	5073.86814918971
0.898284912109375	0.014495849609375	5073.95665018949
0.9027099609375	0.0145233154296875	5074.04515118927
0.907135009765625	0.0145538330078125	5074.13365218904
0.91156005859375	0.014581298828125	5074.22215318882
0.915985107421875	0.01461181640625	5074.3106541886
0.92041015625	0.014642333984375	5074.39915518837
0.924835205078125	0.0146759033203125	5074.48765618815
0.92926025390625	0.01470947265625	5074.57615718793
0.933685302734375	0.014739990234375	5074.6646581877
0.9381103515625	0.0147796630859375	5074.75315918748
0.942535400390625	0.014813232421875	5074.84166018726
0.94696044921875	0.0148529052734375	5074.93016118703
0.951385498046875	0.0148895263671875	5075.01866218681
0.955810546875	0.0149322509765625	5075.10716318659
0.960235595703125	0.014971923828125	5075.19566418636
0.96466064453125	0.0150177001953125	5075.28416518614
0.969085693359375	0.0150604248046875	5075.37266618592
0.9735107421875	0.015106201171875	5075.46116718569
0.977935791015625	0.015155029296875	5075.54966818547
0.98236083984375	0.0152069091796875	5075.63816918525
0.986785888671875	0.0152587890625	5075.72667018502
0.9912109375	0.015313720703125	5075.8151711848
