Potential applied (V)	WE(1).Current (A)	Time (s)
0.004425048828125	-0.0765716552734375	3884.34159919298
0.00885009765625	-0.0637786865234375	3884.78410419186
0.013275146484375	-0.053955078125	3885.22660919075
0.0177001953125	-0.046240234375	3885.66911418963
0.022125244140625	-0.0400054931640625	3886.11161918851
0.02655029296875	-0.034844970703125	3886.55412418739
0.030975341796875	-0.0304901123046875	3886.99662918628
0.035400390625	-0.026806640625	3887.43913418516
0.039825439453125	-0.023626708984375	3887.88163918404
0.04425048828125	-0.02088623046875	3888.32414418293
0.048675537109375	-0.0185028076171875	3888.76664918181
0.0531005859375	-0.0164215087890625	3889.20915418069
0.057525634765625	-0.01458740234375	3889.65165917957
0.06195068359375	-0.0129852294921875	3890.09416417846
0.066375732421875	-0.0115631103515625	3890.53666917734
0.07080078125	-0.0103057861328125	3890.97917417622
0.075225830078125	-0.00919189453125	3891.4216791751
0.07965087890625	-0.00819091796875	3891.86418417399
0.084075927734375	-0.0073028564453125	3892.30668917287
0.0885009765625	-0.006500244140625	3892.74919417175
0.092926025390625	-0.0057830810546875	3893.19169917064
0.09735107421875	-0.005133056640625	3893.63420416952
0.101776123046875	-0.0045477294921875	3894.0767091684
0.106201171875	-0.004019775390625	3894.51921416728
0.110626220703125	-0.0035382080078125	3894.96171916617
0.11505126953125	-0.00310089111328125	3895.40422416505
0.119476318359375	-0.002705078125	3895.84672916393
0.1239013671875	-0.00235015869140625	3896.28923416282
0.128326416015625	-0.00201690673828125	3896.7317391617
0.13275146484375	-0.00171142578125	3897.17424416058
0.137176513671875	-0.0014306640625	3897.61674915946
0.1416015625	-0.00117279052734375	3898.05925415835
0.146026611328125	-0.00093536376953125	3898.50175915723
0.15045166015625	-0.0007159423828125	3898.94426415611
0.154876708984375	-0.0005126953125	3899.38676915499
0.1593017578125	-0.000326019287109375	3899.82927415388
0.163726806640625	-0.000152099609375	3900.27177915276
0.16815185546875	1.021728515625E-05	3900.71428415164
0.172576904296875	0.0001602783203125	3901.15678915053
0.177001953125	0.000299957275390625	3901.59929414941
0.181427001953125	0.00043157958984375	3902.04179914829
0.18585205078125	0.000554168701171875	3902.48430414717
0.190277099609375	0.00066766357421875	3902.92680914606
0.1947021484375	0.00077392578125	3903.36931414494
0.199127197265625	0.000872802734375	3903.81181914382
0.20355224609375	0.000965576171875	3904.25432414271
0.207977294921875	0.0010540771484375	3904.69682914159
0.21240234375	0.00113616943359375	3905.13933414047
0.216827392578125	0.00121368408203125	3905.58183913935
0.22125244140625	0.00128662109375	3906.02434413824
0.225677490234375	0.0013568115234375	3906.46684913712
0.2301025390625	0.00142303466796875	3906.909354136
0.234527587890625	0.00148590087890625	3907.35185913488
0.23895263671875	0.001546630859375	3907.79436413377
0.243377685546875	0.001602783203125	3908.23686913265
0.247802734375	0.0016558837890625	3908.67937413153
0.252227783203125	0.00170745849609375	3909.12187913042
0.25665283203125	0.001756591796875	3909.5643841293
0.261077880859375	0.00180328369140625	3910.00688912818
0.2655029296875	0.0018475341796875	3910.44939412706
0.269927978515625	0.00189056396484375	3910.89189912595
0.27435302734375	0.00193145751953125	3911.33440412483
0.278778076171875	0.0019720458984375	3911.77690912371
0.283203125	0.00200958251953125	3912.2194141226
0.287628173828125	0.002044677734375	3912.66191912148
0.29205322265625	0.002080078125	3913.10442412036
0.296478271484375	0.00211395263671875	3913.54692911924
0.3009033203125	0.00214752197265625	3913.98943411813
0.305328369140625	0.0021795654296875	3914.43193911701
0.30975341796875	0.00221038818359375	3914.87444411589
0.314178466796875	0.00224151611328125	3915.31694911478
0.318603515625	0.00227020263671875	3915.75945411366
0.323028564453125	0.002298583984375	3916.20195911254
0.32745361328125	0.002325439453125	3916.64446411142
0.331878662109375	0.00235107421875	3917.08696911031
0.3363037109375	0.00237548828125	3917.52947410919
0.340728759765625	0.00239990234375	3917.97197910807
0.34515380859375	0.00242401123046875	3918.41448410695
0.349578857421875	0.002447509765625	3918.85698910584
0.35400390625	0.00246856689453125	3919.29949410472
0.358428955078125	0.00249114990234375	3919.7419991036
0.36285400390625	0.00251190185546875	3920.18450410249
0.367279052734375	0.002532958984375	3920.62700910137
0.3717041015625	0.00255401611328125	3921.06951410025
0.376129150390625	0.0025738525390625	3921.51201909913
0.38055419921875	0.00259368896484375	3921.95452409802
0.384979248046875	0.00261260986328125	3922.3970290969
0.389404296875	0.00263092041015625	3922.83953409578
0.393829345703125	0.00264801025390625	3923.28203909466
0.39825439453125	0.002666015625	3923.72454409355
0.402679443359375	0.00268341064453125	3924.16704909243
0.4071044921875	0.00270111083984375	3924.60955409131
0.411529541015625	0.00271697998046875	3925.0520590902
0.41595458984375	0.00273345947265625	3925.49456408908
0.420379638671875	0.0027490234375	3925.93706908796
0.4248046875	0.002763671875	3926.37957408684
0.429229736328125	0.0027789306640625	3926.82207908573
0.43365478515625	0.00279266357421875	3927.26458408461
0.438079833984375	0.0028070068359375	3927.70708908349
0.4425048828125	0.0028204345703125	3928.14959408238
0.446929931640625	0.00283355712890625	3928.59209908126
0.45135498046875	0.0028460693359375	3929.03460408014
0.455780029296875	0.00285858154296875	3929.47710907902
0.460205078125	0.00287017822265625	3929.91961407791
0.464630126953125	0.00288238525390625	3930.36211907679
0.46905517578125	0.0028936767578125	3930.80462407567
0.473480224609375	0.0029052734375	3931.24712907456
0.4779052734375	0.00291656494140625	3931.68963407344
0.482330322265625	0.00292694091796875	3932.13213907232
0.48675537109375	0.0029376220703125	3932.5746440712
0.491180419921875	0.002947998046875	3933.01714907009
0.49560546875	0.002957763671875	3933.45965406897
0.500030517578125	0.00296661376953125	3933.90215906785
0.50445556640625	0.0029754638671875	3934.34466406673
0.508880615234375	0.0029840087890625	3934.78716906562
0.5133056640625	0.0029937744140625	3935.2296740645
0.517730712890625	0.00300140380859375	3935.67217906338
0.52215576171875	0.00300994873046875	3936.11468406227
0.526580810546875	0.0030169677734375	3936.55718906115
0.531005859375	0.00302459716796875	3936.99969406003
0.535430908203125	0.003033447265625	3937.44219905891
0.53985595703125	0.00304046630859375	3937.8847040578
0.544281005859375	0.00304718017578125	3938.32720905668
0.5487060546875	0.0030523681640625	3938.76971405556
0.553131103515625	0.00305938720703125	3939.21221905445
0.55755615234375	0.00306549072265625	3939.65472405333
0.561981201171875	0.00307281494140625	3940.09722905221
0.56640625	0.00307891845703125	3940.53973405109
0.570831298828125	0.00308380126953125	3940.98223904998
0.57525634765625	0.00308990478515625	3941.42474404886
0.579681396484375	0.00309539794921875	3941.86724904774
0.5841064453125	0.0031005859375	3942.30975404662
0.588531494140625	0.0031048583984375	3942.75225904551
0.59295654296875	0.00310943603515625	3943.19476404439
0.597381591796875	0.00311370849609375	3943.63726904327
0.601806640625	0.00311920166015625	3944.07977404216
0.606231689453125	0.0031243896484375	3944.52227904104
0.61065673828125	0.00312957763671875	3944.96478403992
0.615081787109375	0.003134765625	3945.4072890388
0.6195068359375	0.0031396484375	3945.84979403769
0.623931884765625	0.00314453125	3946.29229903657
0.62835693359375	0.00315277099609375	3946.73480403545
0.632781982421875	0.00315643310546875	3947.17730903434
0.63720703125	0.003160400390625	3947.61981403322
0.641632080078125	0.003165283203125	3948.0623190321
0.64605712890625	0.0031689453125	3948.50482403098
0.650482177734375	0.00317413330078125	3948.94732902987
0.6549072265625	0.00317779541015625	3949.38983402875
0.659332275390625	0.0031817626953125	3949.83233902763
0.66375732421875	0.0031866455078125	3950.27484402651
0.668182373046875	0.00319061279296875	3950.7173490254
0.672607421875	0.00319488525390625	3951.15985402428
0.677032470703125	0.0032000732421875	3951.60235902316
0.68145751953125	0.00320526123046875	3952.04486402205
0.685882568359375	0.0032110595703125	3952.48736902093
0.6903076171875	0.00321533203125	3952.92987401981
0.694732666015625	0.0032196044921875	3953.37237901869
0.69915771484375	0.00322509765625	3953.81488401758
0.703582763671875	0.00322998046875	3954.25738901646
0.7080078125	0.0032354736328125	3954.69989401534
0.712432861328125	0.00324127197265625	3955.14239901423
0.71685791015625	0.0032476806640625	3955.58490401311
0.721282958984375	0.00325408935546875	3956.02740901199
0.7257080078125	0.003260498046875	3956.46991401087
0.730133056640625	0.00326751708984375	3956.91241900976
0.73455810546875	0.0032745361328125	3957.35492400864
0.738983154296875	0.0032818603515625	3957.79742900752
0.743408203125	0.0032879638671875	3958.2399340064
0.747833251953125	0.00329620361328125	3958.68243900529
0.75225830078125	0.00330535888671875	3959.12494400417
0.756683349609375	0.003314208984375	3959.56744900305
0.7611083984375	0.00332427978515625	3960.00995400194
0.765533447265625	0.0033343505859375	3960.45245900082
0.76995849609375	0.0033447265625	3960.8949639997
0.774383544921875	0.0033563232421875	3961.33746899858
0.77880859375	0.00336822509765625	3961.77997399747
0.783233642578125	0.0033795166015625	3962.22247899635
0.78765869140625	0.00339263916015625	3962.66498399523
0.792083740234375	0.0034075927734375	3963.10748899412
0.7965087890625	0.00342193603515625	3963.549993993
0.800933837890625	0.0034375	3963.99249899188
0.80535888671875	0.00345489501953125	3964.43500399076
0.809783935546875	0.0034722900390625	3964.87750898965
0.814208984375	0.00348968505859375	3965.32001398853
0.818634033203125	0.0035101318359375	3965.76251898741
0.82305908203125	0.00353057861328125	3966.20502398629
0.827484130859375	0.0035528564453125	3966.64752898518
0.8319091796875	0.003575439453125	3967.09003398406
0.836334228515625	0.00359954833984375	3967.53253898294
0.84075927734375	0.00362518310546875	3967.97504398183
0.845184326171875	0.0036529541015625	3968.41754898071
0.849609375	0.00368194580078125	3968.86005397959
0.854034423828125	0.00371337890625	3969.30255897847
0.85845947265625	0.0037451171875	3969.74506397736
0.862884521484375	0.00377777099609375	3970.18756897624
0.8673095703125	0.0038134765625	3970.63007397512
0.871734619140625	0.00385009765625	3971.07257897401
0.87615966796875	0.0038897705078125	3971.51508397289
0.880584716796875	0.003929443359375	3971.95758897177
0.885009765625	0.00397216796875	3972.40009397065
0.889434814453125	0.00401611328125	3972.84259896954
0.89385986328125	0.00406219482421875	3973.28510396842
0.898284912109375	0.0041094970703125	3973.7276089673
0.9027099609375	0.00415985107421875	3974.17011396618
0.907135009765625	0.0042120361328125	3974.61261896507
0.91156005859375	0.00426483154296875	3975.05512396395
0.915985107421875	0.004320068359375	3975.49762896283
0.92041015625	0.00437652587890625	3975.94013396172
0.924835205078125	0.0044366455078125	3976.3826389606
0.92926025390625	0.0044970703125	3976.82514395948
0.933685302734375	0.004559326171875	3977.26764895836
0.9381103515625	0.00462677001953125	3977.71015395725
0.942535400390625	0.0046929931640625	3978.15265895613
0.94696044921875	0.00475982666015625	3978.59516395501
0.951385498046875	0.00482879638671875	3979.0376689539
0.955810546875	0.0048992919921875	3979.48017395278
0.960235595703125	0.0049713134765625	3979.92267895166
0.96466064453125	0.00504486083984375	3980.36518395054
0.969085693359375	0.00511871337890625	3980.80768894943
0.9735107421875	0.005194091796875	3981.25019394831
0.977935791015625	0.00526885986328125	3981.69269894719
0.98236083984375	0.00534698486328125	3982.13520394608
0.986785888671875	0.005426025390625	3982.57770894496
0.9912109375	0.00550445556640625	3983.02021394384
0.995635986328125	0.0055841064453125	3983.46271894272
1.00006103515625	0.00566497802734375	3983.90522394161
0.995635986328125	0.00500152587890625	3984.34772894049
0.9912109375	0.0044189453125	3984.79023393937
0.986785888671875	0.00389617919921875	3985.23273893825
0.98236083984375	0.00342041015625	3985.67524393714
0.977935791015625	0.00298370361328125	3986.11774893602
0.9735107421875	0.00258392333984375	3986.5602539349
0.969085693359375	0.002210693359375	3987.00275893379
0.96466064453125	0.001864013671875	3987.44526393267
0.960235595703125	0.00154052734375	3987.88776893155
0.955810546875	0.0012384033203125	3988.33027393043
0.951385498046875	0.00095489501953125	3988.77277892932
0.94696044921875	0.0006890869140625	3989.2152839282
0.942535400390625	0.0004385986328125	3989.65778892708
0.9381103515625	0.00020269775390625	3990.10029392597
0.933685302734375	-2.24578857421875E-05	3990.54279892485
0.92926025390625	-0.00023162841796875	3990.98530392373
0.924835205078125	-0.0004290771484375	3991.42780892261
0.92041015625	-0.0006163330078125	3991.8703139215
0.915985107421875	-0.00079254150390625	3992.31281892038
0.91156005859375	-0.00095947265625	3992.75532391926
0.907135009765625	-0.00111663818359375	3993.19782891814
0.9027099609375	-0.00126617431640625	3993.64033391703
0.898284912109375	-0.0014068603515625	3994.08283891591
0.89385986328125	-0.00154083251953125	3994.52534391479
0.889434814453125	-0.00166656494140625	3994.96784891368
0.885009765625	-0.00178558349609375	3995.41035391256
0.880584716796875	-0.001898193359375	3995.85285891144
0.87615966796875	-0.00200439453125	3996.29536391032
0.871734619140625	-0.0021051025390625	3996.73786890921
0.8673095703125	-0.00219879150390625	3997.18037390809
0.862884521484375	-0.0022869873046875	3997.62287890697
0.85845947265625	-0.00236968994140625	3998.06538390586
0.854034423828125	-0.00244781494140625	3998.50788890474
0.849609375	-0.0025213623046875	3998.95039390362
0.845184326171875	-0.00258941650390625	3999.3928989025
0.84075927734375	-0.0026531982421875	3999.83540390139
0.836334228515625	-0.0027130126953125	4000.27790890027
0.8319091796875	-0.0027685546875	4000.72041389915
0.827484130859375	-0.00282012939453125	4001.16291889803
0.82305908203125	-0.002867431640625	4001.60542389692
0.818634033203125	-0.0029119873046875	4002.0479288958
0.814208984375	-0.00295257568359375	4002.49043389468
0.809783935546875	-0.0029888916015625	4002.93293889357
0.80535888671875	-0.00302398681640625	4003.37544389245
0.800933837890625	-0.00305511474609375	4003.81794889133
0.7965087890625	-0.00308319091796875	4004.26045389021
0.792083740234375	-0.0031085205078125	4004.7029588891
0.78765869140625	-0.003131103515625	4005.14546388798
0.783233642578125	-0.0031512451171875	4005.58796888686
0.77880859375	-0.00316925048828125	4006.03047388575
0.774383544921875	-0.00318603515625	4006.47297888463
0.76995849609375	-0.0032000732421875	4006.91548388351
0.765533447265625	-0.00321258544921875	4007.35798888239
0.7611083984375	-0.003223876953125	4007.80049388128
0.756683349609375	-0.0032330322265625	4008.24299888016
0.75225830078125	-0.00324066162109375	4008.68550387904
0.747833251953125	-0.00324737548828125	4009.12800887792
0.743408203125	-0.00325286865234375	4009.57051387681
0.738983154296875	-0.0032562255859375	4010.01301887569
0.73455810546875	-0.00325927734375	4010.45552387457
0.730133056640625	-0.0032598876953125	4010.89802887346
0.7257080078125	-0.0032611083984375	4011.34053387234
0.721282958984375	-0.0032623291015625	4011.78303887122
0.71685791015625	-0.00326171875	4012.2255438701
0.712432861328125	-0.0032623291015625	4012.66804886899
0.7080078125	-0.00326141357421875	4013.11055386787
0.703582763671875	-0.003258056640625	4013.55305886675
0.69915771484375	-0.00325439453125	4013.99556386564
0.694732666015625	-0.0032513427734375	4014.43806886452
0.6903076171875	-0.00324951171875	4014.8805738634
0.685882568359375	-0.00324615478515625	4015.32307886228
0.68145751953125	-0.00324249267578125	4015.76558386117
0.677032470703125	-0.00323944091796875	4016.20808886005
0.672607421875	-0.00323577880859375	4016.65059385893
0.668182373046875	-0.00323272705078125	4017.09309885781
0.66375732421875	-0.00322906494140625	4017.5356038567
0.659332275390625	-0.00322540283203125	4017.97810885558
0.6549072265625	-0.0032220458984375	4018.42061385446
0.650482177734375	-0.003218994140625	4018.86311885335
0.64605712890625	-0.0032159423828125	4019.30562385223
0.641632080078125	-0.0032135009765625	4019.74812885111
0.63720703125	-0.0032110595703125	4020.19063384999
0.632781982421875	-0.0032086181640625	4020.63313884888
0.62835693359375	-0.00320587158203125	4021.07564384776
0.623931884765625	-0.00320770263671875	4021.51814884664
0.6195068359375	-0.00320556640625	4021.96065384553
0.615081787109375	-0.00320343017578125	4022.40315884441
0.61065673828125	-0.00320098876953125	4022.84566384329
0.606231689453125	-0.00319976806640625	4023.28816884217
0.601806640625	-0.00319854736328125	4023.73067384106
0.597381591796875	-0.0031982421875	4024.17317883994
0.59295654296875	-0.00319732666015625	4024.61568383882
0.588531494140625	-0.00319732666015625	4025.05818883771
0.5841064453125	-0.00319549560546875	4025.50069383659
0.579681396484375	-0.0031964111328125	4025.94319883547
0.57525634765625	-0.00319732666015625	4026.38570383435
0.570831298828125	-0.003199462890625	4026.82820883324
0.56640625	-0.00320098876953125	4027.27071383212
0.561981201171875	-0.00320220947265625	4027.713218831
0.55755615234375	-0.0032049560546875	4028.15572382988
0.553131103515625	-0.0032080078125	4028.59822882877
0.5487060546875	-0.0032110595703125	4029.04073382765
0.544281005859375	-0.003212890625	4029.48323882653
0.53985595703125	-0.00321685791015625	4029.92574382542
0.535430908203125	-0.0032208251953125	4030.3682488243
0.531005859375	-0.00322509765625	4030.81075382318
0.526580810546875	-0.00322998046875	4031.25325882206
0.52215576171875	-0.003236083984375	4031.69576382095
0.517730712890625	-0.00324066162109375	4032.13826881983
0.5133056640625	-0.0032464599609375	4032.58077381871
0.508880615234375	-0.00325286865234375	4033.02327881759
0.50445556640625	-0.003258056640625	4033.46578381648
0.500030517578125	-0.00326446533203125	4033.90828881536
0.49560546875	-0.003271484375	4034.35079381424
0.491180419921875	-0.00327728271484375	4034.79329881313
0.48675537109375	-0.00328460693359375	4035.23580381201
0.482330322265625	-0.00329254150390625	4035.67830881089
0.4779052734375	-0.003299560546875	4036.12081380977
0.473480224609375	-0.0033074951171875	4036.56331880866
0.46905517578125	-0.003314208984375	4037.00582380754
0.464630126953125	-0.00332183837890625	4037.44832880642
0.460205078125	-0.00332916259765625	4037.89083380531
0.455780029296875	-0.00333740234375	4038.33333880419
0.45135498046875	-0.0033453369140625	4038.77584380307
0.446929931640625	-0.00335235595703125	4039.21834880195
0.4425048828125	-0.0033587646484375	4039.66085380084
0.438079833984375	-0.00336669921875	4040.10335879972
0.43365478515625	-0.0033740234375	4040.5458637986
0.429229736328125	-0.003380126953125	4040.98836879749
0.4248046875	-0.0033880615234375	4041.43087379637
0.420379638671875	-0.00339385986328125	4041.87337879525
0.41595458984375	-0.0034002685546875	4042.31588379413
0.411529541015625	-0.00340606689453125	4042.75838879302
0.4071044921875	-0.003411865234375	4043.2008937919
0.402679443359375	-0.00341766357421875	4043.64339879078
0.39825439453125	-0.0034222412109375	4044.08590378966
0.393829345703125	-0.00342803955078125	4044.52840878855
0.389404296875	-0.00343048095703125	4044.97091378743
0.384979248046875	-0.00343505859375	4045.41341878631
0.38055419921875	-0.003438720703125	4045.8559237852
0.376129150390625	-0.00344207763671875	4046.29842878408
0.3717041015625	-0.00344635009765625	4046.74093378296
0.367279052734375	-0.0034490966796875	4047.18343878184
0.36285400390625	-0.0034521484375	4047.62594378073
0.358428955078125	-0.00345458984375	4048.06844877961
0.35400390625	-0.00345672607421875	4048.51095377849
0.349578857421875	-0.00345703125	4048.95345877738
0.34515380859375	-0.00345947265625	4049.39596377626
0.340728759765625	-0.00346099853515625	4049.83846877514
0.3363037109375	-0.003463134765625	4050.28097377402
0.331878662109375	-0.00346435546875	4050.72347877291
0.32745361328125	-0.0034649658203125	4051.16598377179
0.323028564453125	-0.003466796875	4051.60848877067
0.318603515625	-0.00346771240234375	4052.05099376955
0.314178466796875	-0.00346893310546875	4052.49349876844
0.30975341796875	-0.00347259521484375	4052.93600376732
0.305328369140625	-0.0034735107421875	4053.3785087662
0.3009033203125	-0.00347412109375	4053.82101376509
0.296478271484375	-0.00347503662109375	4054.26351876397
0.29205322265625	-0.0034759521484375	4054.70602376285
0.287628173828125	-0.00347625732421875	4055.14852876173
0.283203125	-0.0034771728515625	4055.59103376062
0.278778076171875	-0.00347808837890625	4056.0335387595
0.27435302734375	-0.00347930908203125	4056.47604375838
0.269927978515625	-0.00348114013671875	4056.91854875727
0.2655029296875	-0.00348297119140625	4057.36105375615
0.261077880859375	-0.00348419189453125	4057.80355875503
0.25665283203125	-0.00348541259765625	4058.24606375391
0.252227783203125	-0.0034869384765625	4058.6885687528
0.247802734375	-0.00348846435546875	4059.13107375168
0.243377685546875	-0.00349029541015625	4059.57357875056
0.23895263671875	-0.0034918212890625	4060.01608374944
0.234527587890625	-0.00349456787109375	4060.45858874833
0.2301025390625	-0.00349517822265625	4060.90109374721
0.225677490234375	-0.00349761962890625	4061.34359874609
0.22125244140625	-0.00350067138671875	4061.78610374498
0.216827392578125	-0.00350341796875	4062.22860874386
0.21240234375	-0.0035052490234375	4062.67111374274
0.207977294921875	-0.00350830078125	4063.11361874162
0.20355224609375	-0.00351104736328125	4063.55612374051
0.199127197265625	-0.003514404296875	4063.99862873939
0.1947021484375	-0.0035174560546875	4064.44113373827
0.190277099609375	-0.0035205078125	4064.88363873716
0.18585205078125	-0.0035235595703125	4065.32614373604
0.181427001953125	-0.00352752685546875	4065.76864873492
0.177001953125	-0.00353118896484375	4066.2111537338
0.172576904296875	-0.0035357666015625	4066.65365873269
0.16815185546875	-0.00353912353515625	4067.09616373157
0.163726806640625	-0.00354461669921875	4067.53866873045
0.1593017578125	-0.0035491943359375	4067.98117372933
0.154876708984375	-0.003553466796875	4068.42367872822
0.15045166015625	-0.0035589599609375	4068.8661837271
0.146026611328125	-0.00356536865234375	4069.30868872598
0.1416015625	-0.003570556640625	4069.75119372487
0.137176513671875	-0.0035760498046875	4070.19369872375
0.13275146484375	-0.0035833740234375	4070.63620372263
0.128326416015625	-0.0035906982421875	4071.07870872151
0.1239013671875	-0.0035980224609375	4071.5212137204
0.119476318359375	-0.0036053466796875	4071.96371871928
0.11505126953125	-0.00361114501953125	4072.40622371816
0.110626220703125	-0.00362060546875	4072.84872871705
0.106201171875	-0.00363006591796875	4073.29123371593
0.101776123046875	-0.00363983154296875	4073.73373871481
0.09735107421875	-0.00364990234375	4074.17624371369
0.092926025390625	-0.00365936279296875	4074.61874871258
0.0885009765625	-0.0036700439453125	4075.06125371146
0.084075927734375	-0.00368194580078125	4075.50375871034
0.07965087890625	-0.00369354248046875	4075.94626370922
0.075225830078125	-0.0037042236328125	4076.38876870811
0.07080078125	-0.00371673583984375	4076.83127370699
0.066375732421875	-0.00372955322265625	4077.27377870587
0.06195068359375	-0.0037432861328125	4077.71628370476
0.057525634765625	-0.00375640869140625	4078.15878870364
0.0531005859375	-0.0037713623046875	4078.60129370252
0.048675537109375	-0.00378509521484375	4079.0437987014
0.04425048828125	-0.00380096435546875	4079.48630370029
0.039825439453125	-0.00381591796875	4079.92880869917
0.035400390625	-0.003831787109375	4080.37131369805
0.030975341796875	-0.0038482666015625	4080.81381869694
0.02655029296875	-0.00386505126953125	4081.25632369582
0.022125244140625	-0.0038818359375	4081.6988286947
0.0177001953125	-0.003900146484375	4082.14133369358
0.013275146484375	-0.0039178466796875	4082.58383869247
0.00885009765625	-0.00393646240234375	4083.02634369135
0.004425048828125	-0.00395660400390625	4083.46884869023
0	-0.00397705078125	4083.91135368912
0.004425048828125	-0.00329376220703125	4084.353858688
0.00885009765625	-0.00271484375	4084.79636368688
0.013275146484375	-0.00221435546875	4085.23886868576
0.0177001953125	-0.00177734375	4085.68137368465
0.022125244140625	-0.0013916015625	4086.12387868353
0.02655029296875	-0.00104827880859375	4086.56638368241
0.030975341796875	-0.00074188232421875	4087.00888868129
0.035400390625	-0.000466552734375	4087.45139368018
0.039825439453125	-0.00021893310546875	4087.89389867906
0.04425048828125	5.2337646484375E-06	4088.33640367794
0.048675537109375	0.000209136962890625	4088.77890867683
0.0531005859375	0.0003941650390625	4089.22141367571
0.057525634765625	0.000564178466796875	4089.66391867459
0.06195068359375	0.000720245361328125	4090.10642367347
0.066375732421875	0.00086090087890625	4090.54892867236
0.07080078125	0.0009881591796875	4090.99143367124
0.075225830078125	0.00110595703125	4091.43393867012
0.07965087890625	0.00121337890625	4091.87644366901
0.084075927734375	0.00131378173828125	4092.31894866789
0.0885009765625	0.00140533447265625	4092.76145366677
0.092926025390625	0.001490478515625	4093.20395866565
0.09735107421875	0.00157073974609375	4093.64646366454
0.101776123046875	0.0016448974609375	4094.08896866342
0.106201171875	0.00171417236328125	4094.5314736623
0.110626220703125	0.00177825927734375	4094.97397866118
0.11505126953125	0.0018389892578125	4095.41648366007
0.119476318359375	0.001893310546875	4095.85898865895
0.1239013671875	0.00194580078125	4096.30149365783
0.128326416015625	0.00199554443359375	4096.74399865672
0.13275146484375	0.0020416259765625	4097.1865036556
0.137176513671875	0.0020849609375	4097.62900865448
0.1416015625	0.00212554931640625	4098.07151365336
0.146026611328125	0.0021636962890625	4098.51401865225
0.15045166015625	0.00220001220703125	4098.95652365113
0.154876708984375	0.00223419189453125	4099.39902865001
0.1593017578125	0.002265625	4099.8415336489
0.163726806640625	0.00229705810546875	4100.28403864778
0.16815185546875	0.0023260498046875	4100.72654364666
0.172576904296875	0.00235321044921875	4101.16904864554
0.177001953125	0.00238006591796875	4101.61155364443
0.181427001953125	0.00240570068359375	4102.05405864331
0.18585205078125	0.0024298095703125	4102.49656364219
0.190277099609375	0.0024530029296875	4102.93906864107
0.1947021484375	0.0024755859375	4103.38157363996
0.199127197265625	0.00249664306640625	4103.82407863884
0.20355224609375	0.00251678466796875	4104.26658363772
0.207977294921875	0.00253662109375	4104.70908863661
0.21240234375	0.0025555419921875	4105.15159363549
0.216827392578125	0.002574462890625	4105.59409863437
0.22125244140625	0.0025933837890625	4106.03660363325
0.225677490234375	0.00261199951171875	4106.47910863214
0.2301025390625	0.00262786865234375	4106.92161363102
0.234527587890625	0.002642822265625	4107.3641186299
0.23895263671875	0.00265869140625	4107.80662362879
0.243377685546875	0.0026739501953125	4108.24912862767
0.247802734375	0.00268951416015625	4108.69163362655
0.252227783203125	0.00270416259765625	4109.13413862543
0.25665283203125	0.002718505859375	4109.57664362432
0.261077880859375	0.00273223876953125	4110.0191486232
0.2655029296875	0.0027459716796875	4110.46165362208
0.269927978515625	0.002760009765625	4110.90415862097
0.27435302734375	0.0027734375	4111.34666361985
0.278778076171875	0.002786865234375	4111.78916861873
0.283203125	0.0027996826171875	4112.23167361761
0.287628173828125	0.00281341552734375	4112.6741786165
0.29205322265625	0.00282623291015625	4113.11668361538
0.296478271484375	0.00283905029296875	4113.55918861426
0.3009033203125	0.0028515625	4114.00169361314
0.305328369140625	0.0028643798828125	4114.44419861203
0.30975341796875	0.0028765869140625	4114.88670361091
0.314178466796875	0.0028912353515625	4115.32920860979
0.318603515625	0.00290313720703125	4115.77171360868
0.323028564453125	0.0029156494140625	4116.21421860756
0.32745361328125	0.00292694091796875	4116.65672360644
0.331878662109375	0.0029388427734375	4117.09922860532
0.3363037109375	0.0029510498046875	4117.54173360421
0.340728759765625	0.002962646484375	4117.98423860309
0.34515380859375	0.0029742431640625	4118.42674360197
0.349578857421875	0.00298583984375	4118.86924860085
0.35400390625	0.00299560546875	4119.31175359974
0.358428955078125	0.0030078125	4119.75425859862
0.36285400390625	0.00302001953125	4120.1967635975
0.367279052734375	0.0030322265625	4120.63926859639
0.3717041015625	0.0030438232421875	4121.08177359527
0.376129150390625	0.003055419921875	4121.52427859415
0.38055419921875	0.00306671142578125	4121.96678359303
0.384979248046875	0.0030780029296875	4122.40928859192
0.389404296875	0.00308990478515625	4122.8517935908
0.393829345703125	0.0030999755859375	4123.29429858968
0.39825439453125	0.00311187744140625	4123.73680358857
0.402679443359375	0.00312255859375	4124.17930858745
0.4071044921875	0.00313323974609375	4124.62181358633
0.411529541015625	0.00314361572265625	4125.06431858521
0.41595458984375	0.0031536865234375	4125.5068235841
0.420379638671875	0.00316436767578125	4125.94932858298
0.4248046875	0.003173828125	4126.39183358186
0.429229736328125	0.003182373046875	4126.83433858074
0.43365478515625	0.00319183349609375	4127.27684357963
0.438079833984375	0.00320068359375	4127.71934857851
0.4425048828125	0.00320953369140625	4128.16185357739
0.446929931640625	0.00321807861328125	4128.60435857628
0.45135498046875	0.003226318359375	4129.04686357516
0.455780029296875	0.00323486328125	4129.48936857404
0.460205078125	0.00324249267578125	4129.93187357292
0.464630126953125	0.003250732421875	4130.37437857181
0.46905517578125	0.00325775146484375	4130.81688357069
0.473480224609375	0.0032659912109375	4131.25938856957
0.4779052734375	0.00327301025390625	4131.70189356846
0.482330322265625	0.00328033447265625	4132.14439856734
0.48675537109375	0.00328765869140625	4132.58690356622
0.491180419921875	0.00329437255859375	4133.0294085651
0.49560546875	0.00330108642578125	4133.47191356399
0.500030517578125	0.0033074951171875	4133.91441856287
0.50445556640625	0.00331329345703125	4134.35692356175
0.508880615234375	0.00331939697265625	4134.79942856063
0.5133056640625	0.0033251953125	4135.24193355952
0.517730712890625	0.00332977294921875	4135.6844385584
0.52215576171875	0.0033355712890625	4136.12694355728
0.526580810546875	0.003341064453125	4136.56944855617
0.531005859375	0.00334564208984375	4137.01195355505
0.535430908203125	0.00335113525390625	4137.45445855393
0.53985595703125	0.00335540771484375	4137.89696355281
0.544281005859375	0.00336029052734375	4138.3394685517
0.5487060546875	0.00336334228515625	4138.78197355058
0.553131103515625	0.003367919921875	4139.22447854946
0.55755615234375	0.00337188720703125	4139.66698354835
0.561981201171875	0.00337615966796875	4140.10948854723
0.56640625	0.003380126953125	4140.55199354611
0.570831298828125	0.0033831787109375	4140.99449854499
0.57525634765625	0.0033868408203125	4141.43700354388
0.579681396484375	0.00339080810546875	4141.87950854276
0.5841064453125	0.0033941650390625	4142.32201354164
0.588531494140625	0.003394775390625	4142.76451854053
0.59295654296875	0.0033984375	4143.20702353941
0.597381591796875	0.00340240478515625	4143.64952853829
0.601806640625	0.0034063720703125	4144.09203353717
0.606231689453125	0.00340911865234375	4144.53453853606
0.61065673828125	0.003411865234375	4144.97704353494
0.615081787109375	0.00341552734375	4145.41954853382
0.6195068359375	0.0034185791015625	4145.8620535327
0.623931884765625	0.003421630859375	4146.30455853159
0.62835693359375	0.0034283447265625	4146.74706353047
0.632781982421875	0.00343017578125	4147.18956852935
0.63720703125	0.0034320068359375	4147.63207352824
0.641632080078125	0.0034344482421875	4148.07457852712
0.64605712890625	0.0034368896484375	4148.517083526
0.650482177734375	0.00344085693359375	4148.95958852488
0.6549072265625	0.00344268798828125	4149.40209352377
0.659332275390625	0.00344573974609375	4149.84459852265
0.66375732421875	0.00344940185546875	4150.28710352153
0.668182373046875	0.0034521484375	4150.72960852042
0.672607421875	0.00345611572265625	4151.1721135193
0.677032470703125	0.0034588623046875	4151.61461851818
0.68145751953125	0.00346221923828125	4152.05712351706
0.685882568359375	0.003465576171875	4152.49962851595
0.6903076171875	0.0034698486328125	4152.94213351483
0.694732666015625	0.0034735107421875	4153.38463851371
0.69915771484375	0.003477783203125	4153.82714351259
0.703582763671875	0.00347991943359375	4154.26964851148
0.7080078125	0.00348480224609375	4154.71215351036
0.712432861328125	0.0034893798828125	4155.15465850924
0.71685791015625	0.0034954833984375	4155.59716350813
0.721282958984375	0.003499755859375	4156.03966850701
0.7257080078125	0.003504638671875	4156.48217350589
0.730133056640625	0.0035101318359375	4156.92467850477
0.73455810546875	0.0035162353515625	4157.36718350366
0.738983154296875	0.0035223388671875	4157.80968850254
0.743408203125	0.003526611328125	4158.25219350142
0.747833251953125	0.0035333251953125	4158.69469850031
0.75225830078125	0.00354034423828125	4159.13720349919
0.756683349609375	0.00354827880859375	4159.57970849807
0.7611083984375	0.0035565185546875	4160.02221349695
0.765533447265625	0.0035650634765625	4160.46471849584
0.76995849609375	0.00357421875	4160.90722349472
0.774383544921875	0.00358245849609375	4161.3497284936
0.77880859375	0.00359375	4161.79223349248
0.783233642578125	0.003603515625	4162.23473849137
0.78765869140625	0.0036151123046875	4162.67724349025
0.792083740234375	0.0036260986328125	4163.11974848913
0.7965087890625	0.00363922119140625	4163.56225348802
0.800933837890625	0.00365325927734375	4164.0047584869
0.80535888671875	0.00366790771484375	4164.44726348578
0.809783935546875	0.00368377685546875	4164.88976848466
0.814208984375	0.00369964599609375	4165.33227348355
0.818634033203125	0.00371673583984375	4165.77477848243
0.82305908203125	0.003734130859375	4166.21728348131
0.827484130859375	0.00375335693359375	4166.65978848019
0.8319091796875	0.0037744140625	4167.10229347908
0.836334228515625	0.0037957763671875	4167.54479847796
0.84075927734375	0.0038189697265625	4167.98730347684
0.845184326171875	0.003843994140625	4168.42980847573
0.849609375	0.00386932373046875	4168.87231347461
0.854034423828125	0.003896484375	4169.31481847349
0.85845947265625	0.00392486572265625	4169.75732347237
0.862884521484375	0.00395355224609375	4170.19982847126
0.8673095703125	0.003985595703125	4170.64233347014
0.871734619140625	0.00401763916015625	4171.08483846902
0.87615966796875	0.0040533447265625	4171.52734346791
0.880584716796875	0.004090576171875	4171.96984846679
0.885009765625	0.0041290283203125	4172.41235346567
0.889434814453125	0.0041680908203125	4172.85485846455
0.89385986328125	0.0042095947265625	4173.29736346344
0.898284912109375	0.00425262451171875	4173.73986846232
0.9027099609375	0.00429931640625	4174.1823734612
0.907135009765625	0.004346923828125	4174.62487846009
0.91156005859375	0.00439544677734375	4175.06738345897
0.915985107421875	0.00444580078125	4175.50988845785
0.92041015625	0.0044989013671875	4175.95239345673
0.924835205078125	0.00455352783203125	4176.39489845562
0.92926025390625	0.0046099853515625	4176.8374034545
0.933685302734375	0.0046673583984375	4177.27990845338
0.9381103515625	0.00472900390625	4177.72241345226
0.942535400390625	0.004788818359375	4178.16491845115
0.94696044921875	0.004852294921875	4178.60742345003
0.951385498046875	0.00491607666015625	4179.04992844891
0.955810546875	0.00498260498046875	4179.4924334478
0.960235595703125	0.005048828125	4179.93493844668
0.96466064453125	0.00511688232421875	4180.37744344556
0.969085693359375	0.005186767578125	4180.81994844444
0.9735107421875	0.00525787353515625	4181.26245344333
0.977935791015625	0.005328369140625	4181.70495844221
0.98236083984375	0.00540008544921875	4182.14746344109
0.986785888671875	0.0054742431640625	4182.58996843998
0.9912109375	0.00554779052734375	4183.03247343886
0.995635986328125	0.00562286376953125	4183.47497843774
1.00006103515625	0.00569854736328125	4183.91748343662
0.995635986328125	0.0050347900390625	4184.35998843551
0.9912109375	0.00445098876953125	4184.80249343439
0.986785888671875	0.0039276123046875	4185.24499843327
0.98236083984375	0.0034515380859375	4185.68750343215
0.977935791015625	0.00301544189453125	4186.13000843104
0.9735107421875	0.00261627197265625	4186.57251342992
0.969085693359375	0.00224334716796875	4187.0150184288
0.96466064453125	0.00189788818359375	4187.45752342769
0.960235595703125	0.00157470703125	4187.90002842657
0.955810546875	0.00127349853515625	4188.34253342545
0.951385498046875	0.0009912109375	4188.78503842433
0.94696044921875	0.00072601318359375	4189.22754342322
0.942535400390625	0.00047698974609375	4189.6700484221
0.9381103515625	0.000241790771484375	4190.11255342098
0.933685302734375	1.83441162109375E-05	4190.55505841987
0.92926025390625	-0.00019000244140625	4190.99756341875
0.924835205078125	-0.000386199951171875	4191.44006841763
0.92041015625	-0.000571929931640625	4191.88257341651
0.915985107421875	-0.000746673583984375	4192.3250784154
0.91156005859375	-0.0009124755859375	4192.76758341428
0.907135009765625	-0.00106903076171875	4193.21008841316
0.9027099609375	-0.001217041015625	4193.65259341205
0.898284912109375	-0.00135589599609375	4194.09509841093
0.89385986328125	-0.00148834228515625	4194.53760340981
0.889434814453125	-0.00161346435546875	4194.98010840869
0.885009765625	-0.00173095703125	4195.42261340758
0.880584716796875	-0.00184234619140625	4195.86511840646
0.87615966796875	-0.00194732666015625	4196.30762340534
0.871734619140625	-0.0020458984375	4196.75012840422
0.8673095703125	-0.00213897705078125	4197.19263340311
0.862884521484375	-0.00222625732421875	4197.63513840199
0.85845947265625	-0.00230865478515625	4198.07764340087
0.854034423828125	-0.00238525390625	4198.52014839976
0.849609375	-0.00245819091796875	4198.96265339864
0.845184326171875	-0.00252593994140625	4199.40515839752
0.84075927734375	-0.00258941650390625	4199.8476633964
0.836334228515625	-0.00264862060546875	4200.29016839529
0.8319091796875	-0.0027032470703125	4200.73267339417
0.827484130859375	-0.0027545166015625	4201.17517839305
0.82305908203125	-0.0028021240234375	4201.61768339194
0.818634033203125	-0.00284576416015625	4202.06018839082
0.814208984375	-0.0028863525390625	4202.5026933897
0.809783935546875	-0.00292388916015625	4202.94519838858
0.80535888671875	-0.00295806884765625	4203.38770338747
0.800933837890625	-0.00299041748046875	4203.83020838635
0.7965087890625	-0.003018798828125	4204.27271338523
0.792083740234375	-0.0030450439453125	4204.71521838411
0.78765869140625	-0.00306854248046875	4205.157723383
0.783233642578125	-0.00308990478515625	4205.60022838188
0.77880859375	-0.0031072998046875	4206.04273338076
0.774383544921875	-0.00312408447265625	4206.48523837965
0.76995849609375	-0.0031396484375	4206.92774337853
0.765533447265625	-0.0031524658203125	4207.37024837741
0.7611083984375	-0.0031646728515625	4207.81275337629
0.756683349609375	-0.00317413330078125	4208.25525837518
0.75225830078125	-0.0031829833984375	4208.69776337406
0.747833251953125	-0.00319061279296875	4209.14026837294
0.743408203125	-0.00319732666015625	4209.58277337183
0.738983154296875	-0.00320098876953125	4210.02527837071
0.73455810546875	-0.0032037353515625	4210.46778336959
0.730133056640625	-0.00320648193359375	4210.91028836847
0.7257080078125	-0.00320953369140625	4211.35279336736
0.721282958984375	-0.00321075439453125	4211.79529836624
0.71685791015625	-0.00321258544921875	4212.23780336512
0.712432861328125	-0.003212890625	4212.680308364
0.7080078125	-0.0032135009765625	4213.12281336289
0.703582763671875	-0.00321197509765625	4213.56531836177
0.69915771484375	-0.00320892333984375	4214.00782336065
0.694732666015625	-0.00320770263671875	4214.45032835954
0.6903076171875	-0.00320526123046875	4214.89283335842
0.685882568359375	-0.00320343017578125	4215.3353383573
0.68145751953125	-0.0032012939453125	4215.77784335618
0.677032470703125	-0.00319915771484375	4216.22034835507
0.672607421875	-0.00319671630859375	4216.66285335395
0.668182373046875	-0.00319488525390625	4217.10535835283
0.66375732421875	-0.00319183349609375	4217.54786335172
0.659332275390625	-0.00319000244140625	4217.9903683506
0.6549072265625	-0.0031878662109375	4218.43287334948
0.650482177734375	-0.00318634033203125	4218.87537834836
0.64605712890625	-0.00318450927734375	4219.31788334725
0.641632080078125	-0.0031817626953125	4219.76038834613
0.63720703125	-0.003179931640625	4220.20289334501
0.632781982421875	-0.0031781005859375	4220.6453983439
0.62835693359375	-0.00317718505859375	4221.08790334278
0.623931884765625	-0.00317901611328125	4221.53040834166
0.6195068359375	-0.003177490234375	4221.97291334054
0.615081787109375	-0.00317626953125	4222.41541833943
0.61065673828125	-0.003175048828125	4222.85792333831
0.606231689453125	-0.003175048828125	4223.30042833719
0.601806640625	-0.00317535400390625	4223.74293333607
0.597381591796875	-0.00317535400390625	4224.18543833496
0.59295654296875	-0.00317535400390625	4224.62794333384
0.588531494140625	-0.0031756591796875	4225.07044833272
0.5841064453125	-0.0031756591796875	4225.5129533316
0.579681396484375	-0.003177490234375	4225.95545833049
0.57525634765625	-0.00317962646484375	4226.39796332937
0.570831298828125	-0.00318115234375	4226.84046832825
0.56640625	-0.00318389892578125	4227.28297332714
0.561981201171875	-0.00318603515625	4227.72547832602
0.55755615234375	-0.003189697265625	4228.1679833249
0.553131103515625	-0.0031927490234375	4228.61048832378
0.5487060546875	-0.0031964111328125	4229.05299332267
0.544281005859375	-0.00319976806640625	4229.49549832155
0.53985595703125	-0.003204345703125	4229.93800332043
0.535430908203125	-0.0032080078125	4230.38050831932
0.531005859375	-0.00321380615234375	4230.8230133182
0.526580810546875	-0.003218994140625	4231.26551831708
0.52215576171875	-0.00322479248046875	4231.70802331596
0.517730712890625	-0.0032305908203125	4232.15052831485
0.5133056640625	-0.0032373046875	4232.59303331373
0.508880615234375	-0.00324371337890625	4233.03553831261
0.50445556640625	-0.0032501220703125	4233.4780433115
0.500030517578125	-0.00325714111328125	4233.92054831038
0.49560546875	-0.00326416015625	4234.36305330926
0.491180419921875	-0.003271484375	4234.80555830814
0.48675537109375	-0.00327880859375	4235.24806330703
0.482330322265625	-0.00328643798828125	4235.69056830591
0.4779052734375	-0.00329437255859375	4236.13307330479
0.473480224609375	-0.00330230712890625	4236.57557830367
0.46905517578125	-0.0033111572265625	4237.01808330256
0.464630126953125	-0.0033184814453125	4237.46058830144
0.460205078125	-0.00332672119140625	4237.90309330032
0.455780029296875	-0.0033349609375	4238.34559829921
0.45135498046875	-0.0033428955078125	4238.78810329809
0.446929931640625	-0.003350830078125	4239.23060829697
0.4425048828125	-0.00335906982421875	4239.67311329585
0.438079833984375	-0.0033660888671875	4240.11561829474
0.43365478515625	-0.0033740234375	4240.55812329362
0.429229736328125	-0.00338226318359375	4241.0006282925
0.4248046875	-0.0033892822265625	4241.44313329139
0.420379638671875	-0.00339630126953125	4241.88563829027
0.41595458984375	-0.00340362548828125	4242.32814328915
0.411529541015625	-0.0034088134765625	4242.77064828803
0.4071044921875	-0.00341583251953125	4243.21315328692
0.402679443359375	-0.003421630859375	4243.6556582858
0.39825439453125	-0.00342681884765625	4244.09816328468
0.393829345703125	-0.0034320068359375	4244.54066828356
0.389404296875	-0.00343536376953125	4244.98317328245
0.384979248046875	-0.00344024658203125	4245.42567828133
0.38055419921875	-0.00344451904296875	4245.86818328021
0.376129150390625	-0.0034478759765625	4246.3106882791
0.3717041015625	-0.003450927734375	4246.75319327798
0.367279052734375	-0.00345489501953125	4247.19569827686
0.36285400390625	-0.00345703125	4247.63820327574
0.358428955078125	-0.0034600830078125	4248.08070827463
0.35400390625	-0.0034619140625	4248.52321327351
0.349578857421875	-0.0034625244140625	4248.96571827239
0.34515380859375	-0.0034649658203125	4249.40822327128
0.340728759765625	-0.0034661865234375	4249.85072827016
0.3363037109375	-0.00346832275390625	4250.29323326904
0.331878662109375	-0.0034698486328125	4250.73573826792
0.32745361328125	-0.0034710693359375	4251.17824326681
0.323028564453125	-0.0034722900390625	4251.62074826569
0.318603515625	-0.0034722900390625	4252.06325326457
0.314178466796875	-0.00347412109375	4252.50575826346
0.30975341796875	-0.00347747802734375	4252.94826326234
0.305328369140625	-0.00347808837890625	4253.39076826122
0.3009033203125	-0.00347808837890625	4253.8332732601
0.296478271484375	-0.00347869873046875	4254.27577825899
0.29205322265625	-0.00347930908203125	4254.71828325787
0.287628173828125	-0.003480224609375	4255.16078825675
0.283203125	-0.00348052978515625	4255.60329325563
0.278778076171875	-0.00348114013671875	4256.04579825452
0.27435302734375	-0.0034820556640625	4256.4883032534
0.269927978515625	-0.00348236083984375	4256.93080825228
0.2655029296875	-0.00348388671875	4257.37331325117
0.261077880859375	-0.00348480224609375	4257.81581825005
0.25665283203125	-0.00348602294921875	4258.25832324893
0.252227783203125	-0.00348724365234375	4258.70082824781
0.247802734375	-0.00348846435546875	4259.1433332467
0.243377685546875	-0.003489990234375	4259.58583824558
0.23895263671875	-0.0034918212890625	4260.02834324446
0.234527587890625	-0.00349365234375	4260.47084824335
0.2301025390625	-0.0034942626953125	4260.91335324223
0.225677490234375	-0.00349609375	4261.35585824111
0.22125244140625	-0.003497314453125	4261.79836323999
0.216827392578125	-0.00350006103515625	4262.24086823888
0.21240234375	-0.0035028076171875	4262.68337323776
0.207977294921875	-0.00350494384765625	4263.12587823664
0.20355224609375	-0.003507080078125	4263.56838323552
0.199127197265625	-0.003509521484375	4264.01088823441
0.1947021484375	-0.00351226806640625	4264.45339323329
0.190277099609375	-0.0035150146484375	4264.89589823217
0.18585205078125	-0.00351806640625	4265.33840323106
0.181427001953125	-0.00352142333984375	4265.78090822994
0.177001953125	-0.00352508544921875	4266.22341322882
0.172576904296875	-0.0035284423828125	4266.6659182277
0.16815185546875	-0.0035321044921875	4267.10842322659
0.163726806640625	-0.0035357666015625	4267.55092822547
0.1593017578125	-0.00354095458984375	4267.99343322435
0.154876708984375	-0.00354461669921875	4268.43593822324
0.15045166015625	-0.00354888916015625	4268.87844322212
0.146026611328125	-0.00355316162109375	4269.320948221
0.1416015625	-0.00355865478515625	4269.76345321988
0.137176513671875	-0.00356475830078125	4270.20595821877
0.13275146484375	-0.003570556640625	4270.64846321765
0.128326416015625	-0.00357666015625	4271.09096821653
0.1239013671875	-0.0035833740234375	4271.53347321542
0.119476318359375	-0.00358978271484375	4271.9759782143
0.11505126953125	-0.0035955810546875	4272.41848321318
0.110626220703125	-0.00360382080078125	4272.86098821206
0.106201171875	-0.00361053466796875	4273.30349321095
0.101776123046875	-0.00361907958984375	4273.74599820983
0.09735107421875	-0.0036285400390625	4274.18850320871
0.092926025390625	-0.0036376953125	4274.63100820759
0.0885009765625	-0.0036474609375	4275.07351320648
0.084075927734375	-0.0036578369140625	4275.51601820536
0.07965087890625	-0.00366790771484375	4275.95852320424
0.075225830078125	-0.00367767333984375	4276.40102820312
0.07080078125	-0.00368927001953125	4276.84353320201
0.066375732421875	-0.00370086669921875	4277.28603820089
0.06195068359375	-0.0037127685546875	4277.72854319977
0.057525634765625	-0.0037255859375	4278.17104819866
0.0531005859375	-0.00373870849609375	4278.61355319754
0.048675537109375	-0.003751220703125	4279.05605819642
0.04425048828125	-0.0037646484375	4279.4985631953
0.039825439453125	-0.00378021240234375	4279.94106819419
0.035400390625	-0.00379547119140625	4280.38357319307
0.030975341796875	-0.003809814453125	4280.82607819195
0.02655029296875	-0.00382537841796875	4281.26858319084
0.022125244140625	-0.0038427734375	4281.71108818972
0.0177001953125	-0.0038604736328125	4282.1535931886
0.013275146484375	-0.00387908935546875	4282.59609818748
0.00885009765625	-0.00389678955078125	4283.03860318637
0.004425048828125	-0.0039166259765625	4283.48110818525
0	-0.0039373779296875	4283.92361318413
0.004425048828125	-0.00325592041015625	4284.36611818302
0.00885009765625	-0.00267791748046875	4284.8086231819
0.013275146484375	-0.0021795654296875	4285.25112818078
0.0177001953125	-0.0017431640625	4285.69363317966
0.022125244140625	-0.001358642578125	4286.13613817855
0.02655029296875	-0.001016845703125	4286.57864317743
0.030975341796875	-0.00071197509765625	4287.02114817631
0.035400390625	-0.000437896728515625	4287.46365317519
0.039825439453125	-0.000191192626953125	4287.90615817408
0.04425048828125	3.22906494140625E-05	4288.34866317296
0.048675537109375	0.00023486328125	4288.79116817184
0.0531005859375	0.00041925048828125	4289.23367317073
0.057525634765625	0.000589111328125	4289.67617816961
0.06195068359375	0.000743499755859375	4290.11868316849
0.066375732421875	0.00088226318359375	4290.56118816737
0.07080078125	0.001009521484375	4291.00369316626
0.075225830078125	0.001126708984375	4291.44619816514
0.07965087890625	0.00123382568359375	4291.88870316402
0.084075927734375	0.00133270263671875	4292.33120816291
0.0885009765625	0.0014239501953125	4292.77371316179
0.092926025390625	0.00150848388671875	4293.21621816067
0.09735107421875	0.001588134765625	4293.65872315955
0.101776123046875	0.00166107177734375	4294.10122815844
0.106201171875	0.001729736328125	4294.54373315732
0.110626220703125	0.00179443359375	4294.9862381562
0.11505126953125	0.001854248046875	4295.42874315508
0.119476318359375	0.00190887451171875	4295.87124815397
0.1239013671875	0.0019610595703125	4296.31375315285
0.128326416015625	0.00201019287109375	4296.75625815173
0.13275146484375	0.0020556640625	4297.19876315062
0.137176513671875	0.00209869384765625	4297.6412681495
0.1416015625	0.00213897705078125	4298.08377314838
0.146026611328125	0.00217742919921875	4298.52627814726
0.15045166015625	0.00221343994140625	4298.96878314615
0.154876708984375	0.002247314453125	4299.41128814503
0.1593017578125	0.00227874755859375	4299.85379314391
0.163726806640625	0.0023089599609375	4300.2962981428
0.16815185546875	0.00233734130859375	4300.73880314168
0.172576904296875	0.00236480712890625	4301.18130814056
0.177001953125	0.00239105224609375	4301.62381313944
0.181427001953125	0.00241607666015625	4302.06631813833
0.18585205078125	0.00243988037109375	4302.50882313721
0.190277099609375	0.00246337890625	4302.95132813609
0.1947021484375	0.00248504638671875	4303.39383313497
0.199127197265625	0.00250579833984375	4303.83633813386
0.20355224609375	0.00252655029296875	4304.27884313274
0.207977294921875	0.002545166015625	4304.72134813162
0.21240234375	0.00256439208984375	4305.16385313051
0.216827392578125	0.00258331298828125	4305.60635812939
0.22125244140625	0.00260162353515625	4306.04886312827
0.225677490234375	0.00261871337890625	4306.49136812715
0.2301025390625	0.00263458251953125	4306.93387312604
0.234527587890625	0.0026495361328125	4307.37637812492
0.23895263671875	0.00266510009765625	4307.8188831238
0.243377685546875	0.00268035888671875	4308.26138812269
0.247802734375	0.00269561767578125	4308.70389312157
0.252227783203125	0.00271026611328125	4309.14639812045
0.25665283203125	0.002723388671875	4309.58890311933
0.261077880859375	0.00273773193359375	4310.03140811822
0.2655029296875	0.00275115966796875	4310.4739131171
0.269927978515625	0.002764892578125	4310.91641811598
0.27435302734375	0.00277740478515625	4311.35892311487
0.278778076171875	0.00278961181640625	4311.80142811375
0.283203125	0.002802734375	4312.24393311263
0.287628173828125	0.002816162109375	4312.68643811151
0.29205322265625	0.00282806396484375	4313.1289431104
0.296478271484375	0.002840576171875	4313.57144810928
0.3009033203125	0.0028521728515625	4314.01395310816
0.305328369140625	0.00286468505859375	4314.45645810704
0.30975341796875	0.00287689208984375	4314.89896310593
0.314178466796875	0.00289154052734375	4315.34146810481
0.318603515625	0.00290252685546875	4315.78397310369
0.323028564453125	0.00291412353515625	4316.22647810258
0.32745361328125	0.002926025390625	4316.66898310146
0.331878662109375	0.00293731689453125	4317.11148810034
0.3363037109375	0.00294891357421875	4317.55399309922
0.340728759765625	0.002960205078125	4317.99649809811
0.34515380859375	0.00297088623046875	4318.43900309699
0.349578857421875	0.00298248291015625	4318.88150809587
0.35400390625	0.00299224853515625	4319.32401309476
0.358428955078125	0.003004150390625	4319.76651809364
0.36285400390625	0.00301513671875	4320.20902309252
0.367279052734375	0.00302734375	4320.6515280914
0.3717041015625	0.00303863525390625	4321.09403309029
0.376129150390625	0.00304931640625	4321.53653808917
0.38055419921875	0.00305999755859375	4321.97904308805
0.384979248046875	0.0030718994140625	4322.42154808693
0.389404296875	0.00308258056640625	4322.86405308582
0.393829345703125	0.00309173583984375	4323.3065580847
0.39825439453125	0.0031024169921875	4323.74906308358
0.402679443359375	0.00311370849609375	4324.19156808247
0.4071044921875	0.0031243896484375	4324.63407308135
0.411529541015625	0.00313507080078125	4325.07657808023
0.41595458984375	0.00314544677734375	4325.51908307911
0.420379638671875	0.0031549072265625	4325.961588078
0.4248046875	0.0031640625	4326.40409307688
0.429229736328125	0.00317413330078125	4326.84659807576
0.43365478515625	0.00318328857421875	4327.28910307465
0.438079833984375	0.00319244384765625	4327.73160807353
0.4425048828125	0.00320068359375	4328.17411307241
0.446929931640625	0.00320831298828125	4328.61661807129
0.45135498046875	0.00321746826171875	4329.05912307018
0.455780029296875	0.0032257080078125	4329.50162806906
0.460205078125	0.00323333740234375	4329.94413306794
0.464630126953125	0.003240966796875	4330.38663806683
0.46905517578125	0.0032476806640625	4330.82914306571
0.473480224609375	0.0032550048828125	4331.27164806459
0.4779052734375	0.00326263427734375	4331.71415306347
0.482330322265625	0.003270263671875	4332.15665806236
0.48675537109375	0.00327789306640625	4332.59916306124
0.491180419921875	0.00328399658203125	4333.04166806012
0.49560546875	0.003289794921875	4333.484173059
0.500030517578125	0.003297119140625	4333.92667805789
0.50445556640625	0.00330352783203125	4334.36918305677
0.508880615234375	0.00330963134765625	4334.81168805565
0.5133056640625	0.0033148193359375	4335.25419305454
0.517730712890625	0.0033203125	4335.69669805342
0.52215576171875	0.0033251953125	4336.1392030523
0.526580810546875	0.0033306884765625	4336.58170805118
0.531005859375	0.0033355712890625	4337.02421305007
0.535430908203125	0.00334075927734375	4337.46671804895
0.53985595703125	0.00334503173828125	4337.90922304783
0.544281005859375	0.00334930419921875	4338.35172804671
0.5487060546875	0.00335357666015625	4338.7942330456
0.553131103515625	0.00335845947265625	4339.23673804448
0.55755615234375	0.00336151123046875	4339.67924304336
0.561981201171875	0.003365478515625	4340.12174804225
0.56640625	0.003369140625	4340.56425304113
0.570831298828125	0.0033734130859375	4341.00675804001
0.57525634765625	0.00337738037109375	4341.44926303889
0.579681396484375	0.003380126953125	4341.89176803778
0.5841064453125	0.0033831787109375	4342.33427303666
0.588531494140625	0.00338470458984375	4342.77677803554
0.59295654296875	0.0033892822265625	4343.21928303443
0.597381591796875	0.0033929443359375	4343.66178803331
0.601806640625	0.0033953857421875	4344.10429303219
0.606231689453125	0.00339874267578125	4344.54679803107
0.61065673828125	0.00340179443359375	4344.98930302996
0.615081787109375	0.00340484619140625	4345.43180802884
0.6195068359375	0.00340789794921875	4345.87431302772
0.623931884765625	0.00341033935546875	4346.3168180266
0.62835693359375	0.003416748046875	4346.75932302549
0.632781982421875	0.003419189453125	4347.20182802437
0.63720703125	0.00342071533203125	4347.64433302325
0.641632080078125	0.003424072265625	4348.08683802214
0.64605712890625	0.0034271240234375	4348.52934302102
0.650482177734375	0.0034295654296875	4348.9718480199
0.6549072265625	0.00343231201171875	4349.41435301878
0.659332275390625	0.00343597412109375	4349.85685801767
0.66375732421875	0.003438720703125	4350.29936301655
0.668182373046875	0.003441162109375	4350.74186801543
0.672607421875	0.00344482421875	4351.18437301432
0.677032470703125	0.00344818115234375	4351.6268780132
0.68145751953125	0.00345123291015625	4352.06938301208
0.685882568359375	0.00345458984375	4352.51188801096
0.6903076171875	0.00345855712890625	4352.95439300985
0.694732666015625	0.00346221923828125	4353.39689800873
0.69915771484375	0.003466796875	4353.83940300761
0.703582763671875	0.00346923828125	4354.28190800649
0.7080078125	0.0034735107421875	4354.72441300538
0.712432861328125	0.00347808837890625	4355.16691800426
0.71685791015625	0.003482666015625	4355.60942300314
0.721282958984375	0.003487548828125	4356.05192800203
0.7257080078125	0.003492431640625	4356.49443300091
0.730133056640625	0.00349761962890625	4356.93693799979
0.73455810546875	0.00350341796875	4357.37944299867
0.738983154296875	0.00350921630859375	4357.82194799756
0.743408203125	0.00351409912109375	4358.26445299644
0.747833251953125	0.0035198974609375	4358.70695799532
0.75225830078125	0.00352691650390625	4359.14946299421
0.756683349609375	0.00353515625	4359.59196799309
0.7611083984375	0.00354248046875	4360.03447299197
0.765533447265625	0.00355010986328125	4360.47697799085
0.76995849609375	0.00355865478515625	4360.91948298974
0.774383544921875	0.00356719970703125	4361.36198798862
0.77880859375	0.003577880859375	4361.8044929875
0.783233642578125	0.00358795166015625	4362.24699798639
0.78765869140625	0.0035986328125	4362.68950298527
0.792083740234375	0.0036102294921875	4363.13200798415
0.7965087890625	0.003623046875	4363.57451298303
0.800933837890625	0.00363525390625	4364.01701798192
0.80535888671875	0.0036492919921875	4364.4595229808
0.809783935546875	0.0036651611328125	4364.90202797968
0.814208984375	0.00367919921875	4365.34453297856
0.818634033203125	0.00369720458984375	4365.78703797745
0.82305908203125	0.0037152099609375	4366.22954297633
0.827484130859375	0.00373291015625	4366.67204797521
0.8319091796875	0.0037530517578125	4367.1145529741
0.836334228515625	0.00377410888671875	4367.55705797298
0.84075927734375	0.00379608154296875	4367.99956297186
0.845184326171875	0.00381988525390625	4368.44206797074
0.849609375	0.00384490966796875	4368.88457296963
0.854034423828125	0.0038714599609375	4369.32707796851
0.85845947265625	0.00389923095703125	4369.76958296739
0.862884521484375	0.0039263916015625	4370.21208796628
0.8673095703125	0.0039569091796875	4370.65459296516
0.871734619140625	0.00398895263671875	4371.09709796404
0.87615966796875	0.00402313232421875	4371.53960296292
0.880584716796875	0.00405914306640625	4371.98210796181
0.885009765625	0.0040960693359375	4372.42461296069
0.889434814453125	0.00413482666015625	4372.86711795957
0.89385986328125	0.0041754150390625	4373.30962295845
0.898284912109375	0.00421783447265625	4373.75212795734
0.9027099609375	0.00426177978515625	4374.19463295622
0.907135009765625	0.00430755615234375	4374.6371379551
0.91156005859375	0.00435546875	4375.07964295399
0.915985107421875	0.00440521240234375	4375.52214795287
0.92041015625	0.00445587158203125	4375.96465295175
0.924835205078125	0.00450775146484375	4376.40715795063
0.92926025390625	0.00456298828125	4376.84966294952
0.933685302734375	0.004619140625	4377.2921679484
0.9381103515625	0.00467926025390625	4377.73467294728
0.942535400390625	0.00473876953125	4378.17717794617
0.94696044921875	0.00479888916015625	4378.61968294505
0.951385498046875	0.00486114501953125	4379.06218794393
0.955810546875	0.00492401123046875	4379.50469294281
0.960235595703125	0.004989013671875	4379.9471979417
0.96466064453125	0.00505523681640625	4380.38970294058
0.969085693359375	0.005123291015625	4380.83220793946
0.9735107421875	0.0051910400390625	4381.27471293834
0.977935791015625	0.00525848388671875	4381.71721793723
0.98236083984375	0.00532928466796875	4382.15972293611
0.986785888671875	0.005401611328125	4382.60222793499
0.9912109375	0.0054742431640625	4383.04473293388
0.995635986328125	0.0055462646484375	4383.48723793276
1.00006103515625	0.00561981201171875	4383.92974293164
0.995635986328125	0.0049560546875	4384.37224793052
0.9912109375	0.0043756103515625	4384.81475292941
0.986785888671875	0.00385467529296875	4385.25725792829
0.98236083984375	0.00338134765625	4385.69976292717
0.977935791015625	0.00294830322265625	4386.14226792605
0.9735107421875	0.00255218505859375	4386.58477292494
0.969085693359375	0.0021832275390625	4387.02727792382
0.96466064453125	0.00184051513671875	4387.4697829227
0.960235595703125	0.0015216064453125	4387.91228792159
0.955810546875	0.00122344970703125	4388.35479292047
0.951385498046875	0.0009442138671875	4388.79729791935
0.94696044921875	0.0006829833984375	4389.23980291824
0.942535400390625	0.00043695068359375	4389.68230791712
0.9381103515625	0.000205810546875	4390.124812916
0.933685302734375	-1.446533203125E-05	4390.56731791488
0.92926025390625	-0.000218963623046875	4391.00982291377
0.924835205078125	-0.0004119873046875	4391.45232791265
0.92041015625	-0.000594207763671875	4391.89483291153
0.915985107421875	-0.000766326904296875	4392.33733791041
0.91156005859375	-0.000928955078125	4392.7798429093
0.907135009765625	-0.00108245849609375	4393.22234790818
0.9027099609375	-0.00122772216796875	4393.66485290706
0.898284912109375	-0.0013641357421875	4394.10735790595
0.89385986328125	-0.00149383544921875	4394.54986290483
0.889434814453125	-0.0016168212890625	4394.99236790371
0.885009765625	-0.00173187255859375	4395.43487290259
0.880584716796875	-0.00184112548828125	4395.87737790148
0.87615966796875	-0.0019439697265625	4396.31988290036
0.871734619140625	-0.00204071044921875	4396.76238789924
0.8673095703125	-0.00213165283203125	4397.20489289812
0.862884521484375	-0.00221771240234375	4397.64739789701
0.85845947265625	-0.00229705810546875	4398.08990289589
0.854034423828125	-0.002371826171875	4398.53240789477
0.849609375	-0.00244384765625	4398.97491289366
0.845184326171875	-0.00250946044921875	4399.41741789254
0.84075927734375	-0.002572021484375	4399.85992289142
0.836334228515625	-0.0026300048828125	4400.3024278903
0.8319091796875	-0.00268341064453125	4400.74493288919
0.827484130859375	-0.002733154296875	4401.18743788807
0.82305908203125	-0.002779541015625	4401.62994288695
0.818634033203125	-0.00282196044921875	4402.07244788584
0.814208984375	-0.0028619384765625	4402.51495288472
0.809783935546875	-0.00289825439453125	4402.9574578836
0.80535888671875	-0.0029315185546875	4403.39996288248
0.800933837890625	-0.00296173095703125	4403.84246788137
0.7965087890625	-0.00299041748046875	4404.28497288025
0.792083740234375	-0.00301605224609375	4404.72747787913
0.78765869140625	-0.0030389404296875	4405.16998287801
0.783233642578125	-0.0030596923828125	4405.6124878769
0.77880859375	-0.0030780029296875	4406.05499287578
0.774383544921875	-0.0030938720703125	4406.49749787466
0.76995849609375	-0.003109130859375	4406.94000287355
0.765533447265625	-0.0031219482421875	4407.38250787243
0.7611083984375	-0.00313262939453125	4407.82501287131
0.756683349609375	-0.00314178466796875	4408.26751787019
0.75225830078125	-0.00315032958984375	4408.71002286908
0.747833251953125	-0.0031573486328125	4409.15252786796
0.743408203125	-0.00316314697265625	4409.59503286684
0.738983154296875	-0.00316619873046875	4410.03753786573
0.73455810546875	-0.00317108154296875	4410.48004286461
0.730133056640625	-0.00317352294921875	4410.92254786349
0.7257080078125	-0.00317626953125	4411.36505286237
0.721282958984375	-0.003177490234375	4411.80755786126
0.71685791015625	-0.0031781005859375	4412.25006286014
0.712432861328125	-0.00317901611328125	4412.69256785902
0.7080078125	-0.00317962646484375	4413.13507285791
0.703582763671875	-0.0031805419921875	4413.57757785679
0.69915771484375	-0.0031787109375	4414.02008285567
0.694732666015625	-0.00317626953125	4414.46258785455
0.6903076171875	-0.003173828125	4414.90509285344
0.685882568359375	-0.00317291259765625	4415.34759785232
0.68145751953125	-0.00317108154296875	4415.7901028512
0.677032470703125	-0.00316925048828125	4416.23260785008
0.672607421875	-0.0031671142578125	4416.67511284897
0.668182373046875	-0.0031646728515625	4417.11761784785
0.66375732421875	-0.00316314697265625	4417.56012284673
0.659332275390625	-0.0031622314453125	4418.00262784562
0.6549072265625	-0.0031610107421875	4418.4451328445
0.650482177734375	-0.00315887451171875	4418.88763784338
0.64605712890625	-0.00315673828125	4419.33014284226
0.641632080078125	-0.00315521240234375	4419.77264784115
0.63720703125	-0.00315399169921875	4420.21515284003
0.632781982421875	-0.00315338134765625	4420.65765783891
0.62835693359375	-0.00315277099609375	4421.1001628378
0.623931884765625	-0.00315582275390625	4421.54266783668
0.6195068359375	-0.00315460205078125	4421.98517283556
0.615081787109375	-0.0031536865234375	4422.42767783444
0.61065673828125	-0.00315338134765625	4422.87018283333
0.606231689453125	-0.003153076171875	4423.31268783221
0.601806640625	-0.0031536865234375	4423.75519283109
0.597381591796875	-0.00315399169921875	4424.19769782997
0.59295654296875	-0.0031549072265625	4424.64020282886
0.588531494140625	-0.003155517578125	4425.08270782774
0.5841064453125	-0.003155517578125	4425.52521282662
0.579681396484375	-0.00315765380859375	4425.96771782551
0.57525634765625	-0.00315948486328125	4426.41022282439
0.570831298828125	-0.00316192626953125	4426.85272782327
0.56640625	-0.00316497802734375	4427.29523282215
0.561981201171875	-0.00316741943359375	4427.73773782104
0.55755615234375	-0.00317108154296875	4428.18024281992
0.553131103515625	-0.00317535400390625	4428.6227478188
0.5487060546875	-0.0031787109375	4429.06525281769
0.544281005859375	-0.00318145751953125	4429.50775781657
0.53985595703125	-0.00318695068359375	4429.95026281545
0.535430908203125	-0.00319091796875	4430.39276781433
0.531005859375	-0.0031964111328125	4430.83527281322
0.526580810546875	-0.00320159912109375	4431.2777778121
0.52215576171875	-0.0032073974609375	4431.72028281098
0.517730712890625	-0.003214111328125	4432.16278780986
0.5133056640625	-0.00322052001953125	4432.60529280875
0.508880615234375	-0.0032275390625	4433.04779780763
0.50445556640625	-0.003233642578125	4433.49030280651
0.500030517578125	-0.003240966796875	4433.9328078054
0.49560546875	-0.00324859619140625	4434.37531280428
0.491180419921875	-0.00325653076171875	4434.81781780316
0.48675537109375	-0.00326446533203125	4435.26032280204
0.482330322265625	-0.00327239990234375	4435.70282780093
0.4779052734375	-0.00327972412109375	4436.14533279981
0.473480224609375	-0.0032879638671875	4436.58783779869
0.46905517578125	-0.00329681396484375	4437.03034279758
0.464630126953125	-0.00330596923828125	4437.47284779646
0.460205078125	-0.00331451416015625	4437.91535279534
0.455780029296875	-0.0033221435546875	4438.35785779422
0.45135498046875	-0.00333160400390625	4438.80036279311
0.446929931640625	-0.00334075927734375	4439.24286779199
0.4425048828125	-0.00334869384765625	4439.68537279087
0.438079833984375	-0.0033563232421875	4440.12787778976
0.43365478515625	-0.00336456298828125	4440.57038278864
0.429229736328125	-0.0033721923828125	4441.01288778752
0.4248046875	-0.00337921142578125	4441.4553927864
0.420379638671875	-0.003387451171875	4441.89789778529
0.41595458984375	-0.0033941650390625	4442.34040278417
0.411529541015625	-0.0034002685546875	4442.78290778305
0.4071044921875	-0.00340667724609375	4443.22541278193
0.402679443359375	-0.0034130859375	4443.66791778082
0.39825439453125	-0.00341888427734375	4444.1104227797
0.393829345703125	-0.00342437744140625	4444.55292777858
0.389404296875	-0.00342864990234375	4444.99543277746
0.384979248046875	-0.0034332275390625	4445.43793777635
0.38055419921875	-0.0034375	4445.88044277523
0.376129150390625	-0.003441162109375	4446.32294777411
0.3717041015625	-0.0034454345703125	4446.765452773
0.367279052734375	-0.003448486328125	4447.20795777188
0.36285400390625	-0.003450927734375	4447.65046277076
0.358428955078125	-0.00345306396484375	4448.09296776964
0.35400390625	-0.00345550537109375	4448.53547276853
0.349578857421875	-0.00345611572265625	4448.97797776741
0.34515380859375	-0.00345794677734375	4449.42048276629
0.340728759765625	-0.00346038818359375	4449.86298776518
0.3363037109375	-0.00346221923828125	4450.30549276406
0.331878662109375	-0.003463134765625	4450.74799776294
0.32745361328125	-0.0034637451171875	4451.19050276182
0.323028564453125	-0.003465576171875	4451.63300776071
0.318603515625	-0.0034661865234375	4452.07551275959
0.314178466796875	-0.003466796875	4452.51801775847
0.30975341796875	-0.0034698486328125	4452.96052275736
0.305328369140625	-0.0034698486328125	4453.40302775624
0.3009033203125	-0.003470458984375	4453.84553275512
0.296478271484375	-0.00347076416015625	4454.288037754
0.29205322265625	-0.00347076416015625	4454.73054275289
0.287628173828125	-0.00347076416015625	4455.17304775177
0.283203125	-0.00347198486328125	4455.61555275065
0.278778076171875	-0.003472900390625	4456.05805774953
0.27435302734375	-0.0034735107421875	4456.50056274842
0.269927978515625	-0.00347381591796875	4456.9430677473
0.2655029296875	-0.00347412109375	4457.38557274618
0.261077880859375	-0.003475341796875	4457.82807774507
0.25665283203125	-0.00347564697265625	4458.27058274395
0.252227783203125	-0.00347625732421875	4458.71308774283
0.247802734375	-0.0034771728515625	4459.15559274171
0.243377685546875	-0.0034783935546875	4459.5980977406
0.23895263671875	-0.003480224609375	4460.04060273948
0.234527587890625	-0.0034814453125	4460.48310773836
0.2301025390625	-0.00348236083984375	4460.92561273725
0.225677490234375	-0.00348419189453125	4461.36811773613
0.22125244140625	-0.00348602294921875	4461.81062273501
0.216827392578125	-0.00348724365234375	4462.25312773389
0.21240234375	-0.0034893798828125	4462.69563273278
0.207977294921875	-0.0034918212890625	4463.13813773166
0.20355224609375	-0.00349456787109375	4463.58064273054
0.199127197265625	-0.0034967041015625	4464.02314772942
0.1947021484375	-0.00349945068359375	4464.46565272831
0.190277099609375	-0.0035015869140625	4464.90815772719
0.18585205078125	-0.0035040283203125	4465.35066272607
0.181427001953125	-0.00350677490234375	4465.79316772496
0.177001953125	-0.00350921630859375	4466.23567272384
0.172576904296875	-0.00351318359375	4466.67817772272
0.16815185546875	-0.0035174560546875	4467.1206827216
0.163726806640625	-0.0035211181640625	4467.56318772049
0.1593017578125	-0.00352508544921875	4468.00569271937
0.154876708984375	-0.0035284423828125	4468.44819771825
0.15045166015625	-0.00353302001953125	4468.89070271714
0.146026611328125	-0.00353729248046875	4469.33320771602
0.1416015625	-0.00354278564453125	4469.7757127149
0.137176513671875	-0.0035479736328125	4470.21821771378
0.13275146484375	-0.00355377197265625	4470.66072271267
0.128326416015625	-0.0035601806640625	4471.10322771155
0.1239013671875	-0.00356597900390625	4471.54573271043
0.119476318359375	-0.0035723876953125	4471.98823770932
0.11505126953125	-0.00357818603515625	4472.4307427082
0.110626220703125	-0.00358642578125	4472.87324770708
0.106201171875	-0.0035943603515625	4473.31575270596
0.101776123046875	-0.003602294921875	4473.75825770485
0.09735107421875	-0.0036102294921875	4474.20076270373
0.092926025390625	-0.00361968994140625	4474.64326770261
0.0885009765625	-0.00362884521484375	4475.08577270149
0.084075927734375	-0.00363922119140625	4475.52827770038
0.07965087890625	-0.00364959716796875	4475.97078269926
0.075225830078125	-0.00365875244140625	4476.41328769814
0.07080078125	-0.00367034912109375	4476.85579269703
0.066375732421875	-0.0036822509765625	4477.29829769591
0.06195068359375	-0.00369384765625	4477.74080269479
0.057525634765625	-0.00370635986328125	4478.18330769367
0.0531005859375	-0.003719482421875	4478.62581269256
0.048675537109375	-0.00373321533203125	4479.06831769144
0.04425048828125	-0.003746337890625	4479.51082269032
0.039825439453125	-0.00376190185546875	4479.95332768921
0.035400390625	-0.00377685546875	4480.39583268809
0.030975341796875	-0.00379241943359375	4480.83833768697
0.02655029296875	-0.00380859375	4481.28084268585
0.022125244140625	-0.0038250732421875	4481.72334768474
0.0177001953125	-0.00384246826171875	4482.16585268362
0.013275146484375	-0.00386138916015625	4482.6083576825
0.00885009765625	-0.0038812255859375	4483.05086268138
0.004425048828125	-0.0039007568359375	4483.49336768027
0	-0.00392120361328125	4483.93587267915
0.004425048828125	-0.00324249267578125	4484.37837767803
0.00885009765625	-0.00266632080078125	4484.82088267692
0.013275146484375	-0.00216827392578125	4485.2633876758
0.0177001953125	-0.0017327880859375	4485.70589267468
0.022125244140625	-0.0013482666015625	4486.14839767356
0.02655029296875	-0.00100677490234375	4486.59090267245
0.030975341796875	-0.000701904296875	4487.03340767133
0.035400390625	-0.000427642822265625	4487.47591267021
0.039825439453125	-0.00018084716796875	4487.9184176691
0.04425048828125	4.26116943359375E-05	4488.36092266798
0.048675537109375	0.000245147705078125	4488.80342766686
0.0531005859375	0.000429595947265625	4489.24593266574
0.057525634765625	0.000600677490234375	4489.68843766463
0.06195068359375	0.0007550048828125	4490.13094266351
0.066375732421875	0.0008941650390625	4490.57344766239
0.07080078125	0.00102081298828125	4491.01595266128
0.075225830078125	0.001138916015625	4491.45845766016
0.07965087890625	0.00124603271484375	4491.90096265904
0.084075927734375	0.00134552001953125	4492.34346765792
0.0885009765625	0.00143646240234375	4492.78597265681
0.092926025390625	0.00152099609375	4493.22847765569
0.09735107421875	0.001600341796875	4493.67098265457
0.101776123046875	0.00167388916015625	4494.11348765345
0.106201171875	0.0017431640625	4494.55599265234
0.110626220703125	0.001807861328125	4494.99849765122
0.11505126953125	0.00186798095703125	4495.4410026501
0.119476318359375	0.0019219970703125	4495.88350764898
0.1239013671875	0.0019744873046875	4496.32601264787
0.128326416015625	0.00202423095703125	4496.76851764675
0.13275146484375	0.0020697021484375	4497.21102264563
0.137176513671875	0.00211273193359375	4497.65352764452
0.1416015625	0.002152099609375	4498.0960326434
0.146026611328125	0.0021905517578125	4498.53853764228
0.15045166015625	0.00222686767578125	4498.98104264117
0.154876708984375	0.00226043701171875	4499.42354764005
0.1593017578125	0.0022918701171875	4499.86605263893
0.163726806640625	0.00232208251953125	4500.30855763781
0.16815185546875	0.00235015869140625	4500.7510626367
0.172576904296875	0.00237762451171875	4501.19356763558
0.177001953125	0.0024041748046875	4501.63607263446
0.181427001953125	0.00242919921875	4502.07857763334
0.18585205078125	0.0024517822265625	4502.52108263223
0.190277099609375	0.00247467041015625	4502.96358763111
0.1947021484375	0.00249664306640625	4503.40609262999
0.199127197265625	0.00251708984375	4503.84859762888
0.20355224609375	0.002537841796875	4504.29110262776
0.207977294921875	0.00255706787109375	4504.73360762664
0.21240234375	0.00257568359375	4505.17611262552
0.216827392578125	0.0025933837890625	4505.61861762441
0.22125244140625	0.00261077880859375	4506.06112262329
0.225677490234375	0.002626953125	4506.50362762217
0.2301025390625	0.0026434326171875	4506.94613262105
0.234527587890625	0.00265716552734375	4507.38863761994
0.23895263671875	0.00267303466796875	4507.83114261882
0.243377685546875	0.002689208984375	4508.2736476177
0.247802734375	0.0027032470703125	4508.71615261659
0.252227783203125	0.00271728515625	4509.15865761547
0.25665283203125	0.002730712890625	4509.60116261435
0.261077880859375	0.0027435302734375	4510.04366761323
0.2655029296875	0.0027569580078125	4510.48617261212
0.269927978515625	0.00277008056640625	4510.928677611
0.27435302734375	0.0027825927734375	4511.37118260988
0.278778076171875	0.00279449462890625	4511.81368760877
0.283203125	0.0028070068359375	4512.25619260765
0.287628173828125	0.00281982421875	4512.69869760653
0.29205322265625	0.002830810546875	4513.14120260541
0.296478271484375	0.002843017578125	4513.5837076043
0.3009033203125	0.0028558349609375	4514.02621260318
0.305328369140625	0.00286712646484375	4514.46871760206
0.30975341796875	0.00287872314453125	4514.91122260094
0.314178466796875	0.00289215087890625	4515.35372759983
0.318603515625	0.00290252685546875	4515.79623259871
0.323028564453125	0.00291351318359375	4516.23873759759
0.32745361328125	0.0029241943359375	4516.68124259648
0.331878662109375	0.00293548583984375	4517.12374759536
0.3363037109375	0.00294677734375	4517.56625259424
0.340728759765625	0.002957763671875	4518.00875759312
0.34515380859375	0.00296783447265625	4518.45126259201
0.349578857421875	0.00297882080078125	4518.89376759089
0.35400390625	0.00298797607421875	4519.33627258977
0.358428955078125	0.002999267578125	4519.77877758866
0.36285400390625	0.0030096435546875	4520.22128258754
0.367279052734375	0.00302093505859375	4520.66378758642
0.3717041015625	0.00303131103515625	4521.1062925853
0.376129150390625	0.0030426025390625	4521.54879758419
0.38055419921875	0.0030535888671875	4521.99130258307
0.384979248046875	0.0030645751953125	4522.43380758195
0.389404296875	0.00307525634765625	4522.87631258083
0.393829345703125	0.00308441162109375	4523.31881757972
0.39825439453125	0.00309478759765625	4523.7613225786
0.402679443359375	0.00310577392578125	4524.20382757748
0.4071044921875	0.003116455078125	4524.64633257637
0.411529541015625	0.00312713623046875	4525.08883757525
0.41595458984375	0.003135986328125	4525.53134257413
0.420379638671875	0.00314483642578125	4525.97384757301
0.4248046875	0.00315399169921875	4526.4163525719
0.429229736328125	0.0031634521484375	4526.85885757078
0.43365478515625	0.003172607421875	4527.30136256966
0.438079833984375	0.00318084716796875	4527.74386756855
0.4425048828125	0.00318939208984375	4528.18637256743
0.446929931640625	0.0031976318359375	4528.62887756631
0.45135498046875	0.00320587158203125	4529.07138256519
0.455780029296875	0.00321380615234375	4529.51388756408
0.460205078125	0.00322052001953125	4529.95639256296
0.464630126953125	0.003228759765625	4530.39889756184
0.46905517578125	0.00323486328125	4530.84140256073
0.473480224609375	0.00324249267578125	4531.28390755961
0.4779052734375	0.00325042724609375	4531.72641255849
0.482330322265625	0.0032574462890625	4532.16891755737
0.48675537109375	0.0032647705078125	4532.61142255626
0.491180419921875	0.003271484375	4533.05392755514
0.49560546875	0.003277587890625	4533.49643255402
0.500030517578125	0.0032843017578125	4533.9389375529
0.50445556640625	0.00329010009765625	4534.38144255179
0.508880615234375	0.0032952880859375	4534.82394755067
0.5133056640625	0.00330078125	4535.26645254955
0.517730712890625	0.0033062744140625	4535.70895754844
0.52215576171875	0.00331207275390625	4536.15146254732
0.526580810546875	0.003316650390625	4536.5939675462
0.531005859375	0.003321533203125	4537.03647254508
0.535430908203125	0.00332672119140625	4537.47897754397
0.53985595703125	0.0033306884765625	4537.92148254285
0.544281005859375	0.00333587646484375	4538.36398754173
0.5487060546875	0.00333984375	4538.80649254062
0.553131103515625	0.0033441162109375	4539.2489975395
0.55755615234375	0.00334808349609375	4539.69150253838
0.561981201171875	0.00335235595703125	4540.13400753726
0.56640625	0.00335723876953125	4540.57651253615
0.570831298828125	0.00336090087890625	4541.01901753503
0.57525634765625	0.00336395263671875	4541.46152253391
0.579681396484375	0.003367919921875	4541.90402753279
0.5841064453125	0.0033709716796875	4542.34653253168
0.588531494140625	0.003372802734375	4542.78903753056
0.59295654296875	0.0033770751953125	4543.23154252944
0.597381591796875	0.00337982177734375	4543.67404752833
0.601806640625	0.0033831787109375	4544.11655252721
0.606231689453125	0.00338623046875	4544.55905752609
0.61065673828125	0.003388671875	4545.00156252497
0.615081787109375	0.00339202880859375	4545.44406752386
0.6195068359375	0.00339569091796875	4545.88657252274
0.623931884765625	0.0033990478515625	4546.32907752162
0.62835693359375	0.00340484619140625	4546.77158252051
0.632781982421875	0.00340667724609375	4547.21408751939
0.63720703125	0.0034088134765625	4547.65659251827
0.641632080078125	0.003411865234375	4548.09909751715
0.64605712890625	0.00341400146484375	4548.54160251604
0.650482177734375	0.003416748046875	4548.98410751492
0.6549072265625	0.00341949462890625	4549.4266125138
0.659332275390625	0.00342315673828125	4549.86911751269
0.66375732421875	0.00342559814453125	4550.31162251157
0.668182373046875	0.003427734375	4550.75412751045
0.672607421875	0.0034307861328125	4551.19663250933
0.677032470703125	0.003433837890625	4551.63913750822
0.68145751953125	0.00343719482421875	4552.0816425071
0.685882568359375	0.0034405517578125	4552.52414750598
0.6903076171875	0.00344329833984375	4552.96665250486
0.694732666015625	0.003447265625	4553.40915750375
0.69915771484375	0.00345062255859375	4553.85166250263
0.703582763671875	0.003453369140625	4554.29416750151
0.7080078125	0.00345794677734375	4554.7366725004
0.712432861328125	0.0034625244140625	4555.17917749928
0.71685791015625	0.0034674072265625	4555.62168249816
0.721282958984375	0.0034710693359375	4556.06418749704
0.7257080078125	0.0034759521484375	4556.50669249593
0.730133056640625	0.00348052978515625	4556.94919749481
0.73455810546875	0.003486328125	4557.39170249369
0.738983154296875	0.00349212646484375	4557.83420749257
0.743408203125	0.00349639892578125	4558.27671249146
0.747833251953125	0.0035015869140625	4558.71921749034
0.75225830078125	0.00350921630859375	4559.16172248922
0.756683349609375	0.0035162353515625	4559.60422748811
0.7611083984375	0.00352325439453125	4560.04673248699
0.765533447265625	0.00353118896484375	4560.48923748587
0.76995849609375	0.003538818359375	4560.93174248475
0.774383544921875	0.00354827880859375	4561.37424748364
0.77880859375	0.00355804443359375	4561.81675248252
0.783233642578125	0.0035675048828125	4562.2592574814
0.78765869140625	0.00357818603515625	4562.70176248029
0.792083740234375	0.00358856201171875	4563.14426747917
0.7965087890625	0.00360015869140625	4563.58677247805
0.800933837890625	0.0036126708984375	4564.02927747693
0.80535888671875	0.0036260986328125	4564.47178247582
0.809783935546875	0.00364013671875	4564.9142874747
0.814208984375	0.00365570068359375	4565.35679247358
0.818634033203125	0.00367156982421875	4565.79929747246
0.82305908203125	0.00368804931640625	4566.24180247135
0.827484130859375	0.0037066650390625	4566.68430747023
0.8319091796875	0.00372528076171875	4567.12681246911
0.836334228515625	0.0037451171875	4567.569317468
0.84075927734375	0.00376678466796875	4568.01182246688
0.845184326171875	0.00378997802734375	4568.45432746576
0.849609375	0.00381439208984375	4568.89683246464
0.854034423828125	0.00384002685546875	4569.33933746353
0.85845947265625	0.00386627197265625	4569.78184246241
0.862884521484375	0.003892822265625	4570.22434746129
0.8673095703125	0.00392364501953125	4570.66685246018
0.871734619140625	0.00395416259765625	4571.10935745906
0.87615966796875	0.0039874267578125	4571.55186245794
0.880584716796875	0.00402191162109375	4571.99436745682
0.885009765625	0.0040576171875	4572.43687245571
0.889434814453125	0.00409515380859375	4572.87937745459
0.89385986328125	0.00413482666015625	4573.32188245347
0.898284912109375	0.00417572021484375	4573.76438745235
0.9027099609375	0.0042181396484375	4574.20689245124
0.907135009765625	0.0042620849609375	4574.64939745012
0.91156005859375	0.0043072509765625	4575.091902449
0.915985107421875	0.0043560791015625	4575.53440744789
0.92041015625	0.00440521240234375	4575.97691244677
0.924835205078125	0.00445648193359375	4576.41941744565
0.92926025390625	0.00450927734375	4576.86192244453
0.933685302734375	0.0045623779296875	4577.30442744342
0.9381103515625	0.0046209716796875	4577.7469324423
0.942535400390625	0.00467864990234375	4578.18943744118
0.94696044921875	0.00473846435546875	4578.63194244007
0.951385498046875	0.00479827880859375	4579.07444743895
0.955810546875	0.004859619140625	4579.51695243783
0.960235595703125	0.00492156982421875	4579.95945743671
0.96466064453125	0.00498626708984375	4580.4019624356
0.969085693359375	0.005052490234375	4580.84446743448
0.9735107421875	0.00511810302734375	4581.28697243336
0.977935791015625	0.005184326171875	4581.72947743225
0.98236083984375	0.00525299072265625	4582.17198243113
0.986785888671875	0.0053216552734375	4582.61448743001
0.9912109375	0.00539093017578125	4583.05699242889
