Potential applied (V)	WE(1).Current (A)	Time (s)
0.004425048828125	-0.0874542236328125	5077.68670318007
0.00885009765625	-0.0839080810546875	5077.73095317996
0.013275146484375	-0.0808319091796875	5077.77520317985
0.0177001953125	-0.0782501220703125	5077.81945317974
0.022125244140625	-0.0758514404296875	5077.86370317963
0.02655029296875	-0.0735992431640625	5077.90795317952
0.030975341796875	-0.0713775634765625	5077.9522031794
0.035400390625	-0.069268798828125	5077.99645317929
0.039825439453125	-0.0672607421875	5078.04070317918
0.04425048828125	-0.065350341796875	5078.08495317907
0.048675537109375	-0.06351318359375	5078.12920317896
0.0531005859375	-0.0617523193359375	5078.17345317884
0.057525634765625	-0.0600250244140625	5078.21770317873
0.06195068359375	-0.0583831787109375	5078.26195317862
0.066375732421875	-0.0567779541015625	5078.30620317851
0.07080078125	-0.055230712890625	5078.3504531784
0.075225830078125	-0.0537322998046875	5078.39470317829
0.07965087890625	-0.05228271484375	5078.43895317817
0.084075927734375	-0.0508697509765625	5078.48320317806
0.0885009765625	-0.04949951171875	5078.52745317795
0.092926025390625	-0.0481658935546875	5078.57170317784
0.09735107421875	-0.046868896484375	5078.61595317773
0.101776123046875	-0.045611572265625	5078.66020317762
0.106201171875	-0.0443817138671875	5078.7044531775
0.110626220703125	-0.0431854248046875	5078.74870317739
0.11505126953125	-0.042022705078125	5078.79295317728
0.119476318359375	-0.040887451171875	5078.83720317717
0.1239013671875	-0.0397674560546875	5078.88145317706
0.128326416015625	-0.0386871337890625	5078.92570317694
0.13275146484375	-0.0376312255859375	5078.96995317683
0.137176513671875	-0.036602783203125	5079.01420317672
0.1416015625	-0.0355987548828125	5079.05845317661
0.146026611328125	-0.034613037109375	5079.1027031765
0.15045166015625	-0.033648681640625	5079.14695317639
0.154876708984375	-0.03271484375	5079.19120317627
0.1593017578125	-0.0317962646484375	5079.23545317616
0.163726806640625	-0.0308990478515625	5079.27970317605
0.16815185546875	-0.0300140380859375	5079.32395317594
0.172576904296875	-0.029150390625	5079.36820317583
0.177001953125	-0.028302001953125	5079.41245317572
0.181427001953125	-0.0274688720703125	5079.45670317561
0.18585205078125	-0.0266571044921875	5079.50095317549
0.190277099609375	-0.025860595703125	5079.54520317538
0.1947021484375	-0.0250823974609375	5079.58945317527
0.199127197265625	-0.0243194580078125	5079.63370317516
0.20355224609375	-0.023565673828125	5079.67795317505
0.207977294921875	-0.022833251953125	5079.72220317493
0.21240234375	-0.0221099853515625	5079.76645317482
0.216827392578125	-0.0214019775390625	5079.81070317471
0.22125244140625	-0.0207061767578125	5079.8549531746
0.225677490234375	-0.020025634765625	5079.89920317449
0.2301025390625	-0.019354248046875	5079.94345317438
0.234527587890625	-0.018695068359375	5079.98770317426
0.23895263671875	-0.0180450439453125	5080.03195317415
0.243377685546875	-0.0174072265625	5080.07620317404
0.247802734375	-0.01678466796875	5080.12045317393
0.252227783203125	-0.016168212890625	5080.16470317382
0.25665283203125	-0.01556396484375	5080.20895317371
0.261077880859375	-0.0149688720703125	5080.25320317359
0.2655029296875	-0.014385986328125	5080.29745317348
0.269927978515625	-0.0138153076171875	5080.34170317337
0.27435302734375	-0.013250732421875	5080.38595317326
0.278778076171875	-0.0126953125	5080.43020317315
0.283203125	-0.012152099609375	5080.47445317303
0.287628173828125	-0.0116119384765625	5080.51870317292
0.29205322265625	-0.0110809326171875	5080.56295317281
0.296478271484375	-0.010565185546875	5080.6072031727
0.3009033203125	-0.0100555419921875	5080.65145317259
0.305328369140625	-0.009552001953125	5080.69570317248
0.30975341796875	-0.0090576171875	5080.73995317236
0.314178466796875	-0.0085662841796875	5080.78420317225
0.318603515625	-0.0080841064453125	5080.82845317214
0.323028564453125	-0.0076141357421875	5080.87270317203
0.32745361328125	-0.007147216796875	5080.91695317192
0.331878662109375	-0.006689453125	5080.96120317181
0.3363037109375	-0.00623779296875	5081.00545317169
0.340728759765625	-0.005792236328125	5081.04970317158
0.34515380859375	-0.0053558349609375	5081.09395317147
0.349578857421875	-0.00492523193359375	5081.13820317136
0.35400390625	-0.0045025634765625	5081.18245317125
0.358428955078125	-0.00408447265625	5081.22670317114
0.36285400390625	-0.00367401123046875	5081.27095317102
0.367279052734375	-0.00326873779296875	5081.31520317091
0.3717041015625	-0.00287994384765625	5081.3594531708
0.376129150390625	-0.0024853515625	5081.40370317069
0.38055419921875	-0.00209625244140625	5081.44795317058
0.384979248046875	-0.00171356201171875	5081.49220317047
0.389404296875	-0.001336669921875	5081.53645317035
0.393829345703125	-0.00096588134765625	5081.58070317024
0.39825439453125	-0.0005999755859375	5081.62495317013
0.402679443359375	-0.00023956298828125	5081.66920317002
0.4071044921875	0.00011627197265625	5081.71345316991
0.411529541015625	0.000467193603515625	5081.75770316979
0.41595458984375	0.00081298828125	5081.80195316968
0.420379638671875	0.00115447998046875	5081.84620316957
0.4248046875	0.00149078369140625	5081.89045316946
0.429229736328125	0.0018218994140625	5081.93470316935
0.43365478515625	0.00214935302734375	5081.97895316924
0.438079833984375	0.00247161865234375	5082.02320316912
0.4425048828125	0.00278900146484375	5082.06745316901
0.446929931640625	0.0031011962890625	5082.1117031689
0.45135498046875	0.00340911865234375	5082.15595316879
0.455780029296875	0.00371185302734375	5082.20020316868
0.460205078125	0.0040106201171875	5082.24445316857
0.464630126953125	0.00430572509765625	5082.28870316845
0.46905517578125	0.0045953369140625	5082.33295316834
0.473480224609375	0.00488128662109375	5082.37720316823
0.4779052734375	0.00516265869140625	5082.42145316812
0.482330322265625	0.0054412841796875	5082.46570316801
0.48675537109375	0.00571533203125	5082.5099531679
0.491180419921875	0.0059857177734375	5082.55420316778
0.49560546875	0.00625213623046875	5082.59845316767
0.500030517578125	0.00650634765625	5082.64270316756
0.50445556640625	0.0067657470703125	5082.68695316745
0.508880615234375	0.00701904296875	5082.73120316734
0.5133056640625	0.0072723388671875	5082.77545316723
0.517730712890625	0.0075286865234375	5082.81970316711
0.52215576171875	0.00777587890625	5082.863953167
0.526580810546875	0.0080169677734375	5082.90820316689
0.531005859375	0.008258056640625	5082.95245316678
0.535430908203125	0.0084930419921875	5082.99670316667
0.53985595703125	0.0087249755859375	5083.04095316656
0.544281005859375	0.0089569091796875	5083.08520316644
0.5487060546875	0.0091827392578125	5083.12945316633
0.553131103515625	0.0094024658203125	5083.17370316622
0.55755615234375	0.0096221923828125	5083.21795316611
0.561981201171875	0.0098358154296875	5083.262203166
0.56640625	0.0100494384765625	5083.30645316588
0.570831298828125	0.0102630615234375	5083.35070316577
0.57525634765625	0.0104736328125	5083.39495316566
0.579681396484375	0.0106781005859375	5083.43920316555
0.5841064453125	0.010882568359375	5083.48345316544
0.588531494140625	0.0110748291015625	5083.52770316533
0.59295654296875	0.0112640380859375	5083.57195316521
0.597381591796875	0.0114654541015625	5083.6162031651
0.601806640625	0.011663818359375	5083.66045316499
0.606231689453125	0.011846923828125	5083.70470316488
0.61065673828125	0.0120269775390625	5083.74895316477
0.615081787109375	0.0122222900390625	5083.79320316466
0.6195068359375	0.01241455078125	5083.83745316454
0.623931884765625	0.012591552734375	5083.88170316443
0.62835693359375	0.012774658203125	5083.92595316432
0.632781982421875	0.0129486083984375	5083.97020316421
0.63720703125	0.0131195068359375	5084.0144531641
0.641632080078125	0.0132904052734375	5084.05870316399
0.64605712890625	0.0134613037109375	5084.10295316387
0.650482177734375	0.0136260986328125	5084.14720316376
0.6549072265625	0.013787841796875	5084.19145316365
0.659332275390625	0.01395263671875	5084.23570316354
0.66375732421875	0.014105224609375	5084.27995316343
0.668182373046875	0.0142669677734375	5084.32420316332
0.672607421875	0.014422607421875	5084.3684531632
0.677032470703125	0.0145721435546875	5084.41270316309
0.68145751953125	0.014727783203125	5084.45695316298
0.685882568359375	0.014874267578125	5084.50120316287
0.6903076171875	0.015020751953125	5084.54545316276
0.694732666015625	0.0151641845703125	5084.58970316264
0.69915771484375	0.0153106689453125	5084.63395316253
0.703582763671875	0.0154510498046875	5084.67820316242
0.7080078125	0.0155914306640625	5084.72245316231
0.712432861328125	0.01572265625	5084.7667031622
0.71685791015625	0.0158599853515625	5084.81095316209
0.721282958984375	0.015997314453125	5084.85520316197
0.7257080078125	0.0161285400390625	5084.89945316186
0.730133056640625	0.016259765625	5084.94370316175
0.73455810546875	0.016387939453125	5084.98795316164
0.738983154296875	0.01651611328125	5085.03220316153
0.743408203125	0.0166412353515625	5085.07645316142
0.747833251953125	0.016766357421875	5085.1207031613
0.75225830078125	0.0168914794921875	5085.16495316119
0.756683349609375	0.0170135498046875	5085.20920316108
0.7611083984375	0.017132568359375	5085.25345316097
0.765533447265625	0.01724853515625	5085.29770316086
0.76995849609375	0.017364501953125	5085.34195316075
0.774383544921875	0.0174774169921875	5085.38620316063
0.77880859375	0.0175933837890625	5085.43045316052
0.783233642578125	0.017706298828125	5085.47470316041
0.78765869140625	0.017816162109375	5085.5189531603
0.792083740234375	0.0179229736328125	5085.56320316019
0.7965087890625	0.0180328369140625	5085.60745316008
0.800933837890625	0.0181396484375	5085.65170315996
0.80535888671875	0.01824951171875	5085.69595315985
0.809783935546875	0.0183563232421875	5085.74020315974
0.814208984375	0.0184600830078125	5085.78445315963
0.818634033203125	0.018560791015625	5085.82870315952
0.82305908203125	0.01866455078125	5085.87295315941
0.827484130859375	0.01876220703125	5085.91720315929
0.8319091796875	0.0188629150390625	5085.96145315918
0.836334228515625	0.018963623046875	5086.00570315907
0.84075927734375	0.019061279296875	5086.04995315896
0.845184326171875	0.0191558837890625	5086.09420315885
0.849609375	0.0192535400390625	5086.13845315873
0.854034423828125	0.01934814453125	5086.18270315862
0.85845947265625	0.019439697265625	5086.22695315851
0.862884521484375	0.01953125	5086.2712031584
0.8673095703125	0.0196258544921875	5086.31545315829
0.871734619140625	0.01971435546875	5086.35970315818
0.87615966796875	0.019805908203125	5086.40395315806
0.880584716796875	0.0198974609375	5086.44820315795
0.885009765625	0.0199859619140625	5086.49245315784
0.889434814453125	0.0200714111328125	5086.53670315773
0.89385986328125	0.020159912109375	5086.58095315762
0.898284912109375	0.020245361328125	5086.62520315751
0.9027099609375	0.0203277587890625	5086.66945315739
0.907135009765625	0.0204132080078125	5086.71370315728
0.91156005859375	0.02049560546875	5086.75795315717
0.915985107421875	0.0205841064453125	5086.80220315706
0.92041015625	0.0206695556640625	5086.84645315695
0.924835205078125	0.020751953125	5086.89070315684
0.92926025390625	0.0208343505859375	5086.93495315672
0.933685302734375	0.0209197998046875	5086.97920315661
0.9381103515625	0.0210052490234375	5087.0234531565
0.942535400390625	0.021087646484375	5087.06770315639
0.94696044921875	0.0211700439453125	5087.11195315628
0.951385498046875	0.02125244140625	5087.15620315617
0.955810546875	0.021331787109375	5087.20045315605
0.960235595703125	0.0214141845703125	5087.24470315594
0.96466064453125	0.02149658203125	5087.28895315583
0.969085693359375	0.0215789794921875	5087.33320315572
0.9735107421875	0.0216583251953125	5087.37745315561
0.977935791015625	0.02174072265625	5087.42170315549
0.98236083984375	0.021820068359375	5087.46595315538
0.986785888671875	0.0218994140625	5087.51020315527
0.9912109375	0.021978759765625	5087.55445315516
0.995635986328125	0.0220672607421875	5087.59870315505
1.00006103515625	0.022149658203125	5087.64295315494
0.995635986328125	0.0213531494140625	5087.68720315482
0.9912109375	0.0205902099609375	5087.73145315471
0.986785888671875	0.019854736328125	5087.7757031546
0.98236083984375	0.0191375732421875	5087.81995315449
0.977935791015625	0.0184356689453125	5087.86420315438
0.9735107421875	0.017755126953125	5087.90845315427
0.969085693359375	0.0170928955078125	5087.95270315415
0.96466064453125	0.0164398193359375	5087.99695315404
0.960235595703125	0.0158050537109375	5088.04120315393
0.955810546875	0.015185546875	5088.08545315382
0.951385498046875	0.0145751953125	5088.12970315371
0.94696044921875	0.0139801025390625	5088.1739531536
0.942535400390625	0.013397216796875	5088.21820315348
0.9381103515625	0.0128204345703125	5088.26245315337
0.933685302734375	0.012255859375	5088.30670315326
0.92926025390625	0.0117034912109375	5088.35095315315
0.924835205078125	0.0111602783203125	5088.39520315304
0.92041015625	0.01063232421875	5088.43945315293
0.915985107421875	0.0101104736328125	5088.48370315281
0.91156005859375	0.0095977783203125	5088.5279531527
0.907135009765625	0.0090972900390625	5088.57220315259
0.9027099609375	0.008599853515625	5088.61645315248
0.898284912109375	0.0081146240234375	5088.66070315237
0.89385986328125	0.0076416015625	5088.70495315226
0.889434814453125	0.007171630859375	5088.74920315214
0.885009765625	0.006707763671875	5088.79345315203
0.880584716796875	0.0062530517578125	5088.83770315192
0.87615966796875	0.0058074951171875	5088.88195315181
0.871734619140625	0.0053680419921875	5088.9262031517
0.8673095703125	0.00493499755859375	5088.97045315158
0.862884521484375	0.00450897216796875	5089.01470315147
0.85845947265625	0.0040924072265625	5089.05895315136
0.854034423828125	0.003680419921875	5089.10320315125
0.849609375	0.00327545166015625	5089.14745315114
0.845184326171875	0.0028790283203125	5089.19170315103
0.84075927734375	0.0024847412109375	5089.23595315091
0.836334228515625	0.00209747314453125	5089.2802031508
0.8319091796875	0.00171600341796875	5089.32445315069
0.827484130859375	0.00134002685546875	5089.36870315058
0.82305908203125	0.00097015380859375	5089.41295315047
0.818634033203125	0.00060577392578125	5089.45720315036
0.814208984375	0.000246337890625	5089.50145315024
0.809783935546875	-0.00010723876953125	5089.54570315013
0.80535888671875	-0.00045574951171875	5089.58995315002
0.800933837890625	-0.0007989501953125	5089.63420314991
0.7965087890625	-0.00113677978515625	5089.6784531498
0.792083740234375	-0.0014697265625	5089.72270314969
0.78765869140625	-0.0017974853515625	5089.76695314957
0.783233642578125	-0.0021209716796875	5089.81120314946
0.77880859375	-0.00243896484375	5089.85545314935
0.774383544921875	-0.00275238037109375	5089.89970314924
0.76995849609375	-0.00306182861328125	5089.94395314913
0.765533447265625	-0.00336669921875	5089.98820314902
0.7611083984375	-0.0036663818359375	5090.0324531489
0.756683349609375	-0.00396270751953125	5090.07670314879
0.75225830078125	-0.0042547607421875	5090.12095314868
0.747833251953125	-0.0045428466796875	5090.16520314857
0.743408203125	-0.004825439453125	5090.20945314846
0.738983154296875	-0.0051031494140625	5090.25370314834
0.73455810546875	-0.005377197265625	5090.29795314823
0.730133056640625	-0.00564788818359375	5090.34220314812
0.7257080078125	-0.005914306640625	5090.38645314801
0.721282958984375	-0.0061773681640625	5090.4307031479
0.71685791015625	-0.006414794921875	5090.47495314779
0.712432861328125	-0.0066680908203125	5090.51920314767
0.7080078125	-0.00692138671875	5090.56345314756
0.703582763671875	-0.0071685791015625	5090.60770314745
0.69915771484375	-0.00740966796875	5090.65195314734
0.694732666015625	-0.0076507568359375	5090.69620314723
0.6903076171875	-0.0078826904296875	5090.74045314712
0.685882568359375	-0.00811767578125	5090.784703147
0.68145751953125	-0.008349609375	5090.82895314689
0.677032470703125	-0.008575439453125	5090.87320314678
0.672607421875	-0.0087982177734375	5090.91745314667
0.668182373046875	-0.00902099609375	5090.96170314656
0.66375732421875	-0.0092376708984375	5091.00595314645
0.659332275390625	-0.0094482421875	5091.05020314633
0.6549072265625	-0.009661865234375	5091.09445314622
0.650482177734375	-0.0098724365234375	5091.13870314611
0.64605712890625	-0.0100799560546875	5091.182953146
0.641632080078125	-0.010284423828125	5091.22720314589
0.63720703125	-0.01048583984375	5091.27145314578
0.632781982421875	-0.0106842041015625	5091.31570314566
0.62835693359375	-0.0108795166015625	5091.35995314555
0.623931884765625	-0.01107177734375	5091.40420314544
0.6195068359375	-0.0112579345703125	5091.44845314533
0.615081787109375	-0.011444091796875	5091.49270314522
0.61065673828125	-0.011627197265625	5091.53695314511
0.606231689453125	-0.0118133544921875	5091.58120314499
0.601806640625	-0.0119964599609375	5091.62545314488
0.597381591796875	-0.012176513671875	5091.66970314477
0.59295654296875	-0.012353515625	5091.71395314466
0.588531494140625	-0.0125244140625	5091.75820314455
0.5841064453125	-0.0126922607421875	5091.80245314443
0.579681396484375	-0.012860107421875	5091.84670314432
0.57525634765625	-0.0130340576171875	5091.89095314421
0.570831298828125	-0.0131988525390625	5091.9352031441
0.56640625	-0.013360595703125	5091.97945314399
0.561981201171875	-0.0135223388671875	5092.02370314388
0.55755615234375	-0.013677978515625	5092.06795314376
0.553131103515625	-0.0138336181640625	5092.11220314365
0.5487060546875	-0.0139923095703125	5092.15645314354
0.544281005859375	-0.014141845703125	5092.20070314343
0.53985595703125	-0.0142913818359375	5092.24495314332
0.535430908203125	-0.01444091796875	5092.28920314321
0.531005859375	-0.0145904541015625	5092.33345314309
0.526580810546875	-0.01473388671875	5092.37770314298
0.52215576171875	-0.014874267578125	5092.42195314287
0.517730712890625	-0.0150177001953125	5092.46620314276
0.5133056640625	-0.015155029296875	5092.51045314265
0.508880615234375	-0.0152923583984375	5092.55470314254
0.50445556640625	-0.0154296875	5092.59895314242
0.500030517578125	-0.01556396484375	5092.64320314231
0.49560546875	-0.0156982421875	5092.6874531422
0.491180419921875	-0.0158294677734375	5092.73170314209
0.48675537109375	-0.015960693359375	5092.77595314198
0.482330322265625	-0.0160919189453125	5092.82020314187
0.4779052734375	-0.0162200927734375	5092.86445314175
0.473480224609375	-0.016351318359375	5092.90870314164
0.46905517578125	-0.016473388671875	5092.95295314153
0.464630126953125	-0.016595458984375	5092.99720314142
0.460205078125	-0.0167205810546875	5093.04145314131
0.455780029296875	-0.016839599609375	5093.08570314119
0.45135498046875	-0.016961669921875	5093.12995314108
0.446929931640625	-0.017083740234375	5093.17420314097
0.4425048828125	-0.01719970703125	5093.21845314086
0.438079833984375	-0.017315673828125	5093.26270314075
0.43365478515625	-0.017431640625	5093.30695314064
0.429229736328125	-0.0175445556640625	5093.35120314052
0.4248046875	-0.01766357421875	5093.39545314041
0.420379638671875	-0.0177734375	5093.4397031403
0.41595458984375	-0.017889404296875	5093.48395314019
0.411529541015625	-0.017999267578125	5093.52820314008
0.4071044921875	-0.0181060791015625	5093.57245313997
0.402679443359375	-0.0182159423828125	5093.61670313985
0.39825439453125	-0.0183258056640625	5093.66095313974
0.393829345703125	-0.0184356689453125	5093.70520313963
0.389404296875	-0.018536376953125	5093.74945313952
0.384979248046875	-0.0186431884765625	5093.79370313941
0.38055419921875	-0.0187469482421875	5093.8379531393
0.376129150390625	-0.018853759765625	5093.88220313918
0.3717041015625	-0.01895751953125	5093.92645313907
0.367279052734375	-0.0190582275390625	5093.97070313896
0.36285400390625	-0.0191650390625	5094.01495313885
0.358428955078125	-0.0192626953125	5094.05920313874
