Potential applied (V)	WE(1).Current (A)	Time (s)
0.004425048828125	-0.0845489501953125	4584.993921424
0.00885009765625	-0.075506591796875	4585.21517342344
0.013275146484375	-0.0681304931640625	4585.43642542289
0.0177001953125	-0.0618560791015625	4585.65767742233
0.022125244140625	-0.0563873291015625	4585.87892942177
0.02655029296875	-0.0515869140625	4586.10018142121
0.030975341796875	-0.04737548828125	4586.32143342065
0.035400390625	-0.0436126708984375	4586.54268542009
0.039825439453125	-0.0402191162109375	4586.76393741953
0.04425048828125	-0.03717041015625	4586.98518941898
0.048675537109375	-0.0344024658203125	4587.20644141842
0.0531005859375	-0.0318817138671875	4587.42769341786
0.057525634765625	-0.0295623779296875	4587.6489454173
0.06195068359375	-0.0274322509765625	4587.87019741674
0.066375732421875	-0.0254608154296875	4588.09144941618
0.07080078125	-0.023638916015625	4588.31270141562
0.075225830078125	-0.0219512939453125	4588.53395341507
0.07965087890625	-0.0203857421875	4588.75520541451
0.084075927734375	-0.018927001953125	4588.97645741395
0.0885009765625	-0.017572021484375	4589.19770941339
0.092926025390625	-0.0163116455078125	4589.41896141283
0.09735107421875	-0.0151336669921875	4589.64021341227
0.101776123046875	-0.0140350341796875	4589.86146541171
0.106201171875	-0.013006591796875	4590.08271741116
0.110626220703125	-0.012042236328125	4590.3039694106
0.11505126953125	-0.011138916015625	4590.52522141004
0.119476318359375	-0.0102935791015625	4590.74647340948
0.1239013671875	-0.0094970703125	4590.96772540892
0.128326416015625	-0.00875244140625	4591.18897740836
0.13275146484375	-0.008050537109375	4591.4102294078
0.137176513671875	-0.0073883056640625	4591.63148140724
0.1416015625	-0.0067626953125	4591.85273340669
0.146026611328125	-0.0061767578125	4592.07398540613
0.15045166015625	-0.005621337890625	4592.29523740557
0.154876708984375	-0.0051025390625	4592.51648940501
0.1593017578125	-0.00461212158203125	4592.73774140445
0.163726806640625	-0.00414642333984375	4592.95899340389
0.16815185546875	-0.00370819091796875	4593.18024540333
0.172576904296875	-0.00329254150390625	4593.40149740278
0.177001953125	-0.0029010009765625	4593.62274940222
0.181427001953125	-0.0025390625	4593.84400140166
0.18585205078125	-0.00218597412109375	4594.0652534011
0.190277099609375	-0.0018524169921875	4594.28650540054
0.1947021484375	-0.00153533935546875	4594.50775739998
0.199127197265625	-0.00123504638671875	4594.72900939942
0.20355224609375	-0.00095001220703125	4594.95026139887
0.207977294921875	-0.00067901611328125	4595.17151339831
0.21240234375	-0.000422119140625	4595.39276539775
0.216827392578125	-0.00017706298828125	4595.61401739719
0.22125244140625	5.5572509765625E-05	4595.83526939663
0.225677490234375	0.000277130126953125	4596.05652139607
0.2301025390625	0.00048858642578125	4596.27777339551
0.234527587890625	0.000688232421875	4596.49902539496
0.23895263671875	0.00088104248046875	4596.7202773944
0.243377685546875	0.00106414794921875	4596.94152939384
0.247802734375	0.001236572265625	4597.16278139328
0.252227783203125	0.001402587890625	4597.38403339272
0.25665283203125	0.00156036376953125	4597.60528539216
0.261077880859375	0.00171142578125	4597.8265373916
0.2655029296875	0.0018548583984375	4598.04778939105
0.269927978515625	0.0019921875	4598.26904139049
0.27435302734375	0.00212249755859375	4598.49029338993
0.278778076171875	0.00224822998046875	4598.71154538937
0.283203125	0.0023699951171875	4598.93279738881
0.287628173828125	0.00248626708984375	4599.15404938825
0.29205322265625	0.00259674072265625	4599.37530138769
0.296478271484375	0.00270477294921875	4599.59655338713
0.3009033203125	0.0028082275390625	4599.81780538658
0.305328369140625	0.00290679931640625	4600.03905738602
0.30975341796875	0.00300079345703125	4600.26030938546
0.314178466796875	0.0030938720703125	4600.4815613849
0.318603515625	0.00318084716796875	4600.70281338434
0.323028564453125	0.00326385498046875	4600.92406538378
0.32745361328125	0.00334564208984375	4601.14531738323
0.331878662109375	0.00342315673828125	4601.36656938267
0.3363037109375	0.003499755859375	4601.58782138211
0.340728759765625	0.00357177734375	4601.80907338155
0.34515380859375	0.0036407470703125	4602.03032538099
0.349578857421875	0.00370849609375	4602.25157738043
0.35400390625	0.00377197265625	4602.47282937987
0.358428955078125	0.003836669921875	4602.69408137931
0.36285400390625	0.0038995361328125	4602.91533337876
0.367279052734375	0.00395965576171875	4603.1365853782
0.3717041015625	0.0040167236328125	4603.35783737764
0.376129150390625	0.00407440185546875	4603.57908937708
0.38055419921875	0.00413055419921875	4603.80034137652
0.384979248046875	0.00418304443359375	4604.02159337596
0.389404296875	0.00423370361328125	4604.2428453754
0.393829345703125	0.00428253173828125	4604.46409737485
0.39825439453125	0.00433135986328125	4604.68534937429
0.402679443359375	0.00437744140625	4604.90660137373
0.4071044921875	0.004423828125	4605.12785337317
0.411529541015625	0.0044677734375	4605.34910537261
0.41595458984375	0.00451202392578125	4605.57035737205
0.420379638671875	0.0045538330078125	4605.79160937149
0.4248046875	0.00459503173828125	4606.01286137094
0.429229736328125	0.00463592529296875	4606.23411337038
0.43365478515625	0.00467437744140625	4606.45536536982
0.438079833984375	0.00471221923828125	4606.67661736926
0.4425048828125	0.00474853515625	4606.8978693687
0.446929931640625	0.0047845458984375	4607.11912136814
0.45135498046875	0.004820556640625	4607.34037336758
0.455780029296875	0.004854736328125	4607.56162536703
0.460205078125	0.00488861083984375	4607.78287736647
0.464630126953125	0.0049212646484375	4608.00412936591
0.46905517578125	0.00495330810546875	4608.22538136535
0.473480224609375	0.00498504638671875	4608.44663336479
0.4779052734375	0.0050152587890625	4608.66788536423
0.482330322265625	0.0050457763671875	4608.88913736367
0.48675537109375	0.0050750732421875	4609.11038936312
0.491180419921875	0.0051025390625	4609.33164136256
0.49560546875	0.005130615234375	4609.552893362
0.500030517578125	0.00515716552734375	4609.77414536144
0.50445556640625	0.00518524169921875	4609.99539736088
0.508880615234375	0.00520965576171875	4610.21664936032
0.5133056640625	0.00523651123046875	4610.43790135976
0.517730712890625	0.0052618408203125	4610.6591533592
0.52215576171875	0.00528472900390625	4610.88040535865
0.526580810546875	0.00531005859375	4611.10165735809
0.531005859375	0.00533233642578125	4611.32290935753
0.535430908203125	0.0053558349609375	4611.54416135697
0.53985595703125	0.0053778076171875	4611.76541335641
0.544281005859375	0.00540008544921875	4611.98666535585
0.5487060546875	0.005419921875	4612.20791735529
0.553131103515625	0.0054388427734375	4612.42916935474
0.55755615234375	0.005460205078125	4612.65042135418
0.561981201171875	0.0054803466796875	4612.87167335362
0.56640625	0.005498046875	4613.09292535306
0.570831298828125	0.0055181884765625	4613.3141773525
0.57525634765625	0.0055352783203125	4613.53542935194
0.579681396484375	0.00555389404296875	4613.75668135138
0.5841064453125	0.00557098388671875	4613.97793335083
0.588531494140625	0.00558563232421875	4614.19918535027
0.59295654296875	0.00560302734375	4614.42043734971
0.597381591796875	0.00561737060546875	4614.64168934915
0.601806640625	0.00563323974609375	4614.86294134859
0.606231689453125	0.0056494140625	4615.08419334803
0.61065673828125	0.0056640625	4615.30544534747
0.615081787109375	0.00567901611328125	4615.52669734692
0.6195068359375	0.005693359375	4615.74794934636
0.623931884765625	0.00570770263671875	4615.9692013458
0.62835693359375	0.00572540283203125	4616.19045334524
0.632781982421875	0.00573883056640625	4616.41170534468
0.63720703125	0.0057513427734375	4616.63295734412
0.641632080078125	0.00576385498046875	4616.85420934356
0.64605712890625	0.00577606201171875	4617.07546134301
0.650482177734375	0.00578857421875	4617.29671334245
0.6549072265625	0.00580078125	4617.51796534189
0.659332275390625	0.00581268310546875	4617.73921734133
0.66375732421875	0.0058233642578125	4617.96046934077
0.668182373046875	0.00583465576171875	4618.18172134021
0.672607421875	0.0058453369140625	4618.40297333965
0.677032470703125	0.00585662841796875	4618.62422533909
0.68145751953125	0.00586761474609375	4618.84547733854
0.685882568359375	0.00587982177734375	4619.06672933798
0.6903076171875	0.005889892578125	4619.28798133742
0.694732666015625	0.005899658203125	4619.50923333686
0.69915771484375	0.00591094970703125	4619.7304853363
0.703582763671875	0.00592132568359375	4619.95173733574
0.7080078125	0.0059307861328125	4620.17298933518
0.712432861328125	0.0059417724609375	4620.39424133463
0.71685791015625	0.00595306396484375	4620.61549333407
0.721282958984375	0.00596435546875	4620.83674533351
0.7257080078125	0.00597442626953125	4621.05799733295
0.730133056640625	0.0059857177734375	4621.27924933239
0.73455810546875	0.00599639892578125	4621.50050133183
0.738983154296875	0.00600616455078125	4621.72175333127
0.743408203125	0.006005859375	4621.94300533072
0.747833251953125	0.00601806640625	4622.16425733016
0.75225830078125	0.006024169921875	4622.3855093296
0.756683349609375	0.006036376953125	4622.60676132904
0.7611083984375	0.0060455322265625	4622.82801332848
0.765533447265625	0.0060577392578125	4623.04926532792
0.76995849609375	0.0060699462890625	4623.27051732736
0.774383544921875	0.0060821533203125	4623.49176932681
0.77880859375	0.0060943603515625	4623.71302132625
0.783233642578125	0.0061065673828125	4623.93427332569
0.78765869140625	0.0061187744140625	4624.15552532513
0.792083740234375	0.006134033203125	4624.37677732457
0.7965087890625	0.006146240234375	4624.59802932401
0.800933837890625	0.0061614990234375	4624.81928132345
0.80535888671875	0.0061767578125	4625.0405333229
0.809783935546875	0.006195068359375	4625.26178532234
0.814208984375	0.0062103271484375	4625.48303732178
0.818634033203125	0.0062286376953125	4625.70428932122
0.82305908203125	0.0062469482421875	4625.92554132066
0.827484130859375	0.0062652587890625	4626.1467933201
0.8319091796875	0.0062835693359375	4626.36804531954
0.836334228515625	0.006304931640625	4626.58929731898
0.84075927734375	0.0063262939453125	4626.81054931843
0.845184326171875	0.0063507080078125	4627.03180131787
0.849609375	0.0063720703125	4627.25305331731
0.854034423828125	0.006396484375	4627.47430531675
0.85845947265625	0.0064239501953125	4627.69555731619
0.862884521484375	0.006451416015625	4627.91680931563
0.8673095703125	0.00648193359375	4628.13806131507
0.871734619140625	0.0065093994140625	4628.35931331452
0.87615966796875	0.00654296875	4628.58056531396
0.880584716796875	0.0065765380859375	4628.8018173134
0.885009765625	0.006610107421875	4629.02306931284
0.889434814453125	0.0066497802734375	4629.24432131228
0.89385986328125	0.0066864013671875	4629.46557331172
0.898284912109375	0.00672607421875	4629.68682531116
0.9027099609375	0.006768798828125	4629.90807731061
0.907135009765625	0.0068145751953125	4630.12932931005
0.91156005859375	0.0068572998046875	4630.35058130949
0.915985107421875	0.0069061279296875	4630.57183330893
0.92041015625	0.0069549560546875	4630.79308530837
0.924835205078125	0.0070098876953125	4631.01433730781
0.92926025390625	0.007061767578125	4631.23558930725
0.933685302734375	0.0071197509765625	4631.4568413067
0.9381103515625	0.0071807861328125	4631.67809330614
0.942535400390625	0.0072418212890625	4631.89934530558
0.94696044921875	0.0073028564453125	4632.12059730502
0.951385498046875	0.0073699951171875	4632.34184930446
0.955810546875	0.0074371337890625	4632.5631013039
0.960235595703125	0.0075042724609375	4632.78435330334
0.96466064453125	0.0075775146484375	4633.00560530279
0.969085693359375	0.0076507568359375	4633.22685730223
0.9735107421875	0.00772705078125	4633.44810930167
0.977935791015625	0.0078033447265625	4633.66936130111
0.98236083984375	0.0078765869140625	4633.89061330055
0.986785888671875	0.0079620361328125	4634.11186529999
0.9912109375	0.00804443359375	4634.33311729943
0.995635986328125	0.0081298828125	4634.55436929887
1.00006103515625	0.0082183837890625	4634.77562129832
0.995635986328125	0.0075103759765625	4634.99687329776
0.9912109375	0.006866455078125	4635.2181252972
0.986785888671875	0.00626220703125	4635.43937729664
0.98236083984375	0.0057037353515625	4635.66062929608
0.977935791015625	0.0051788330078125	4635.88188129552
0.9735107421875	0.0046856689453125	4636.10313329497
0.969085693359375	0.0042169189453125	4636.32438529441
0.96466064453125	0.00377105712890625	4636.54563729385
0.960235595703125	0.00334808349609375	4636.76688929329
0.955810546875	0.00294403076171875	4636.98814129273
0.951385498046875	0.0025604248046875	4637.20939329217
0.94696044921875	0.0021923828125	4637.43064529161
0.942535400390625	0.00183990478515625	4637.65189729105
0.9381103515625	0.0015020751953125	4637.8731492905
0.933685302734375	0.00117584228515625	4638.09440128994
0.92926025390625	0.0008660888671875	4638.31565328938
0.924835205078125	0.0005682373046875	4638.53690528882
0.92041015625	0.000282989501953125	4638.75815728826
0.915985107421875	8.6334228515625E-06	4638.9794092877
0.91156005859375	-0.000254730224609375	4639.20066128714
0.907135009765625	-0.0005078125	4639.42191328659
0.9027099609375	-0.00075103759765625	4639.64316528603
0.898284912109375	-0.00098419189453125	4639.86441728547
0.89385986328125	-0.00120880126953125	4640.08566928491
0.889434814453125	-0.0014239501953125	4640.30692128435
0.885009765625	-0.00163116455078125	4640.52817328379
0.880584716796875	-0.001829833984375	4640.74942528323
0.87615966796875	-0.00202117919921875	4640.97067728268
0.871734619140625	-0.00220458984375	4641.19192928212
0.8673095703125	-0.0023797607421875	4641.41318128156
0.862884521484375	-0.00254913330078125	4641.634433281
0.85845947265625	-0.00271026611328125	4641.85568528044
0.854034423828125	-0.002864990234375	4642.07693727988
0.849609375	-0.00301422119140625	4642.29818927932
0.845184326171875	-0.0031573486328125	4642.51944127877
0.84075927734375	-0.00329376220703125	4642.74069327821
0.836334228515625	-0.0034246826171875	4642.96194527765
0.8319091796875	-0.00355010986328125	4643.18319727709
0.827484130859375	-0.00367034912109375	4643.40444927653
0.82305908203125	-0.0037841796875	4643.62570127597
0.818634033203125	-0.00389373779296875	4643.84695327541
0.814208984375	-0.00399810791015625	4644.06820527486
0.809783935546875	-0.004097900390625	4644.2894572743
0.80535888671875	-0.004193115234375	4644.51070927374
0.800933837890625	-0.00428314208984375	4644.73196127318
0.7965087890625	-0.00436920166015625	4644.95321327262
0.792083740234375	-0.0044525146484375	4645.17446527206
0.78765869140625	-0.004530029296875	4645.3957172715
0.783233642578125	-0.0046044921875	4645.61696927094
0.77880859375	-0.00467437744140625	4645.83822127039
0.774383544921875	-0.00474273681640625	4646.05947326983
0.76995849609375	-0.00480560302734375	4646.28072526927
0.765533447265625	-0.00486602783203125	4646.50197726871
0.7611083984375	-0.00492431640625	4646.72322926815
0.756683349609375	-0.00497711181640625	4646.94448126759
0.75225830078125	-0.0050286865234375	4647.16573326703
0.747833251953125	-0.005076904296875	4647.38698526648
0.743408203125	-0.0051226806640625	4647.60823726592
0.738983154296875	-0.00516357421875	4647.82948926536
0.73455810546875	-0.00520355224609375	4648.0507412648
0.730133056640625	-0.00524322509765625	4648.27199326424
0.7257080078125	-0.00528045654296875	4648.49324526368
0.721282958984375	-0.005313720703125	4648.71449726312
0.71685791015625	-0.0053466796875	4648.93574926257
0.712432861328125	-0.0053790283203125	4649.15700126201
0.7080078125	-0.00540802001953125	4649.37825326145
0.703582763671875	-0.00543548583984375	4649.59950526089
0.69915771484375	-0.005458984375	4649.82075726033
0.694732666015625	-0.00548248291015625	4650.04200925977
0.6903076171875	-0.00550323486328125	4650.26326125921
0.685882568359375	-0.0055255126953125	4650.48451325866
0.68145751953125	-0.00554656982421875	4650.7057652581
0.677032470703125	-0.00556671142578125	4650.92701725754
0.672607421875	-0.005584716796875	4651.14826925698
0.668182373046875	-0.0056005859375	4651.36952125642
0.66375732421875	-0.00561737060546875	4651.59077325586
0.659332275390625	-0.00563201904296875	4651.8120252553
0.6549072265625	-0.00564544677734375	4652.03327725475
0.650482177734375	-0.00565887451171875	4652.25452925419
0.64605712890625	-0.00567138671875	4652.47578125363
0.641632080078125	-0.00568450927734375	4652.69703325307
0.63720703125	-0.00569610595703125	4652.91828525251
0.632781982421875	-0.0057086181640625	4653.13953725195
0.62835693359375	-0.0057196044921875	4653.36078925139
0.623931884765625	-0.0057330322265625	4653.58204125083
0.6195068359375	-0.00574371337890625	4653.80329325028
0.615081787109375	-0.00575347900390625	4654.02454524972
0.61065673828125	-0.00576263427734375	4654.24579724916
0.606231689453125	-0.00577178955078125	4654.4670492486
0.601806640625	-0.00578094482421875	4654.68830124804
0.597381591796875	-0.00579132080078125	4654.90955324748
0.59295654296875	-0.00579986572265625	4655.13080524692
0.588531494140625	-0.00580902099609375	4655.35205724637
0.5841064453125	-0.00581634521484375	4655.57330924581
0.579681396484375	-0.00582489013671875	4655.79456124525
0.57525634765625	-0.00583526611328125	4656.01581324469
0.570831298828125	-0.00584381103515625	4656.23706524413
0.56640625	-0.0058538818359375	4656.45831724357
0.561981201171875	-0.00586334228515625	4656.67956924301
0.55755615234375	-0.005872802734375	4656.90082124246
0.553131103515625	-0.00588226318359375	4657.1220732419
0.5487060546875	-0.0058929443359375	4657.34332524134
0.544281005859375	-0.00590087890625	4657.56457724078
0.53985595703125	-0.0059100341796875	4657.78582924022
0.535430908203125	-0.00592010498046875	4658.00708123966
0.531005859375	-0.0059307861328125	4658.2283332391
0.526580810546875	-0.00594146728515625	4658.44958523855
0.52215576171875	-0.00595245361328125	4658.67083723799
0.517730712890625	-0.00596405029296875	4658.89208923743
0.5133056640625	-0.0059747314453125	4659.11334123687
0.508880615234375	-0.0059881591796875	4659.33459323631
0.50445556640625	-0.00599853515625	4659.55584523575
0.500030517578125	-0.00601104736328125	4659.77709723519
0.49560546875	-0.0060028076171875	4659.99834923464
0.491180419921875	-0.0060150146484375	4660.21960123408
0.48675537109375	-0.0060302734375	4660.44085323352
0.482330322265625	-0.00604248046875	4660.66210523296
0.4779052734375	-0.0060577392578125	4660.8833572324
0.473480224609375	-0.0060699462890625	4661.10460923184
0.46905517578125	-0.006085205078125	4661.32586123128
0.464630126953125	-0.006097412109375	4661.54711323072
0.460205078125	-0.0061126708984375	4661.76836523017
0.455780029296875	-0.0061279296875	4661.98961722961
0.45135498046875	-0.0061431884765625	4662.21086922905
0.446929931640625	-0.0061614990234375	4662.43212122849
0.4425048828125	-0.0061767578125	4662.65337322793
0.438079833984375	-0.0061920166015625	4662.87462522737
0.43365478515625	-0.0062103271484375	4663.09587722681
0.429229736328125	-0.0062255859375	4663.31712922626
0.4248046875	-0.0062408447265625	4663.5383812257
0.420379638671875	-0.006256103515625	4663.75963322514
0.41595458984375	-0.0062713623046875	4663.98088522458
0.411529541015625	-0.0062896728515625	4664.20213722402
0.4071044921875	-0.006304931640625	4664.42338922346
0.402679443359375	-0.0063201904296875	4664.6446412229
0.39825439453125	-0.0063385009765625	4664.86589322235
0.393829345703125	-0.006353759765625	4665.08714522179
0.389404296875	-0.0063690185546875	4665.30839722123
0.384979248046875	-0.00638427734375	4665.52964922067
0.38055419921875	-0.0063995361328125	4665.75090122011
0.376129150390625	-0.006414794921875	4665.97215321955
0.3717041015625	-0.0064300537109375	4666.19340521899
0.367279052734375	-0.0064422607421875	4666.41465721844
0.36285400390625	-0.00645751953125	4666.63590921788
0.358428955078125	-0.0064697265625	4666.85716121732
0.35400390625	-0.0064849853515625	4667.07841321676
0.349578857421875	-0.006494140625	4667.2996652162
0.34515380859375	-0.00650634765625	4667.52091721564
0.340728759765625	-0.0065185546875	4667.74216921508
0.3363037109375	-0.00653076171875	4667.96342121453
0.331878662109375	-0.00654296875	4668.18467321397
0.32745361328125	-0.0065521240234375	4668.40592521341
0.323028564453125	-0.0065643310546875	4668.62717721285
0.318603515625	-0.0065704345703125	4668.84842921229
0.314178466796875	-0.0065826416015625	4669.06968121173
0.30975341796875	-0.006591796875	4669.29093321117
0.305328369140625	-0.0066009521484375	4669.51218521061
0.3009033203125	-0.006610107421875	4669.73343721006
0.296478271484375	-0.0066162109375	4669.9546892095
0.29205322265625	-0.006622314453125	4670.17594120894
0.287628173828125	-0.0066314697265625	4670.39719320838
0.283203125	-0.0066375732421875	4670.61844520782
0.278778076171875	-0.0066436767578125	4670.83969720726
0.27435302734375	-0.0066497802734375	4671.06094920671
0.269927978515625	-0.0066558837890625	4671.28220120615
0.2655029296875	-0.006658935546875	4671.50345320559
0.261077880859375	-0.0066680908203125	4671.72470520503
0.25665283203125	-0.006671142578125	4671.94595720447
0.252227783203125	-0.00667724609375	4672.16720920391
0.247802734375	-0.006683349609375	4672.38846120335
0.243377685546875	-0.0066864013671875	4672.60971320279
0.23895263671875	-0.0066925048828125	4672.83096520224
0.234527587890625	-0.006695556640625	4673.05221720168
0.2301025390625	-0.0066986083984375	4673.27346920112
0.225677490234375	-0.0067047119140625	4673.49472120056
0.22125244140625	-0.006707763671875	4673.7159732
0.216827392578125	-0.0067169189453125	4673.93722519944
0.21240234375	-0.006719970703125	4674.15847719888
0.207977294921875	-0.0067230224609375	4674.37972919833
0.20355224609375	-0.0067291259765625	4674.60098119777
0.199127197265625	-0.0067352294921875	4674.82223319721
0.1947021484375	-0.0067413330078125	4675.04348519665
0.190277099609375	-0.006744384765625	4675.26473719609
0.18585205078125	-0.00675048828125	4675.48598919553
0.181427001953125	-0.006756591796875	4675.70724119497
0.177001953125	-0.0067596435546875	4675.92849319442
0.172576904296875	-0.0067657470703125	4676.14974519386
0.16815185546875	-0.0067718505859375	4676.3709971933
0.163726806640625	-0.0067779541015625	4676.59224919274
0.1593017578125	-0.0067840576171875	4676.81350119218
0.154876708984375	-0.0067901611328125	4677.03475319162
0.15045166015625	-0.0067962646484375	4677.25600519106
0.146026611328125	-0.006805419921875	4677.47725719051
0.1416015625	-0.0068115234375	4677.69850918995
0.137176513671875	-0.006817626953125	4677.91976118939
0.13275146484375	-0.0068267822265625	4678.14101318883
0.128326416015625	-0.0068328857421875	4678.36226518827
0.1239013671875	-0.006842041015625	4678.58351718771
0.119476318359375	-0.00684814453125	4678.80476918715
0.11505126953125	-0.0068572998046875	4679.0260211866
0.110626220703125	-0.006866455078125	4679.24727318604
0.106201171875	-0.0068756103515625	4679.46852518548
0.101776123046875	-0.006884765625	4679.68977718492
0.09735107421875	-0.00689697265625	4679.91102918436
0.092926025390625	-0.0069091796875	4680.1322811838
0.0885009765625	-0.00692138671875	4680.35353318324
0.084075927734375	-0.00693359375	4680.57478518268
0.07965087890625	-0.00694580078125	4680.79603718213
0.075225830078125	-0.0069580078125	4681.01728918157
0.07080078125	-0.0069732666015625	4681.23854118101
0.066375732421875	-0.0069854736328125	4681.45979318045
0.06195068359375	-0.007000732421875	4681.68104517989
0.057525634765625	-0.0070159912109375	4681.90229717933
0.0531005859375	-0.00703125	4682.12354917877
0.048675537109375	-0.007049560546875	4682.34480117822
0.04425048828125	-0.0070648193359375	4682.56605317766
0.039825439453125	-0.0070831298828125	4682.7873051771
0.035400390625	-0.0071014404296875	4683.00855717654
0.030975341796875	-0.0071197509765625	4683.22980917598
0.02655029296875	-0.0071380615234375	4683.45106117542
0.022125244140625	-0.007159423828125	4683.67231317486
0.0177001953125	-0.0071807861328125	4683.89356517431
0.013275146484375	-0.0072021484375	4684.11481717375
0.00885009765625	-0.007220458984375	4684.33606917319
0.004425048828125	-0.0072479248046875	4684.55732117263
0	-0.007269287109375	4684.77857317207
0.004425048828125	-0.0065155029296875	4684.99982517151
0.00885009765625	-0.0058349609375	4685.22107717095
0.013275146484375	-0.005206298828125	4685.4423291704
0.0177001953125	-0.00462860107421875	4685.66358116984
0.022125244140625	-0.00409149169921875	4685.88483316928
0.02655029296875	-0.00359130859375	4686.10608516872
0.030975341796875	-0.00312408447265625	4686.32733716816
0.035400390625	-0.0026861572265625	4686.5485891676
0.039825439453125	-0.00228607177734375	4686.76984116704
0.04425048828125	-0.0019000244140625	4686.99109316649
0.048675537109375	-0.0015374755859375	4687.21234516593
0.0531005859375	-0.0011956787109375	4687.43359716537
0.057525634765625	-0.0008734130859375	4687.65484916481
0.06195068359375	-0.00056915283203125	4687.87610116425
0.066375732421875	-0.0002818603515625	4688.09735316369
0.07080078125	-1.046142578125E-05	4688.31860516313
0.075225830078125	0.00024700927734375	4688.53985716257
0.07965087890625	0.000488861083984375	4688.76110916202
0.084075927734375	0.00071990966796875	4688.98236116146
0.0885009765625	0.00094024658203125	4689.2036131609
0.092926025390625	0.0011492919921875	4689.42486516034
0.09735107421875	0.0013446044921875	4689.64611715978
0.101776123046875	0.001529541015625	4689.86736915922
0.106201171875	0.001705322265625	4690.08862115866
0.110626220703125	0.00187255859375	4690.30987315811
0.11505126953125	0.00203033447265625	4690.53112515755
0.119476318359375	0.0021795654296875	4690.75237715699
0.1239013671875	0.0023223876953125	4690.97362915643
0.128326416015625	0.002457275390625	4691.19488115587
0.13275146484375	0.00258697509765625	4691.41613315531
0.137176513671875	0.00271087646484375	4691.63738515475
0.1416015625	0.00283050537109375	4691.8586371542
0.146026611328125	0.00294342041015625	4692.07988915364
0.15045166015625	0.00305084228515625	4692.30114115308
0.154876708984375	0.00315521240234375	4692.52239315252
0.1593017578125	0.00325286865234375	4692.74364515196
0.163726806640625	0.00334747314453125	4692.9648971514
0.16815185546875	0.00343719482421875	4693.18614915084
0.172576904296875	0.0035235595703125	4693.40740115029
0.177001953125	0.00360565185546875	4693.62865314973
0.181427001953125	0.00368408203125	4693.84990514917
0.18585205078125	0.003759765625	4694.07115714861
0.190277099609375	0.0038311767578125	4694.29240914805
0.1947021484375	0.00390045166015625	4694.51366114749
0.199127197265625	0.00396759033203125	4694.73491314693
0.20355224609375	0.00403106689453125	4694.95616514638
0.207977294921875	0.004091796875	4695.17741714582
0.21240234375	0.004151611328125	4695.39866914526
0.216827392578125	0.00420928955078125	4695.6199211447
0.22125244140625	0.00426422119140625	4695.84117314414
0.225677490234375	0.0043170166015625	4696.06242514358
0.2301025390625	0.00436798095703125	4696.28367714302
0.234527587890625	0.00441497802734375	4696.50492914246
0.23895263671875	0.0044622802734375	4696.72618114191
0.243377685546875	0.0045086669921875	4696.94743314135
0.247802734375	0.0045513916015625	4697.16868514079
0.252227783203125	0.0045941162109375	4697.38993714023
0.25665283203125	0.0046356201171875	4697.61118913967
0.261077880859375	0.0046746826171875	4697.83244113911
0.2655029296875	0.00471343994140625	4698.05369313855
0.269927978515625	0.00475128173828125	4698.274945138
0.27435302734375	0.00478759765625	4698.49619713744
0.278778076171875	0.0048236083984375	4698.71744913688
0.283203125	0.0048577880859375	4698.93870113632
0.287628173828125	0.004892578125	4699.15995313576
0.29205322265625	0.00492584228515625	4699.3812051352
0.296478271484375	0.00495941162109375	4699.60245713464
0.3009033203125	0.00499053955078125	4699.82370913409
0.305328369140625	0.00502166748046875	4700.04496113353
0.30975341796875	0.0050506591796875	4700.26621313297
0.314178466796875	0.00508453369140625	4700.48746513241
0.318603515625	0.00511322021484375	4700.70871713185
0.323028564453125	0.00514190673828125	4700.92996913129
0.32745361328125	0.00516937255859375	4701.15122113073
0.331878662109375	0.005196533203125	4701.37247313018
0.3363037109375	0.0052239990234375	4701.59372512962
0.340728759765625	0.00524993896484375	4701.81497712906
0.34515380859375	0.00527587890625	4702.0362291285
0.349578857421875	0.00530181884765625	4702.25748112794
0.35400390625	0.00532470703125	4702.47873312738
0.358428955078125	0.00535003662109375	4702.69998512682
0.36285400390625	0.00537445068359375	4702.92123712627
0.367279052734375	0.00539947509765625	4703.14248912571
0.3717041015625	0.00542388916015625	4703.36374112515
0.376129150390625	0.00544708251953125	4703.58499312459
0.38055419921875	0.00547119140625	4703.80624512403
0.384979248046875	0.0054949951171875	4704.02749712347
0.389404296875	0.00551788330078125	4704.24874912291
0.393829345703125	0.00553955078125	4704.47000112235
0.39825439453125	0.00556365966796875	4704.6912531218
0.402679443359375	0.00558624267578125	4704.91250512124
0.4071044921875	0.0056085205078125	4705.13375712068
0.411529541015625	0.00563018798828125	4705.35500912012
0.41595458984375	0.0056524658203125	4705.57626111956
0.420379638671875	0.0056744384765625	4705.797513119
0.4248046875	0.0056964111328125	4706.01876511845
0.429229736328125	0.00571685791015625	4706.24001711789
0.43365478515625	0.00573822021484375	4706.46126911733
0.438079833984375	0.00575775146484375	4706.68252111677
0.4425048828125	0.00577789306640625	4706.90377311621
0.446929931640625	0.00579864501953125	4707.12502511565
0.45135498046875	0.00581756591796875	4707.34627711509
0.455780029296875	0.00583709716796875	4707.56752911453
0.460205078125	0.00585601806640625	4707.78878111398
0.464630126953125	0.0058740234375	4708.01003311342
0.46905517578125	0.00589202880859375	4708.23128511286
0.473480224609375	0.00590972900390625	4708.4525371123
0.4779052734375	0.005927734375	4708.67378911174
0.482330322265625	0.005943603515625	4708.89504111118
0.48675537109375	0.00595977783203125	4709.11629311062
0.491180419921875	0.0059771728515625	4709.33754511007
0.49560546875	0.0059918212890625	4709.55879710951
0.500030517578125	0.00600860595703125	4709.78004910895
0.50445556640625	0.0060150146484375	4710.00130110839
0.508880615234375	0.0060272216796875	4710.22255310783
0.5133056640625	0.00604248046875	4710.44380510727
0.517730712890625	0.0060546875	4710.66505710671
0.52215576171875	0.0060699462890625	4710.88630910616
0.526580810546875	0.0060821533203125	4711.1075611056
0.531005859375	0.0060943603515625	4711.32881310504
0.535430908203125	0.0061065673828125	4711.55006510448
0.53985595703125	0.0061187744140625	4711.77131710392
0.544281005859375	0.006134033203125	4711.99256910336
0.5487060546875	0.0061431884765625	4712.2138211028
0.553131103515625	0.0061553955078125	4712.43507310225
0.55755615234375	0.0061676025390625	4712.65632510169
0.561981201171875	0.0061767578125	4712.87757710113
0.56640625	0.0061920166015625	4713.09882910057
0.570831298828125	0.006201171875	4713.32008110001
0.57525634765625	0.0062103271484375	4713.54133309945
0.579681396484375	0.0062225341796875	4713.76258509889
0.5841064453125	0.006231689453125	4713.98383709834
0.588531494140625	0.0062408447265625	4714.20508909778
0.59295654296875	0.0062469482421875	4714.42634109722
0.597381591796875	0.006256103515625	4714.64759309666
0.601806640625	0.0062652587890625	4714.8688450961
0.606231689453125	0.0062744140625	4715.09009709554
0.61065673828125	0.0062835693359375	4715.31134909498
0.615081787109375	0.006292724609375	4715.53260109442
0.6195068359375	0.006298828125	4715.75385309387
0.623931884765625	0.0063079833984375	4715.97510509331
0.62835693359375	0.0063201904296875	4716.19635709275
0.632781982421875	0.0063262939453125	4716.41760909219
0.63720703125	0.0063323974609375	4716.63886109163
0.641632080078125	0.006341552734375	4716.86011309107
0.64605712890625	0.00634765625	4717.08136509051
0.650482177734375	0.006353759765625	4717.30261708996
0.6549072265625	0.0063629150390625	4717.5238690894
0.659332275390625	0.0063690185546875	4717.74512108884
0.66375732421875	0.0063751220703125	4717.96637308828
0.668182373046875	0.0063812255859375	4718.18762508772
0.672607421875	0.0063873291015625	4718.40887708716
0.677032470703125	0.0063934326171875	4718.6301290866
0.68145751953125	0.0063995361328125	4718.85138108605
0.685882568359375	0.00640869140625	4719.07263308549
0.6903076171875	0.0064117431640625	4719.29388508493
0.694732666015625	0.0064208984375	4719.51513708437
0.69915771484375	0.006427001953125	4719.73638908381
0.703582763671875	0.00643310546875	4719.95764108325
0.7080078125	0.006439208984375	4720.17889308269
0.712432861328125	0.0064483642578125	4720.40014508214
0.71685791015625	0.0064544677734375	4720.62139708158
0.721282958984375	0.0064605712890625	4720.84264908102
0.7257080078125	0.0064697265625	4721.06390108046
0.730133056640625	0.006475830078125	4721.2851530799
0.73455810546875	0.00648193359375	4721.50640507934
0.738983154296875	0.0064910888671875	4721.72765707878
0.743408203125	0.0064971923828125	4721.94890907823
0.747833251953125	0.0065032958984375	4722.17016107767
0.75225830078125	0.006512451171875	4722.39141307711
0.756683349609375	0.0065216064453125	4722.61266507655
0.7611083984375	0.00653076171875	4722.83391707599
0.765533447265625	0.0065399169921875	4723.05516907543
0.76995849609375	0.006549072265625	4723.27642107487
0.774383544921875	0.0065582275390625	4723.49767307431
0.77880859375	0.0065704345703125	4723.71892507376
0.783233642578125	0.00657958984375	4723.9401770732
0.78765869140625	0.006591796875	4724.16142907264
0.792083740234375	0.00660400390625	4724.38268107208
0.7965087890625	0.0066162109375	4724.60393307152
0.800933837890625	0.0066253662109375	4724.82518507096
0.80535888671875	0.006640625	4725.0464370704
0.809783935546875	0.00665283203125	4725.26768906985
0.814208984375	0.0066680908203125	4725.48894106929
0.818634033203125	0.006683349609375	4725.71019306873
0.82305908203125	0.0066986083984375	4725.93144506817
0.827484130859375	0.0067169189453125	4726.15269706761
0.8319091796875	0.006732177734375	4726.37394906705
0.836334228515625	0.00675048828125	4726.59520106649
0.84075927734375	0.006768798828125	4726.81645306594
0.845184326171875	0.006787109375	4727.03770506538
0.849609375	0.0068084716796875	4727.25895706482
0.854034423828125	0.006829833984375	4727.48020906426
0.85845947265625	0.006854248046875	4727.7014610637
0.862884521484375	0.006878662109375	4727.92271306314
0.8673095703125	0.006903076171875	4728.14396506258
0.871734619140625	0.0069305419921875	4728.36521706203
0.87615966796875	0.0069580078125	4728.58646906147
0.880584716796875	0.0069854736328125	4728.80772106091
0.885009765625	0.00701904296875	4729.02897306035
0.889434814453125	0.007049560546875	4729.25022505979
0.89385986328125	0.007086181640625	4729.47147705923
0.898284912109375	0.0071197509765625	4729.69272905867
0.9027099609375	0.007159423828125	4729.91398105812
0.907135009765625	0.0071990966796875	4730.13523305756
0.91156005859375	0.00723876953125	4730.356485057
0.915985107421875	0.0072845458984375	4730.57773705644
0.92041015625	0.0073272705078125	4730.79898905588
0.924835205078125	0.0073760986328125	4731.02024105532
0.92926025390625	0.0074249267578125	4731.24149305476
0.933685302734375	0.007476806640625	4731.4627450542
0.9381103515625	0.0075347900390625	4731.68399705365
0.942535400390625	0.007586669921875	4731.90524905309
0.94696044921875	0.0076446533203125	4732.12650105253
0.951385498046875	0.0077056884765625	4732.34775305197
0.955810546875	0.0077667236328125	4732.56900505141
0.960235595703125	0.0078277587890625	4732.79025705085
0.96466064453125	0.007891845703125	4733.01150905029
0.969085693359375	0.0079620361328125	4733.23276104974
0.9735107421875	0.0080291748046875	4733.45401304918
0.977935791015625	0.008099365234375	4733.67526504862
0.98236083984375	0.008172607421875	4733.89651704806
0.986785888671875	0.0082489013671875	4734.1177690475
0.9912109375	0.0083282470703125	4734.33902104694
0.995635986328125	0.0084075927734375	4734.56027304638
1.00006103515625	0.008489990234375	4734.78152504583
0.995635986328125	0.00777587890625	4735.00277704527
0.9912109375	0.0071258544921875	4735.22402904471
0.986785888671875	0.0065216064453125	4735.44528104415
0.98236083984375	0.0059600830078125	4735.66653304359
0.977935791015625	0.0054290771484375	4735.88778504303
0.9735107421875	0.00492889404296875	4736.10903704247
0.969085693359375	0.00445648193359375	4736.33028904192
0.96466064453125	0.00400634765625	4736.55154104136
0.960235595703125	0.00357940673828125	4736.7727930408
0.955810546875	0.00317169189453125	4736.99404504024
0.951385498046875	0.0027850341796875	4737.21529703968
0.94696044921875	0.002413330078125	4737.43654903912
0.942535400390625	0.0020574951171875	4737.65780103856
0.9381103515625	0.00171600341796875	4737.87905303801
0.933685302734375	0.00138641357421875	4738.10030503745
0.92926025390625	0.00107208251953125	4738.32155703689
0.924835205078125	0.000771484375	4738.54280903633
0.92041015625	0.000481842041015625	4738.76406103577
0.915985107421875	0.000204132080078125	4738.98531303521
0.91156005859375	-6.256103515625E-05	4739.20656503465
0.907135009765625	-0.000318328857421875	4739.42781703409
0.9027099609375	-0.0005645751953125	4739.64906903354
0.898284912109375	-0.00080047607421875	4739.87032103298
0.89385986328125	-0.00102783203125	4740.09157303242
0.889434814453125	-0.001246337890625	4740.31282503186
0.885009765625	-0.001455078125	4740.5340770313
0.880584716796875	-0.00165740966796875	4740.75532903074
0.87615966796875	-0.00185028076171875	4740.97658103019
0.871734619140625	-0.00203643798828125	4741.19783302963
0.8673095703125	-0.00221435546875	4741.41908502907
0.862884521484375	-0.00238525390625	4741.64033702851
0.85845947265625	-0.00254852294921875	4741.86158902795
0.854034423828125	-0.00270538330078125	4742.08284102739
0.849609375	-0.0028570556640625	4742.30409302683
0.845184326171875	-0.00300140380859375	4742.52534502627
0.84075927734375	-0.00314117431640625	4742.74659702572
0.836334228515625	-0.0032733154296875	4742.96784902516
0.8319091796875	-0.00339996337890625	4743.1891010246
0.827484130859375	-0.00352203369140625	4743.41035302404
0.82305908203125	-0.0036376953125	4743.63160502348
0.818634033203125	-0.00374847412109375	4743.85285702292
0.814208984375	-0.00385498046875	4744.07410902236
0.809783935546875	-0.00395538330078125	4744.29536102181
0.80535888671875	-0.00405303955078125	4744.51661302125
0.800933837890625	-0.0041448974609375	4744.73786502069
0.7965087890625	-0.004232177734375	4744.95911702013
0.792083740234375	-0.00431640625	4745.18036901957
0.78765869140625	-0.0043963623046875	4745.40162101901
0.783233642578125	-0.0044720458984375	4745.62287301845
0.77880859375	-0.0045428466796875	4745.8441250179
0.774383544921875	-0.00461151123046875	4746.06537701734
0.76995849609375	-0.004677734375	4746.28662901678
0.765533447265625	-0.0047393798828125	4746.50788101622
0.7611083984375	-0.00479827880859375	4746.72913301566
0.756683349609375	-0.004853515625	4746.9503850151
0.75225830078125	-0.0049072265625	4747.17163701454
0.747833251953125	-0.00495758056640625	4747.39288901399
0.743408203125	-0.0050048828125	4747.61414101343
0.738983154296875	-0.005048828125	4747.83539301287
0.73455810546875	-0.00509063720703125	4748.05664501231
0.730133056640625	-0.00513031005859375	4748.27789701175
0.7257080078125	-0.0051678466796875	4748.49914901119
0.721282958984375	-0.00520355224609375	4748.72040101063
0.71685791015625	-0.0052398681640625	4748.94165301008
0.712432861328125	-0.005272216796875	4749.16290500952
0.7080078125	-0.00530242919921875	4749.38415700896
0.703582763671875	-0.00533111572265625	4749.6054090084
0.69915771484375	-0.0053570556640625	4749.82666100784
0.694732666015625	-0.00538330078125	4750.04791300728
0.6903076171875	-0.00540740966796875	4750.26916500672
0.685882568359375	-0.00543182373046875	4750.49041700616
0.68145751953125	-0.0054547119140625	4750.71166900561
0.677032470703125	-0.00547515869140625	4750.93292100505
0.672607421875	-0.00549530029296875	4751.15417300449
0.668182373046875	-0.00551116943359375	4751.37542500393
0.66375732421875	-0.00552886962890625	4751.59667700337
0.659332275390625	-0.0055450439453125	4751.81792900281
0.6549072265625	-0.0055609130859375	4752.03918100225
0.650482177734375	-0.005576171875	4752.2604330017
0.64605712890625	-0.00559051513671875	4752.48168500114
0.641632080078125	-0.00560516357421875	4752.70293700058
0.63720703125	-0.00561859130859375	4752.92418900002
0.632781982421875	-0.0056317138671875	4753.14544099946
0.62835693359375	-0.0056451416015625	4753.3666929989
0.623931884765625	-0.00566009521484375	4753.58794499834
0.6195068359375	-0.00567291259765625	4753.80919699779
0.615081787109375	-0.00568359375	4754.03044899723
0.61065673828125	-0.005694580078125	4754.25170099667
0.606231689453125	-0.00570648193359375	4754.47295299611
0.601806640625	-0.00571624755859375	4754.69420499555
0.597381591796875	-0.00572906494140625	4754.91545699499
0.59295654296875	-0.00573760986328125	4755.13670899443
0.588531494140625	-0.00574798583984375	4755.35796099388
0.5841064453125	-0.0057562255859375	4755.57921299332
0.579681396484375	-0.00576568603515625	4755.80046499276
0.57525634765625	-0.005777587890625	4756.0217169922
0.570831298828125	-0.00578704833984375	4756.24296899164
0.56640625	-0.0057977294921875	4756.46422099108
0.561981201171875	-0.00580841064453125	4756.68547299052
0.55755615234375	-0.00581817626953125	4756.90672498997
0.553131103515625	-0.00582977294921875	4757.12797698941
0.5487060546875	-0.00583953857421875	4757.34922898885
0.544281005859375	-0.00585052490234375	4757.57048098829
0.53985595703125	-0.00586151123046875	4757.79173298773
0.535430908203125	-0.0058721923828125	4758.01298498717
0.531005859375	-0.00588531494140625	4758.23423698661
0.526580810546875	-0.00589508056640625	4758.45548898605
0.52215576171875	-0.00590728759765625	4758.6767409855
0.517730712890625	-0.00592041015625	4758.89799298494
0.5133056640625	-0.00593231201171875	4759.11924498438
0.508880615234375	-0.00594635009765625	4759.34049698382
0.50445556640625	-0.00595733642578125	4759.56174898326
0.500030517578125	-0.005972900390625	4759.7830009827
0.49560546875	-0.00598602294921875	4760.00425298214
0.491180419921875	-0.00599884033203125	4760.22550498159
0.48675537109375	-0.00601348876953125	4760.44675698103
0.482330322265625	-0.006005859375	4760.66800898047
0.4779052734375	-0.0060211181640625	4760.88926097991
0.473480224609375	-0.006036376953125	4761.11051297935
0.46905517578125	-0.0060516357421875	4761.33176497879
0.464630126953125	-0.00606689453125	4761.55301697823
0.460205078125	-0.0060821533203125	4761.77426897768
0.455780029296875	-0.006097412109375	4761.99552097712
0.45135498046875	-0.0061126708984375	4762.21677297656
0.446929931640625	-0.0061309814453125	4762.438024976
0.4425048828125	-0.0061492919921875	4762.65927697544
0.438079833984375	-0.00616455078125	4762.88052897488
0.43365478515625	-0.006182861328125	4763.10178097432
0.429229736328125	-0.0061981201171875	4763.32303297377
0.4248046875	-0.0062164306640625	4763.54428497321
0.420379638671875	-0.006231689453125	4763.76553697265
0.41595458984375	-0.00625	4763.98678897209
0.411529541015625	-0.0062652587890625	4764.20804097153
0.4071044921875	-0.0062835693359375	4764.42929297097
0.402679443359375	-0.006298828125	4764.65054497041
0.39825439453125	-0.006317138671875	4764.87179696986
0.393829345703125	-0.0063323974609375	4765.0930489693
0.389404296875	-0.00634765625	4765.31430096874
0.384979248046875	-0.0063629150390625	4765.53555296818
0.38055419921875	-0.0063812255859375	4765.75680496762
0.376129150390625	-0.006396484375	4765.97805696706
0.3717041015625	-0.0064117431640625	4766.1993089665
0.367279052734375	-0.006427001953125	4766.42056096594
0.36285400390625	-0.006439208984375	4766.64181296539
0.358428955078125	-0.0064544677734375	4766.86306496483
0.35400390625	-0.0064666748046875	4767.08431696427
0.349578857421875	-0.0064788818359375	4767.30556896371
0.34515380859375	-0.006494140625	4767.52682096315
0.340728759765625	-0.0065032958984375	4767.74807296259
0.3363037109375	-0.0065155029296875	4767.96932496203
0.331878662109375	-0.0065277099609375	4768.19057696148
0.32745361328125	-0.006536865234375	4768.41182896092
0.323028564453125	-0.006549072265625	4768.63308096036
0.318603515625	-0.0065582275390625	4768.8543329598
0.314178466796875	-0.0065673828125	4769.07558495924
0.30975341796875	-0.00657958984375	4769.29683695868
0.305328369140625	-0.0065887451171875	4769.51808895812
0.3009033203125	-0.006597900390625	4769.73934095757
0.296478271484375	-0.00660400390625	4769.96059295701
0.29205322265625	-0.006610107421875	4770.18184495645
0.287628173828125	-0.0066162109375	4770.40309695589
0.283203125	-0.0066253662109375	4770.62434895533
0.278778076171875	-0.0066314697265625	4770.84560095477
0.27435302734375	-0.006634521484375	4771.06685295421
0.269927978515625	-0.0066436767578125	4771.28810495366
0.2655029296875	-0.006646728515625	4771.5093569531
0.261077880859375	-0.00665283203125	4771.73060895254
0.25665283203125	-0.006658935546875	4771.95186095198
0.252227783203125	-0.0066619873046875	4772.17311295142
0.247802734375	-0.0066680908203125	4772.39436495086
0.243377685546875	-0.006671142578125	4772.6156169503
0.23895263671875	-0.0066802978515625	4772.83686894975
0.234527587890625	-0.006683349609375	4773.05812094919
0.2301025390625	-0.0066864013671875	4773.27937294863
0.225677490234375	-0.0066925048828125	4773.50062494807
0.22125244140625	-0.0066925048828125	4773.72187694751
0.216827392578125	-0.0066986083984375	4773.94312894695
0.21240234375	-0.00670166015625	4774.16438094639
0.207977294921875	-0.006707763671875	4774.38563294583
0.20355224609375	-0.0067108154296875	4774.60688494528
0.199127197265625	-0.0067169189453125	4774.82813694472
0.1947021484375	-0.0067230224609375	4775.04938894416
0.190277099609375	-0.00672607421875	4775.2706409436
0.18585205078125	-0.0067291259765625	4775.49189294304
0.181427001953125	-0.0067352294921875	4775.71314494248
0.177001953125	-0.00673828125	4775.93439694193
0.172576904296875	-0.006744384765625	4776.15564894137
0.16815185546875	-0.00675048828125	4776.37690094081
0.163726806640625	-0.0067535400390625	4776.59815294025
0.1593017578125	-0.0067596435546875	4776.81940493969
0.154876708984375	-0.0067657470703125	4777.04065693913
0.15045166015625	-0.0067718505859375	4777.26190893857
0.146026611328125	-0.00677490234375	4777.48316093801
0.1416015625	-0.006781005859375	4777.70441293746
0.137176513671875	-0.006787109375	4777.9256649369
0.13275146484375	-0.0067962646484375	4778.14691693634
0.128326416015625	-0.0068023681640625	4778.36816893578
0.1239013671875	-0.0068084716796875	4778.58942093522
0.119476318359375	-0.006817626953125	4778.81067293466
0.11505126953125	-0.0068206787109375	4779.0319249341
0.110626220703125	-0.006829833984375	4779.25317693355
0.106201171875	-0.0068389892578125	4779.47442893299
0.101776123046875	-0.00684814453125	4779.69568093243
0.09735107421875	-0.0068572998046875	4779.91693293187
0.092926025390625	-0.006866455078125	4780.13818493131
0.0885009765625	-0.006878662109375	4780.35943693075
0.084075927734375	-0.0068878173828125	4780.58068893019
0.07965087890625	-0.0069000244140625	4780.80194092964
0.075225830078125	-0.0069091796875	4781.02319292908
0.07080078125	-0.00692138671875	4781.24444492852
0.066375732421875	-0.00693359375	4781.46569692796
0.06195068359375	-0.0069488525390625	4781.6869489274
0.057525634765625	-0.0069610595703125	4781.90820092684
0.0531005859375	-0.006976318359375	4782.12945292628
0.048675537109375	-0.0069915771484375	4782.35070492573
0.04425048828125	-0.0070068359375	4782.57195692517
0.039825439453125	-0.0070220947265625	4782.79320892461
0.035400390625	-0.007037353515625	4783.01446092405
0.030975341796875	-0.0070556640625	4783.23571292349
0.02655029296875	-0.007073974609375	4783.45696492293
0.022125244140625	-0.0070953369140625	4783.67821692237
0.0177001953125	-0.0071136474609375	4783.89946892182
0.013275146484375	-0.007135009765625	4784.12072092126
0.00885009765625	-0.0071533203125	4784.3419729207
0.004425048828125	-0.0071746826171875	4784.56322492014
0	-0.0071990966796875	4784.78447691958
0.004425048828125	-0.0064453125	4785.00572891902
0.00885009765625	-0.0057647705078125	4785.22698091846
0.013275146484375	-0.00513916015625	4785.4482329179
0.0177001953125	-0.004560546875	4785.66948491735
0.022125244140625	-0.00402557373046875	4785.89073691679
0.02655029296875	-0.0035260009765625	4786.11198891623
0.030975341796875	-0.00306060791015625	4786.33324091567
0.035400390625	-0.00262481689453125	4786.55449291511
0.039825439453125	-0.00222564697265625	4786.77574491455
0.04425048828125	-0.0018414306640625	4786.99699691399
0.048675537109375	-0.0014801025390625	4787.21824891344
0.0531005859375	-0.00113983154296875	4787.43950091288
0.057525634765625	-0.00081939697265625	4787.66075291232
0.06195068359375	-0.0005169677734375	4787.88200491176
0.066375732421875	-0.00023114013671875	4788.1032569112
0.07080078125	3.8934326171875E-05	4788.32450891064
0.075225830078125	0.000294921875	4788.54576091008
0.07965087890625	0.00053558349609375	4788.76701290953
0.084075927734375	0.00076568603515625	4788.98826490897
0.0885009765625	0.00098388671875	4789.20951690841
0.092926025390625	0.00119140625	4789.43076890785
0.09735107421875	0.00138580322265625	4789.65202090729
0.101776123046875	0.00156890869140625	4789.87327290673
0.106201171875	0.00174407958984375	4790.09452490617
0.110626220703125	0.00190948486328125	4790.31577690562
0.11505126953125	0.00206695556640625	4790.53702890506
0.119476318359375	0.00221435546875	4790.7582809045
0.1239013671875	0.00235595703125	4790.97953290394
0.128326416015625	0.0024908447265625	4791.20078490338
0.13275146484375	0.00261962890625	4791.42203690282
0.137176513671875	0.00274322509765625	4791.64328890226
0.1416015625	0.00286102294921875	4791.86454090171
0.146026611328125	0.00297332763671875	4792.08579290115
0.15045166015625	0.00308013916015625	4792.30704490059
0.154876708984375	0.00318206787109375	4792.52829690003
0.1593017578125	0.0032794189453125	4792.74954889947
0.163726806640625	0.00337310791015625	4792.97080089891
0.16815185546875	0.00346343994140625	4793.19205289835
0.172576904296875	0.003548583984375	4793.41330489779
0.177001953125	0.0036297607421875	4793.63455689724
0.181427001953125	0.00370849609375	4793.85580889668
0.18585205078125	0.00378265380859375	4794.07706089612
0.190277099609375	0.00385467529296875	4794.29831289556
0.1947021484375	0.00392364501953125	4794.519564895
0.199127197265625	0.0039886474609375	4794.74081689444
0.20355224609375	0.00405242919921875	4794.96206889388
0.207977294921875	0.0041131591796875	4795.18332089333
0.21240234375	0.00417205810546875	4795.40457289277
0.216827392578125	0.00422882080078125	4795.62582489221
0.22125244140625	0.004283447265625	4795.84707689165
0.225677490234375	0.0043353271484375	4796.06832889109
0.2301025390625	0.004385986328125	4796.28958089053
0.234527587890625	0.00443206787109375	4796.51083288997
0.23895263671875	0.00447906494140625	4796.73208488942
0.243377685546875	0.00452362060546875	4796.95333688886
0.247802734375	0.00456695556640625	4797.1745888883
0.252227783203125	0.00460845947265625	4797.39584088774
0.25665283203125	0.004649658203125	4797.61709288718
0.261077880859375	0.00469024658203125	4797.83834488662
0.2655029296875	0.00472900390625	4798.05959688606
0.269927978515625	0.004766845703125	4798.28084888551
0.27435302734375	0.0048028564453125	4798.50210088495
0.278778076171875	0.00483795166015625	4798.72335288439
0.283203125	0.00487335205078125	4798.94460488383
0.287628173828125	0.00490692138671875	4799.16585688327
0.29205322265625	0.0049395751953125	4799.38710888271
0.296478271484375	0.00497100830078125	4799.60836088215
0.3009033203125	0.00500335693359375	4799.8296128816
0.305328369140625	0.0050341796875	4800.05086488104
0.30975341796875	0.00506378173828125	4800.27211688048
0.314178466796875	0.0050958251953125	4800.49336887992
0.318603515625	0.00512359619140625	4800.71462087936
0.323028564453125	0.0051513671875	4800.9358728788
0.32745361328125	0.00517822265625	4801.15712487824
0.331878662109375	0.00520538330078125	4801.37837687768
0.3363037109375	0.00523223876953125	4801.59962887713
0.340728759765625	0.00525787353515625	4801.82088087657
0.34515380859375	0.0052850341796875	4802.04213287601
0.349578857421875	0.00530853271484375	4802.26338487545
0.35400390625	0.00533172607421875	4802.48463687489
0.358428955078125	0.00535736083984375	4802.70588887433
0.36285400390625	0.00538055419921875	4802.92714087377
0.367279052734375	0.0054052734375	4803.14839287322
0.3717041015625	0.00542938232421875	4803.36964487266
0.376129150390625	0.00545318603515625	4803.5908968721
0.38055419921875	0.0054766845703125	4803.81214887154
0.384979248046875	0.005498046875	4804.03340087098
0.389404296875	0.00552215576171875	4804.25465287042
0.393829345703125	0.00554351806640625	4804.47590486986
0.39825439453125	0.00556549072265625	4804.69715686931
0.402679443359375	0.00558868408203125	4804.91840886875
0.4071044921875	0.00561065673828125	4805.13966086819
0.411529541015625	0.00563262939453125	4805.36091286763
0.41595458984375	0.0056536865234375	4805.58216486707
0.420379638671875	0.00567596435546875	4805.80341686651
0.4248046875	0.0056976318359375	4806.02466886595
0.429229736328125	0.00571807861328125	4806.2459208654
0.43365478515625	0.005738525390625	4806.46717286484
0.438079833984375	0.005758056640625	4806.68842486428
0.4425048828125	0.00577880859375	4806.90967686372
0.446929931640625	0.0057977294921875	4807.13092886316
0.45135498046875	0.005816650390625	4807.3521808626
0.455780029296875	0.00583709716796875	4807.57343286204
0.460205078125	0.00585418701171875	4807.79468486149
0.464630126953125	0.005872802734375	4808.01593686093
0.46905517578125	0.005889892578125	4808.23718886037
0.473480224609375	0.00590728759765625	4808.45844085981
0.4779052734375	0.00592529296875	4808.67969285925
0.482330322265625	0.0059417724609375	4808.90094485869
0.48675537109375	0.005958251953125	4809.12219685813
0.491180419921875	0.00597412109375	4809.34344885757
0.49560546875	0.005989990234375	4809.56470085702
0.500030517578125	0.00600555419921875	4809.78595285646
0.50445556640625	0.006011962890625	4810.0072048559
0.508880615234375	0.006024169921875	4810.22845685534
0.5133056640625	0.006036376953125	4810.44970885478
0.517730712890625	0.0060516357421875	4810.67096085422
0.52215576171875	0.0060638427734375	4810.89221285367
0.526580810546875	0.0060760498046875	4811.11346485311
0.531005859375	0.00609130859375	4811.33471685255
0.535430908203125	0.006103515625	4811.55596885199
0.53985595703125	0.00611572265625	4811.77722085143
0.544281005859375	0.0061279296875	4811.99847285087
0.5487060546875	0.00614013671875	4812.21972485031
0.553131103515625	0.00615234375	4812.44097684975
0.55755615234375	0.0061614990234375	4812.6622288492
0.561981201171875	0.0061737060546875	4812.88348084864
0.56640625	0.006182861328125	4813.10473284808
0.570831298828125	0.006195068359375	4813.32598484752
0.57525634765625	0.006207275390625	4813.54723684696
0.579681396484375	0.0062164306640625	4813.7684888464
0.5841064453125	0.0062255859375	4813.98974084584
0.588531494140625	0.0062347412109375	4814.21099284529
0.59295654296875	0.006243896484375	4814.43224484473
0.597381591796875	0.0062530517578125	4814.65349684417
0.601806640625	0.0062591552734375	4814.87474884361
0.606231689453125	0.0062713623046875	4815.09600084305
0.61065673828125	0.0062774658203125	4815.31725284249
0.615081787109375	0.00628662109375	4815.53850484193
0.6195068359375	0.0062957763671875	4815.75975684138
0.623931884765625	0.0063018798828125	4815.98100884082
0.62835693359375	0.0063140869140625	4816.20226084026
0.632781982421875	0.0063201904296875	4816.4235128397
0.63720703125	0.0063262939453125	4816.64476483914
0.641632080078125	0.0063323974609375	4816.86601683858
0.64605712890625	0.006341552734375	4817.08726883802
0.650482177734375	0.00634765625	4817.30852083747
0.6549072265625	0.006353759765625	4817.52977283691
0.659332275390625	0.0063629150390625	4817.75102483635
0.66375732421875	0.0063690185546875	4817.97227683579
0.668182373046875	0.0063720703125	4818.19352883523
0.672607421875	0.0063812255859375	4818.41478083467
0.677032470703125	0.0063873291015625	4818.63603283411
0.68145751953125	0.0063934326171875	4818.85728483356
0.685882568359375	0.0063995361328125	4819.078536833
0.6903076171875	0.0064056396484375	4819.29978883244
0.694732666015625	0.0064117431640625	4819.52104083188
0.69915771484375	0.0064178466796875	4819.74229283132
0.703582763671875	0.0064239501953125	4819.96354483076
0.7080078125	0.00643310546875	4820.1847968302
0.712432861328125	0.0064361572265625	4820.40604882964
0.71685791015625	0.0064453125	4820.62730082909
0.721282958984375	0.006451416015625	4820.84855282853
0.7257080078125	0.0064605712890625	4821.06980482797
0.730133056640625	0.0064666748046875	4821.29105682741
0.73455810546875	0.006475830078125	4821.51230882685
0.738983154296875	0.00648193359375	4821.73356082629
0.743408203125	0.0064849853515625	4821.95481282573
0.747833251953125	0.006494140625	4822.17606482518
0.75225830078125	0.0065032958984375	4822.39731682462
0.756683349609375	0.006512451171875	4822.61856882406
0.7611083984375	0.0065185546875	4822.8398208235
0.765533447265625	0.0065277099609375	4823.06107282294
0.76995849609375	0.0065399169921875	4823.28232482238
0.774383544921875	0.0065460205078125	4823.50357682182
0.77880859375	0.0065582275390625	4823.72482882127
0.783233642578125	0.0065673828125	4823.94608082071
0.78765869140625	0.0065765380859375	4824.16733282015
0.792083740234375	0.0065887451171875	4824.38858481959
0.7965087890625	0.0066009521484375	4824.60983681903
0.800933837890625	0.0066131591796875	4824.83108881847
0.80535888671875	0.0066253662109375	4825.05234081791
0.809783935546875	0.0066375732421875	4825.27359281736
0.814208984375	0.00665283203125	4825.4948448168
0.818634033203125	0.0066680908203125	4825.71609681624
0.82305908203125	0.006683349609375	4825.93734881568
0.827484130859375	0.0066986083984375	4826.15860081512
0.8319091796875	0.0067169189453125	4826.37985281456
0.836334228515625	0.006732177734375	4826.601104814
0.84075927734375	0.00675048828125	4826.82235681345
0.845184326171875	0.0067718505859375	4827.04360881289
0.849609375	0.0067901611328125	4827.26486081233
0.854034423828125	0.0068145751953125	4827.48611281177
0.85845947265625	0.0068359375	4827.70736481121
0.862884521484375	0.0068603515625	4827.92861681065
0.8673095703125	0.006884765625	4828.14986881009
0.871734619140625	0.0069122314453125	4828.37112080953
0.87615966796875	0.006939697265625	4828.59237280898
0.880584716796875	0.00697021484375	4828.81362480842
0.885009765625	0.007000732421875	4829.03487680786
0.889434814453125	0.00703125	4829.2561288073
0.89385986328125	0.007061767578125	4829.47738080674
0.898284912109375	0.007098388671875	4829.69863280618
0.9027099609375	0.0071380615234375	4829.91988480562
0.907135009765625	0.007177734375	4830.14113680507
0.91156005859375	0.0072174072265625	4830.36238880451
0.915985107421875	0.0072601318359375	4830.58364080395
0.92041015625	0.007305908203125	4830.80489280339
0.924835205078125	0.0073516845703125	4831.02614480283
0.92926025390625	0.0074005126953125	4831.24739680227
0.933685302734375	0.007452392578125	4831.46864880171
0.9381103515625	0.00750732421875	4831.68990080116
0.942535400390625	0.007562255859375	4831.9111528006
0.94696044921875	0.0076202392578125	4832.13240480004
0.951385498046875	0.00767822265625	4832.35365679948
0.955810546875	0.0077392578125	4832.57490879892
0.960235595703125	0.0078033447265625	4832.79616079836
0.96466064453125	0.0078643798828125	4833.0174127978
0.969085693359375	0.0079315185546875	4833.23866479725
0.9735107421875	0.008001708984375	4833.45991679669
0.977935791015625	0.00806884765625	4833.68116879613
0.98236083984375	0.0081451416015625	4833.90242079557
0.986785888671875	0.0082183837890625	4834.12367279501
0.9912109375	0.008294677734375	4834.34492479445
0.995635986328125	0.0083770751953125	4834.56617679389
1.00006103515625	0.0084564208984375	4834.78742879334
0.995635986328125	0.0077423095703125	4835.00868079278
0.9912109375	0.00709228515625	4835.22993279222
0.986785888671875	0.006488037109375	4835.45118479166
0.98236083984375	0.005926513671875	4835.6724367911
0.977935791015625	0.0053985595703125	4835.89368879054
0.9735107421875	0.00489959716796875	4836.11494078998
0.969085693359375	0.00442779541015625	4836.33619278942
0.96466064453125	0.00397918701171875	4836.55744478887
0.960235595703125	0.0035528564453125	4836.77869678831
0.955810546875	0.0031463623046875	4836.99994878775
0.951385498046875	0.00276092529296875	4837.22120078719
0.94696044921875	0.00239013671875	4837.44245278663
0.942535400390625	0.00203521728515625	4837.66370478607
0.9381103515625	0.00169525146484375	4837.88495678551
0.933685302734375	0.0013665771484375	4838.10620878496
0.92926025390625	0.0010540771484375	4838.3274607844
0.924835205078125	0.00075439453125	4838.54871278384
0.92041015625	0.000466217041015625	4838.76996478328
0.915985107421875	0.000190185546875	4838.99121678272
0.91156005859375	-7.470703125E-05	4839.21246878216
0.907135009765625	-0.0003294677734375	4839.4337207816
0.9027099609375	-0.00057403564453125	4839.65497278105
0.898284912109375	-0.00080902099609375	4839.87622478049
0.89385986328125	-0.00103515625	4840.09747677993
0.889434814453125	-0.0012518310546875	4840.31872877937
0.885009765625	-0.00146087646484375	4840.53998077881
0.880584716796875	-0.0016607666015625	4840.76123277825
0.87615966796875	-0.0018536376953125	4840.98248477769
0.871734619140625	-0.0020379638671875	4841.20373677714
0.8673095703125	-0.0022149658203125	4841.42498877658
0.862884521484375	-0.00238555908203125	4841.64624077602
0.85845947265625	-0.00254638671875	4841.86749277546
0.854034423828125	-0.002703857421875	4842.0887447749
0.849609375	-0.00285369873046875	4842.30999677434
0.845184326171875	-0.002996826171875	4842.53124877378
0.84075927734375	-0.0031353759765625	4842.75250077323
0.836334228515625	-0.0032672119140625	4842.97375277267
0.8319091796875	-0.00339324951171875	4843.19500477211
0.827484130859375	-0.00351318359375	4843.41625677155
0.82305908203125	-0.0036279296875	4843.63750877099
0.818634033203125	-0.0037384033203125	4843.85876077043
0.814208984375	-0.00384368896484375	4844.08001276987
0.809783935546875	-0.003944091796875	4844.30126476931
0.80535888671875	-0.004039306640625	4844.52251676876
0.800933837890625	-0.0041314697265625	4844.7437687682
0.7965087890625	-0.00421905517578125	4844.96502076764
0.792083740234375	-0.0043017578125	4845.18627276708
0.78765869140625	-0.004381103515625	4845.40752476652
0.783233642578125	-0.00445556640625	4845.62877676596
0.77880859375	-0.0045269775390625	4845.85002876541
0.774383544921875	-0.00459442138671875	4846.07128076485
0.76995849609375	-0.004659423828125	4846.29253276429
0.765533447265625	-0.00472137451171875	4846.51378476373
0.7611083984375	-0.00477874755859375	4846.73503676317
0.756683349609375	-0.00483489990234375	4846.95628876261
0.75225830078125	-0.0048876953125	4847.17754076205
0.747833251953125	-0.0049365234375	4847.39879276149
0.743408203125	-0.00498626708984375	4847.62004476094
0.738983154296875	-0.005028076171875	4847.84129676038
0.73455810546875	-0.005072021484375	4848.06254875982
0.730133056640625	-0.0051129150390625	4848.28380075926
0.7257080078125	-0.00514984130859375	4848.5050527587
0.721282958984375	-0.0051861572265625	4848.72630475814
0.71685791015625	-0.00521728515625	4848.94755675758
0.712432861328125	-0.005250244140625	4849.16880875703
0.7080078125	-0.005283203125	4849.39006075647
0.703582763671875	-0.00531219482421875	4849.61131275591
0.69915771484375	-0.00533782958984375	4849.83256475535
0.694732666015625	-0.005362548828125	4850.05381675479
0.6903076171875	-0.00538787841796875	4850.27506875423
0.685882568359375	-0.0054095458984375	4850.49632075367
0.68145751953125	-0.0054327392578125	4850.71757275312
0.677032470703125	-0.00545440673828125	4850.93882475256
0.672607421875	-0.00547393798828125	4851.160076752
0.668182373046875	-0.0054937744140625	4851.38132875144
0.66375732421875	-0.00550994873046875	4851.60258075088
0.659332275390625	-0.00552734375	4851.82383275032
0.6549072265625	-0.00554290771484375	4852.04508474976
0.650482177734375	-0.00555816650390625	4852.26633674921
0.64605712890625	-0.00557281494140625	4852.48758874865
0.641632080078125	-0.0055865478515625	4852.70884074809
0.63720703125	-0.0056011962890625	4852.93009274753
0.632781982421875	-0.005614013671875	4853.15134474697
0.62835693359375	-0.0056268310546875	4853.37259674641
0.623931884765625	-0.005643310546875	4853.59384874585
0.6195068359375	-0.0056549072265625	4853.8151007453
0.615081787109375	-0.00566680908203125	4854.03635274474
0.61065673828125	-0.0056781005859375	4854.25760474418
0.606231689453125	-0.00568939208984375	4854.47885674362
0.601806640625	-0.00570037841796875	4854.70010874306
0.597381591796875	-0.00571044921875	4854.9213607425
0.59295654296875	-0.0057220458984375	4855.14261274194
0.588531494140625	-0.00573333740234375	4855.36386474138
0.5841064453125	-0.00574066162109375	4855.58511674083
0.579681396484375	-0.005750732421875	4855.80636874027
0.57525634765625	-0.00576141357421875	4856.02762073971
0.570831298828125	-0.00577301025390625	4856.24887273915
0.56640625	-0.00578277587890625	4856.47012473859
0.561981201171875	-0.005794677734375	4856.69137673803
0.55755615234375	-0.0058056640625	4856.91262873747
0.553131103515625	-0.00581573486328125	4857.13388073692
0.5487060546875	-0.00582733154296875	4857.35513273636
0.544281005859375	-0.0058367919921875	4857.5763847358
0.53985595703125	-0.0058477783203125	4857.79763673524
0.535430908203125	-0.005859375	4858.01888873468
0.531005859375	-0.0058709716796875	4858.24014073412
0.526580810546875	-0.00588348388671875	4858.46139273356
0.52215576171875	-0.00589508056640625	4858.68264473301
0.517730712890625	-0.0059075927734375	4858.90389673245
0.5133056640625	-0.0059197998046875	4859.12514873189
0.508880615234375	-0.005933837890625	4859.34640073133
0.50445556640625	-0.0059466552734375	4859.56765273077
0.500030517578125	-0.0059588623046875	4859.78890473021
0.49560546875	-0.00597259521484375	4860.01015672965
0.491180419921875	-0.00598724365234375	4860.2314087291
0.48675537109375	-0.00600128173828125	4860.45266072854
0.482330322265625	-0.0059967041015625	4860.67391272798
0.4779052734375	-0.0060089111328125	4860.89516472742
0.473480224609375	-0.006024169921875	4861.11641672686
0.46905517578125	-0.0060394287109375	4861.3376687263
0.464630126953125	-0.0060546875	4861.55892072574
0.460205078125	-0.006072998046875	4861.78017272519
0.455780029296875	-0.0060882568359375	4862.00142472463
0.45135498046875	-0.0061065673828125	4862.22267672407
0.446929931640625	-0.006121826171875	4862.44392872351
0.4425048828125	-0.0061370849609375	4862.66518072295
0.438079833984375	-0.0061553955078125	4862.88643272239
0.43365478515625	-0.006170654296875	4863.10768472183
0.429229736328125	-0.00618896484375	4863.32893672127
0.4248046875	-0.0062042236328125	4863.55018872072
0.420379638671875	-0.0062225341796875	4863.77144072016
0.41595458984375	-0.0062408447265625	4863.9926927196
0.411529541015625	-0.006256103515625	4864.21394471904
0.4071044921875	-0.0062744140625	4864.43519671848
0.402679443359375	-0.0062896728515625	4864.65644871792
0.39825439453125	-0.0063079833984375	4864.87770071736
0.393829345703125	-0.0063232421875	4865.09895271681
0.389404296875	-0.0063385009765625	4865.32020471625
0.384979248046875	-0.0063568115234375	4865.54145671569
0.38055419921875	-0.0063720703125	4865.76270871513
0.376129150390625	-0.0063873291015625	4865.98396071457
0.3717041015625	-0.006402587890625	4866.20521271401
0.367279052734375	-0.0064178466796875	4866.42646471345
0.36285400390625	-0.00643310546875	4866.6477167129
0.358428955078125	-0.0064453125	4866.86896871234
0.35400390625	-0.0064605712890625	4867.09022071178
0.349578857421875	-0.0064727783203125	4867.31147271122
0.34515380859375	-0.0064849853515625	4867.53272471066
0.340728759765625	-0.0064971923828125	4867.7539767101
0.3363037109375	-0.0065093994140625	4867.97522870954
0.331878662109375	-0.0065185546875	4868.19648070899
0.32745361328125	-0.00653076171875	4868.41773270843
0.323028564453125	-0.00654296875	4868.63898470787
0.318603515625	-0.0065521240234375	4868.86023670731
0.314178466796875	-0.006561279296875	4869.08148870675
0.30975341796875	-0.006573486328125	4869.30274070619
0.305328369140625	-0.00657958984375	4869.52399270563
0.3009033203125	-0.0065887451171875	4869.74524470508
0.296478271484375	-0.006597900390625	4869.96649670452
0.29205322265625	-0.00660400390625	4870.18774870396
0.287628173828125	-0.006610107421875	4870.4090007034
0.283203125	-0.0066162109375	4870.63025270284
0.278778076171875	-0.006622314453125	4870.85150470228
0.27435302734375	-0.00662841796875	4871.07275670172
0.269927978515625	-0.006634521484375	4871.29400870116
0.2655029296875	-0.006640625	4871.51526070061
0.261077880859375	-0.006646728515625	4871.73651270005
0.25665283203125	-0.0066497802734375	4871.95776469949
0.252227783203125	-0.0066558837890625	4872.17901669893
0.247802734375	-0.0066619873046875	4872.40026869837
0.243377685546875	-0.0066650390625	4872.62152069781
0.23895263671875	-0.006671142578125	4872.84277269725
0.234527587890625	-0.0066741943359375	4873.0640246967
0.2301025390625	-0.00667724609375	4873.28527669614
0.225677490234375	-0.006683349609375	4873.50652869558
0.22125244140625	-0.006689453125	4873.72778069502
0.216827392578125	-0.0066925048828125	4873.94903269446
0.21240234375	-0.006695556640625	4874.1702846939
0.207977294921875	-0.0066986083984375	4874.39153669334
0.20355224609375	-0.0067047119140625	4874.61278869279
0.199127197265625	-0.006707763671875	4874.83404069223
0.1947021484375	-0.0067138671875	4875.05529269167
0.190277099609375	-0.006719970703125	4875.27654469111
0.18585205078125	-0.0067230224609375	4875.49779669055
0.181427001953125	-0.00672607421875	4875.71904868999
0.177001953125	-0.006732177734375	4875.94030068943
0.172576904296875	-0.0067352294921875	4876.16155268888
0.16815185546875	-0.0067413330078125	4876.38280468832
0.163726806640625	-0.006744384765625	4876.60405668776
0.1593017578125	-0.00675048828125	4876.8253086872
0.154876708984375	-0.0067535400390625	4877.04656068664
0.15045166015625	-0.0067596435546875	4877.26781268608
0.146026611328125	-0.0067657470703125	4877.48906468552
0.1416015625	-0.0067718505859375	4877.71031668497
0.137176513671875	-0.0067779541015625	4877.93156868441
0.13275146484375	-0.0067840576171875	4878.15282068385
0.128326416015625	-0.006793212890625	4878.37407268329
0.1239013671875	-0.00679931640625	4878.59532468273
0.119476318359375	-0.006805419921875	4878.81657668217
0.11505126953125	-0.0068115234375	4879.03782868161
0.110626220703125	-0.0068206787109375	4879.25908068105
0.106201171875	-0.006829833984375	4879.4803326805
0.101776123046875	-0.0068359375	4879.70158467994
0.09735107421875	-0.0068450927734375	4879.92283667938
0.092926025390625	-0.006854248046875	4880.14408867882
0.0885009765625	-0.006866455078125	4880.36534067826
0.084075927734375	-0.0068756103515625	4880.5865926777
0.07965087890625	-0.0068878173828125	4880.80784467715
0.075225830078125	-0.00689697265625	4881.02909667659
0.07080078125	-0.0069122314453125	4881.25034867603
0.066375732421875	-0.00692138671875	4881.47160067547
0.06195068359375	-0.0069366455078125	4881.69285267491
0.057525634765625	-0.0069488525390625	4881.91410467435
0.0531005859375	-0.006964111328125	4882.13535667379
0.048675537109375	-0.0069793701171875	4882.35660867323
0.04425048828125	-0.00699462890625	4882.57786067268
0.039825439453125	-0.0070098876953125	4882.79911267212
0.035400390625	-0.007025146484375	4883.02036467156
0.030975341796875	-0.0070404052734375	4883.241616671
0.02655029296875	-0.007061767578125	4883.46286867044
0.022125244140625	-0.0070770263671875	4883.68412066988
0.0177001953125	-0.007098388671875	4883.90537266932
0.013275146484375	-0.0071197509765625	4884.12662466877
0.00885009765625	-0.00714111328125	4884.34787666821
0.004425048828125	-0.0071624755859375	4884.56912866765
0	-0.0071868896484375	4884.79038066709
0.004425048828125	-0.00643310546875	4885.01163266653
0.00885009765625	-0.0057525634765625	4885.23288466597
0.013275146484375	-0.005126953125	4885.45413666541
0.0177001953125	-0.0045489501953125	4885.67538866486
0.022125244140625	-0.0040130615234375	4885.8966406643
0.02655029296875	-0.00351470947265625	4886.11789266374
0.030975341796875	-0.00304931640625	4886.33914466318
0.035400390625	-0.002613525390625	4886.56039666262
0.039825439453125	-0.0022149658203125	4886.78164866206
0.04425048828125	-0.0018310546875	4887.0029006615
0.048675537109375	-0.00146942138671875	4887.22415266095
0.0531005859375	-0.0011297607421875	4887.44540466039
0.057525634765625	-0.000809326171875	4887.66665665983
0.06195068359375	-0.00050689697265625	4887.88790865927
0.066375732421875	-0.00022149658203125	4888.10916065871
0.07080078125	4.87060546875E-05	4888.33041265815
0.075225830078125	0.00030413818359375	4888.55166465759
0.07965087890625	0.00054473876953125	4888.77291665704
0.084075927734375	0.000775146484375	4888.99416865648
0.0885009765625	0.00099334716796875	4889.21542065592
0.092926025390625	0.00120086669921875	4889.43667265536
0.09735107421875	0.00139434814453125	4889.6579246548
0.101776123046875	0.001578369140625	4889.87917665424
0.106201171875	0.0017529296875	4890.10042865368
0.110626220703125	0.00191864013671875	4890.32168065312
0.11505126953125	0.00207672119140625	4890.54293265257
0.119476318359375	0.0022235107421875	4890.76418465201
0.1239013671875	0.0023651123046875	4890.98543665145
0.128326416015625	0.0024993896484375	4891.20668865089
0.13275146484375	0.0026287841796875	4891.42794065033
0.137176513671875	0.00275299072265625	4891.64919264977
0.1416015625	0.00287078857421875	4891.87044464921
0.146026611328125	0.0029827880859375	4892.09169664866
0.15045166015625	0.00308990478515625	4892.3129486481
0.154876708984375	0.00319183349609375	4892.53420064754
0.1593017578125	0.003289794921875	4892.75545264698
0.163726806640625	0.00338226318359375	4892.97670464642
0.16815185546875	0.0034716796875	4893.19795664586
0.172576904296875	0.00355682373046875	4893.4192086453
0.177001953125	0.00363800048828125	4893.64046064475
0.181427001953125	0.0037164306640625	4893.86171264419
0.18585205078125	0.00379058837890625	4894.08296464363
0.190277099609375	0.0038629150390625	4894.30421664307
0.1947021484375	0.00393096923828125	4894.52546864251
0.199127197265625	0.00399688720703125	4894.74672064195
0.20355224609375	0.00406036376953125	4894.96797264139
0.207977294921875	0.00412139892578125	4895.18922464084
0.21240234375	0.0041802978515625	4895.41047664028
0.216827392578125	0.004237060546875	4895.63172863972
0.22125244140625	0.0042901611328125	4895.85298063916
0.225677490234375	0.00434234619140625	4896.0742326386
0.2301025390625	0.0043914794921875	4896.29548463804
0.234527587890625	0.00443878173828125	4896.51673663748
0.23895263671875	0.0044854736328125	4896.73798863693
0.243377685546875	0.00453033447265625	4896.95924063637
0.247802734375	0.00457183837890625	4897.18049263581
0.252227783203125	0.0046136474609375	4897.40174463525
0.25665283203125	0.004654541015625	4897.62299663469
0.261077880859375	0.0046942138671875	4897.84424863413
0.2655029296875	0.00473419189453125	4898.06550063357
0.269927978515625	0.0047711181640625	4898.28675263301
0.27435302734375	0.00480743408203125	4898.50800463246
0.278778076171875	0.0048431396484375	4898.7292566319
0.283203125	0.00487701416015625	4898.95050863134
0.287628173828125	0.00491058349609375	4899.17176063078
0.29205322265625	0.00494232177734375	4899.39301263022
0.296478271484375	0.00497589111328125	4899.61426462966
0.3009033203125	0.005008544921875	4899.8355166291
0.305328369140625	0.00503814697265625	4900.05676862855
0.30975341796875	0.00506805419921875	4900.27802062799
0.314178466796875	0.00509857177734375	4900.49927262743
0.318603515625	0.00512725830078125	4900.72052462687
0.323028564453125	0.00515380859375	4900.94177662631
0.32745361328125	0.0051806640625	4901.16302862575
0.331878662109375	0.00520751953125	4901.38428062519
0.3363037109375	0.0052337646484375	4901.60553262464
0.340728759765625	0.00525970458984375	4901.82678462408
0.34515380859375	0.00528564453125	4902.04803662352
0.349578857421875	0.00531005859375	4902.26928862296
0.35400390625	0.00533355712890625	4902.4905406224
0.358428955078125	0.0053582763671875	4902.71179262184
0.36285400390625	0.0053814697265625	4902.93304462128
0.367279052734375	0.00540557861328125	4903.15429662073
0.3717041015625	0.00542877197265625	4903.37554862017
0.376129150390625	0.005452880859375	4903.59680061961
0.38055419921875	0.00547515869140625	4903.81805261905
0.384979248046875	0.00549835205078125	4904.03930461849
0.389404296875	0.00552154541015625	4904.26055661793
0.393829345703125	0.00554168701171875	4904.48180861737
0.39825439453125	0.005565185546875	4904.70306061682
0.402679443359375	0.00558685302734375	4904.92431261626
0.4071044921875	0.00560943603515625	4905.1455646157
0.411529541015625	0.00563018798828125	4905.36681661514
0.41595458984375	0.00565155029296875	4905.58806861458
0.420379638671875	0.00567291259765625	4905.80932061402
0.4248046875	0.00569183349609375	4906.03057261346
0.429229736328125	0.0057135009765625	4906.2518246129
0.43365478515625	0.00573486328125	4906.47307661235
0.438079833984375	0.00575469970703125	4906.69432861179
0.4425048828125	0.00577484130859375	4906.91558061123
0.446929931640625	0.0057940673828125	4907.13683261067
0.45135498046875	0.00581268310546875	4907.35808461011
0.455780029296875	0.00583221435546875	4907.57933660955
0.460205078125	0.00584930419921875	4907.80058860899
0.464630126953125	0.0058673095703125	4908.02184060844
0.46905517578125	0.00588409423828125	4908.24309260788
0.473480224609375	0.005902099609375	4908.46434460732
0.4779052734375	0.00591827392578125	4908.68559660676
0.482330322265625	0.00593414306640625	4908.9068486062
0.48675537109375	0.00595123291015625	4909.12810060564
0.491180419921875	0.00596588134765625	4909.34935260508
0.49560546875	0.0059820556640625	4909.57060460453
0.500030517578125	0.00599822998046875	4909.79185660397
0.50445556640625	0.00601348876953125	4910.01310860341
0.508880615234375	0.0060211181640625	4910.23436060285
0.5133056640625	0.0060333251953125	4910.45561260229
0.517730712890625	0.0060455322265625	4910.67686460173
0.52215576171875	0.0060577392578125	4910.89811660117
0.526580810546875	0.0060699462890625	4911.11936860062
0.531005859375	0.0060821533203125	4911.34062060006
0.535430908203125	0.006097412109375	4911.5618725995
0.53985595703125	0.0061065673828125	4911.78312459894
0.544281005859375	0.0061187744140625	4912.00437659838
0.5487060546875	0.0061309814453125	4912.22562859782
0.553131103515625	0.0061431884765625	4912.44688059726
0.55755615234375	0.0061553955078125	4912.66813259671
0.561981201171875	0.00616455078125	4912.88938459615
0.56640625	0.0061767578125	4913.11063659559
0.570831298828125	0.0061859130859375	4913.33188859503
0.57525634765625	0.0061981201171875	4913.55314059447
0.579681396484375	0.006207275390625	4913.77439259391
0.5841064453125	0.006219482421875	4913.99564459335
0.588531494140625	0.0062255859375	4914.21689659279
0.59295654296875	0.0062347412109375	4914.43814859224
0.597381591796875	0.0062408447265625	4914.65940059168
0.601806640625	0.00625	4914.88065259112
0.606231689453125	0.0062591552734375	4915.10190459056
0.61065673828125	0.006268310546875	4915.32315659
0.615081787109375	0.0062774658203125	4915.54440858944
0.6195068359375	0.0062835693359375	4915.76566058889
0.623931884765625	0.0062896728515625	4915.98691258833
0.62835693359375	0.006304931640625	4916.20816458777
0.632781982421875	0.00631103515625	4916.42941658721
0.63720703125	0.006317138671875	4916.65066858665
0.641632080078125	0.0063232421875	4916.87192058609
0.64605712890625	0.006329345703125	4917.09317258553
0.650482177734375	0.0063385009765625	4917.31442458497
0.6549072265625	0.0063446044921875	4917.53567658442
0.659332275390625	0.0063507080078125	4917.75692858386
0.66375732421875	0.0063568115234375	4917.9781805833
0.668182373046875	0.0063629150390625	4918.19943258274
0.672607421875	0.0063690185546875	4918.42068458218
0.677032470703125	0.0063751220703125	4918.64193658162
0.68145751953125	0.0063812255859375	4918.86318858106
0.685882568359375	0.0063873291015625	4919.08444058051
0.6903076171875	0.0063934326171875	4919.30569257995
0.694732666015625	0.006396484375	4919.52694457939
0.69915771484375	0.006402587890625	4919.74819657883
0.703582763671875	0.0064117431640625	4919.96944857827
0.7080078125	0.0064178466796875	4920.19070057771
0.712432861328125	0.0064239501953125	4920.41195257715
0.71685791015625	0.00643310546875	4920.6332045766
0.721282958984375	0.006439208984375	4920.85445657604
0.7257080078125	0.0064453125	4921.07570857548
0.730133056640625	0.006451416015625	4921.29696057492
0.73455810546875	0.00645751953125	4921.51821257436
0.738983154296875	0.0064666748046875	4921.7394645738
0.743408203125	0.0064727783203125	4921.96071657324
0.747833251953125	0.00648193359375	4922.18196857269
0.75225830078125	0.006488037109375	4922.40322057213
0.756683349609375	0.0064971923828125	4922.62447257157
0.7611083984375	0.00650634765625	4922.84572457101
0.765533447265625	0.006512451171875	4923.06697657045
0.76995849609375	0.0065216064453125	4923.28822856989
0.774383544921875	0.00653076171875	4923.50948056933
0.77880859375	0.00654296875	4923.73073256878
0.783233642578125	0.0065521240234375	4923.95198456822
0.78765869140625	0.006561279296875	4924.17323656766
0.792083740234375	0.006573486328125	4924.3944885671
0.7965087890625	0.0065826416015625	4924.61574056654
0.800933837890625	0.0065948486328125	4924.83699256598
0.80535888671875	0.0066070556640625	4925.05824456542
0.809783935546875	0.0066192626953125	4925.27949656486
0.814208984375	0.006634521484375	4925.50074856431
0.818634033203125	0.0066497802734375	4925.72200056375
0.82305908203125	0.0066650390625	4925.94325256319
0.827484130859375	0.0066802978515625	4926.16450456263
0.8319091796875	0.006695556640625	4926.38575656207
0.836334228515625	0.0067138671875	4926.60700856151
0.84075927734375	0.006732177734375	4926.82826056095
0.845184326171875	0.00675048828125	4927.0495125604
0.849609375	0.0067718505859375	4927.27076455984
0.854034423828125	0.006793212890625	4927.49201655928
0.85845947265625	0.0068145751953125	4927.71326855872
0.862884521484375	0.0068359375	4927.93452055816
0.8673095703125	0.0068634033203125	4928.1557725576
0.871734619140625	0.0068878173828125	4928.37702455704
0.87615966796875	0.0069183349609375	4928.59827655649
0.880584716796875	0.00694580078125	4928.81952855593
0.885009765625	0.006976318359375	4929.04078055537
0.889434814453125	0.0070068359375	4929.26203255481
0.89385986328125	0.0070404052734375	4929.48328455425
0.898284912109375	0.007073974609375	4929.70453655369
0.9027099609375	0.007110595703125	4929.92578855313
0.907135009765625	0.0071502685546875	4930.14704055258
0.91156005859375	0.0071929931640625	4930.36829255202
0.915985107421875	0.0072357177734375	4930.58954455146
0.92041015625	0.0072784423828125	4930.8107965509
0.924835205078125	0.00732421875	4931.03204855034
0.92926025390625	0.007373046875	4931.25330054978
0.933685302734375	0.0074249267578125	4931.47455254922
0.9381103515625	0.0074798583984375	4931.69580454867
0.942535400390625	0.0075347900390625	4931.91705654811
0.94696044921875	0.0075897216796875	4932.13830854755
0.951385498046875	0.007647705078125	4932.35956054699
0.955810546875	0.007708740234375	4932.58081254643
0.960235595703125	0.007769775390625	4932.80206454587
0.96466064453125	0.007830810546875	4933.02331654531
0.969085693359375	0.00789794921875	4933.24456854475
0.9735107421875	0.0079681396484375	4933.4658205442
0.977935791015625	0.0080352783203125	4933.68707254364
0.98236083984375	0.00810546875	4933.90832454308
0.986785888671875	0.0081817626953125	4934.12957654252
0.9912109375	0.008258056640625	4934.35082854196
