Potential applied (V)	WE(1).Current (A)	Time (s)
0.004425048828125	-0.00133544921875	2484.32742572768
0.00885009765625	-0.0010504150390625	2485.21243572544
0.013275146484375	-0.00081146240234375	2486.09744572321
0.0177001953125	-0.00060760498046875	2486.98245572097
0.022125244140625	-0.0004317626953125	2487.86746571874
0.02655029296875	-0.0002774658203125	2488.7524757165
0.030975341796875	-0.000141632080078125	2489.63748571427
0.035400390625	-2.03033447265625E-05	2490.52249571204
0.039825439453125	8.831787109375E-05	2491.4075057098
0.04425048828125	0.00018585205078125	2492.29251570757
0.048675537109375	0.00027410888671875	2493.17752570533
0.0531005859375	0.00035296630859375	2494.0625357031
0.057525634765625	0.0004248046875	2494.94754570086
0.06195068359375	0.00049005126953125	2495.83255569863
0.066375732421875	0.000549652099609375	2496.71756569639
0.07080078125	0.00060357666015625	2497.60257569416
0.075225830078125	0.00065460205078125	2498.48758569193
0.07965087890625	0.00070098876953125	2499.37259568969
0.084075927734375	0.0007440185546875	2500.25760568746
0.0885009765625	0.00078399658203125	2501.14261568522
0.092926025390625	0.00082183837890625	2502.02762568299
0.09735107421875	0.0008563232421875	2502.91263568075
0.101776123046875	0.00088775634765625	2503.79764567852
0.106201171875	0.0009173583984375	2504.68265567628
0.110626220703125	0.00094451904296875	2505.56766567405
0.11505126953125	0.00097015380859375	2506.45267567182
0.119476318359375	0.00099273681640625	2507.33768566958
0.1239013671875	0.0010162353515625	2508.22269566735
0.128326416015625	0.00103759765625	2509.10770566511
0.13275146484375	0.001058349609375	2509.99271566288
0.137176513671875	0.001077880859375	2510.87772566064
0.1416015625	0.00109588623046875	2511.76273565841
0.146026611328125	0.0011138916015625	2512.64774565617
0.15045166015625	0.0011297607421875	2513.53275565394
0.154876708984375	0.0011456298828125	2514.41776565171
0.1593017578125	0.00116058349609375	2515.30277564947
0.163726806640625	0.00117462158203125	2516.18778564724
0.16815185546875	0.0011883544921875	2517.072795645
0.172576904296875	0.0012017822265625	2517.95780564277
0.177001953125	0.00121368408203125	2518.84281564053
0.181427001953125	0.001226806640625	2519.7278256383
0.18585205078125	0.00123809814453125	2520.61283563606
0.190277099609375	0.00124908447265625	2521.49784563383
0.1947021484375	0.00126007080078125	2522.3828556316
0.199127197265625	0.0012713623046875	2523.26786562936
0.20355224609375	0.00128143310546875	2524.15287562713
0.207977294921875	0.0012921142578125	2525.03788562489
0.21240234375	0.00130157470703125	2525.92289562266
0.216827392578125	0.00131195068359375	2526.80790562042
0.22125244140625	0.0013214111328125	2527.69291561819
0.225677490234375	0.00133056640625	2528.57792561595
0.2301025390625	0.00133941650390625	2529.46293561372
0.234527587890625	0.00134765625	2530.34794561149
0.23895263671875	0.00135711669921875	2531.23295560925
0.243377685546875	0.0013665771484375	2532.11796560702
0.247802734375	0.0013751220703125	2533.00297560478
0.252227783203125	0.00138397216796875	2533.88798560255
0.25665283203125	0.0013916015625	2534.77299560031
0.261077880859375	0.00140045166015625	2535.65800559808
0.2655029296875	0.00140899658203125	2536.54301559584
0.269927978515625	0.00141754150390625	2537.42802559361
0.27435302734375	0.00142578125	2538.31303559138
0.278778076171875	0.00143402099609375	2539.19804558914
0.283203125	0.00144256591796875	2540.08305558691
0.287628173828125	0.00145111083984375	2540.96806558467
0.29205322265625	0.00145965576171875	2541.85307558244
0.296478271484375	0.00146697998046875	2542.7380855802
0.3009033203125	0.00147613525390625	2543.62309557797
0.305328369140625	0.0014837646484375	2544.50810557573
0.30975341796875	0.00149261474609375	2545.3931155735
0.314178466796875	0.00150299072265625	2546.27812557127
0.318603515625	0.0015106201171875	2547.16313556903
0.323028564453125	0.00151824951171875	2548.0481455668
0.32745361328125	0.0015264892578125	2548.93315556456
0.331878662109375	0.001534423828125	2549.81816556233
0.3363037109375	0.0015423583984375	2550.70317556009
0.340728759765625	0.00155120849609375	2551.58818555786
0.34515380859375	0.00155914306640625	2552.47319555562
0.349578857421875	0.00156646728515625	2553.35820555339
0.35400390625	0.001573486328125	2554.24321555116
0.358428955078125	0.0015814208984375	2555.12822554892
0.36285400390625	0.00158935546875	2556.01323554669
0.367279052734375	0.0015972900390625	2556.89824554445
0.3717041015625	0.00160369873046875	2557.78325554222
0.376129150390625	0.00161163330078125	2558.66826553998
0.38055419921875	0.00161773681640625	2559.55327553775
0.384979248046875	0.00162445068359375	2560.43828553551
0.389404296875	0.00162994384765625	2561.32329553328
0.393829345703125	0.00163543701171875	2562.20830553105
0.39825439453125	0.001640625	2563.09331552881
0.402679443359375	0.0016455078125	2563.97832552658
0.4071044921875	0.001650390625	2564.86333552434
0.411529541015625	0.00165496826171875	2565.74834552211
0.41595458984375	0.00165863037109375	2566.63335551987
0.420379638671875	0.00166229248046875	2567.51836551764
0.4248046875	0.0016656494140625	2568.40337551541
0.429229736328125	0.00166900634765625	2569.28838551317
0.43365478515625	0.00167205810546875	2570.17339551094
0.438079833984375	0.0016748046875	2571.0584055087
0.4425048828125	0.00167724609375	2571.94341550647
0.446929931640625	0.00167999267578125	2572.82842550423
0.45135498046875	0.00168243408203125	2573.713435502
0.455780029296875	0.0016839599609375	2574.59844549976
0.460205078125	0.00168548583984375	2575.48345549753
0.464630126953125	0.00168792724609375	2576.36846549529
0.46905517578125	0.001689453125	2577.25347549306
0.473480224609375	0.00169219970703125	2578.13848549083
0.4779052734375	0.00169342041015625	2579.02349548859
0.482330322265625	0.00169464111328125	2579.90850548636
0.48675537109375	0.00169647216796875	2580.79351548412
0.491180419921875	0.0016973876953125	2581.67852548189
0.49560546875	0.0016986083984375	2582.56353547965
0.500030517578125	0.0016998291015625	2583.44854547742
0.50445556640625	0.0016998291015625	2584.33355547518
0.508880615234375	0.0017010498046875	2585.21856547295
0.5133056640625	0.00170166015625	2586.10357547072
0.517730712890625	0.001702880859375	2586.98858546848
0.52215576171875	0.00170379638671875	2587.87359546625
0.526580810546875	0.00170440673828125	2588.75860546401
0.531005859375	0.0017047119140625	2589.64361546178
0.535430908203125	0.00170501708984375	2590.52862545954
0.53985595703125	0.00170501708984375	2591.41363545731
0.544281005859375	0.00170623779296875	2592.29864545508
0.5487060546875	0.001705322265625	2593.18365545284
0.553131103515625	0.001705322265625	2594.06866545061
0.55755615234375	0.001705322265625	2594.95367544837
0.561981201171875	0.0017059326171875	2595.83868544614
0.56640625	0.00170501708984375	2596.7236954439
0.570831298828125	0.0017059326171875	2597.60870544167
0.57525634765625	0.00170501708984375	2598.49371543943
0.579681396484375	0.00170440673828125	2599.3787254372
0.5841064453125	0.0017034912109375	2600.26373543497
0.588531494140625	0.00170257568359375	2601.14874543273
0.59295654296875	0.0017034912109375	2602.0337554305
0.597381591796875	0.0017034912109375	2602.91876542826
0.601806640625	0.0017034912109375	2603.80377542603
0.606231689453125	0.00170440673828125	2604.68878542379
0.61065673828125	0.00170501708984375	2605.57379542156
0.615081787109375	0.0017047119140625	2606.45880541932
0.6195068359375	0.00170623779296875	2607.34381541709
0.623931884765625	0.00170684814453125	2608.22882541486
0.62835693359375	0.0017108154296875	2609.11383541262
0.632781982421875	0.00171173095703125	2609.99884541039
0.63720703125	0.00171142578125	2610.88385540815
0.641632080078125	0.001712646484375	2611.76886540592
0.64605712890625	0.00171478271484375	2612.65387540368
0.650482177734375	0.00171661376953125	2613.53888540145
0.6549072265625	0.00171844482421875	2614.42389539921
0.659332275390625	0.00172119140625	2615.30890539698
0.66375732421875	0.00172393798828125	2616.19391539475
0.668182373046875	0.00172607421875	2617.07892539251
0.672607421875	0.001729736328125	2617.96393539028
0.677032470703125	0.0017333984375	2618.84894538804
0.68145751953125	0.00173797607421875	2619.73395538581
0.685882568359375	0.0017425537109375	2620.61896538357
0.6903076171875	0.001746826171875	2621.50397538134
0.694732666015625	0.00175201416015625	2622.3889853791
0.69915771484375	0.001756591796875	2623.27399537687
0.703582763671875	0.0017620849609375	2624.15900537464
0.7080078125	0.00176910400390625	2625.0440153724
0.712432861328125	0.001776123046875	2625.92902537017
0.71685791015625	0.00178375244140625	2626.81403536793
0.721282958984375	0.0017913818359375	2627.6990453657
0.7257080078125	0.00179931640625	2628.58405536346
0.730133056640625	0.00180816650390625	2629.46906536123
0.73455810546875	0.00181793212890625	2630.35407535899
0.738983154296875	0.0018280029296875	2631.23908535676
0.743408203125	0.00183837890625	2632.12409535453
0.747833251953125	0.00184967041015625	2633.00910535229
0.75225830078125	0.0018621826171875	2633.89411535006
0.756683349609375	0.00187591552734375	2634.77912534782
0.7611083984375	0.0018896484375	2635.66413534559
0.765533447265625	0.0019049072265625	2636.54914534335
0.76995849609375	0.00192138671875	2637.43415534112
0.774383544921875	0.0019384765625	2638.31916533888
0.77880859375	0.0019561767578125	2639.20417533665
0.783233642578125	0.00197509765625	2640.08918533442
0.78765869140625	0.00199554443359375	2640.97419533218
0.792083740234375	0.00201690673828125	2641.85920532995
0.7965087890625	0.0020391845703125	2642.74421532771
0.800933837890625	0.002064208984375	2643.62922532548
0.80535888671875	0.00209075927734375	2644.51423532324
0.809783935546875	0.0021173095703125	2645.39924532101
0.814208984375	0.0021466064453125	2646.28425531877
0.818634033203125	0.00217742919921875	2647.16926531654
0.82305908203125	0.00220947265625	2648.05427531431
0.827484130859375	0.00224395751953125	2648.93928531207
0.8319091796875	0.0022802734375	2649.82429530984
0.836334228515625	0.0023175048828125	2650.7093053076
0.84075927734375	0.00235809326171875	2651.59431530537
0.845184326171875	0.00239990234375	2652.47932530313
0.849609375	0.00244384765625	2653.3643353009
0.854034423828125	0.002490234375	2654.24934529866
0.85845947265625	0.0025384521484375	2655.13435529643
0.862884521484375	0.002587890625	2656.0193652942
0.8673095703125	0.0026409912109375	2656.90437529196
0.871734619140625	0.00269500732421875	2657.78938528973
0.87615966796875	0.00275177001953125	2658.67439528749
0.880584716796875	0.00281036376953125	2659.55940528526
0.885009765625	0.00287109375	2660.44441528302
0.889434814453125	0.00293487548828125	2661.32942528079
0.89385986328125	0.002999267578125	2662.21443527855
0.898284912109375	0.00306610107421875	2663.09944527632
0.9027099609375	0.0031353759765625	2663.98445527409
0.907135009765625	0.003206787109375	2664.86946527185
0.91156005859375	0.00327972412109375	2665.75447526962
0.915985107421875	0.0033544921875	2666.63948526738
0.92041015625	0.00343170166015625	2667.52449526515
0.924835205078125	0.00350982666015625	2668.40950526291
0.92926025390625	0.0035888671875	2669.29451526068
0.933685302734375	0.00367034912109375	2670.17952525844
0.9381103515625	0.00375701904296875	2671.06453525621
0.942535400390625	0.003839111328125	2671.94954525398
0.94696044921875	0.00392425537109375	2672.83455525174
0.951385498046875	0.00401092529296875	2673.71956524951
0.955810546875	0.004097900390625	2674.60457524727
0.960235595703125	0.00418792724609375	2675.48958524504
0.96466064453125	0.00427642822265625	2676.3745952428
0.969085693359375	0.004365234375	2677.25960524057
0.9735107421875	0.00445587158203125	2678.14461523834
0.977935791015625	0.0045458984375	2679.0296252361
0.98236083984375	0.004637451171875	2679.91463523387
0.986785888671875	0.00472900390625	2680.79964523163
0.9912109375	0.0048187255859375	2681.6846552294
0.995635986328125	0.0049090576171875	2682.56966522716
1.00006103515625	0.005001220703125	2683.45467522493
0.995635986328125	0.0043902587890625	2684.33968522269
0.9912109375	0.00387298583984375	2685.22469522046
0.986785888671875	0.0034185791015625	2686.10970521822
0.98236083984375	0.0030120849609375	2686.99471521599
0.977935791015625	0.00264404296875	2687.87972521376
0.9735107421875	0.00230926513671875	2688.76473521152
0.969085693359375	0.00200103759765625	2689.64974520929
0.96466064453125	0.00171661376953125	2690.53475520705
0.960235595703125	0.00145111083984375	2691.41976520482
0.955810546875	0.00120635986328125	2692.30477520258
0.951385498046875	0.000977783203125	2693.18978520035
0.94696044921875	0.000765380859375	2694.07479519811
0.942535400390625	0.00056640625	2694.95980519588
0.9381103515625	0.000380584716796875	2695.84481519365
0.933685302734375	0.00020404052734375	2696.72982519141
0.92926025390625	4.056396484375E-05	2697.61483518918
0.924835205078125	-0.000111114501953125	2698.49984518694
0.92041015625	-0.00025433349609375	2699.38485518471
0.915985107421875	-0.000388519287109375	2700.26986518247
0.91156005859375	-0.00051434326171875	2701.15487518024
0.907135009765625	-0.00063189697265625	2702.03988517801
0.9027099609375	-0.00074249267578125	2702.92489517577
0.898284912109375	-0.0008453369140625	2703.80990517354
0.89385986328125	-0.0009417724609375	2704.6949151713
0.889434814453125	-0.00103118896484375	2705.57992516907
0.885009765625	-0.00111480712890625	2706.46493516683
0.880584716796875	-0.00119293212890625	2707.3499451646
0.87615966796875	-0.0012646484375	2708.23495516236
0.871734619140625	-0.00133270263671875	2709.11996516013
0.8673095703125	-0.001395263671875	2710.0049751579
0.862884521484375	-0.00145111083984375	2710.88998515566
0.85845947265625	-0.00150299072265625	2711.77499515343
0.854034423828125	-0.00155120849609375	2712.66000515119
0.849609375	-0.001595458984375	2713.54501514896
0.845184326171875	-0.00163665771484375	2714.43002514672
0.84075927734375	-0.00167572021484375	2715.31503514449
0.836334228515625	-0.0017083740234375	2716.20004514225
0.8319091796875	-0.0017364501953125	2717.08505514002
0.827484130859375	-0.0017608642578125	2717.97006513779
0.82305908203125	-0.00178253173828125	2718.85507513555
0.818634033203125	-0.00180206298828125	2719.74008513332
0.814208984375	-0.00181884765625	2720.62509513108
0.809783935546875	-0.0018328857421875	2721.51010512885
0.80535888671875	-0.0018450927734375	2722.39511512661
0.800933837890625	-0.0018548583984375	2723.28012512438
0.7965087890625	-0.00186309814453125	2724.16513512214
0.792083740234375	-0.001868896484375	2725.05014511991
0.78765869140625	-0.0018731689453125	2725.93515511768
0.783233642578125	-0.00187530517578125	2726.82016511544
0.77880859375	-0.00187652587890625	2727.70517511321
0.774383544921875	-0.0018768310546875	2728.59018511097
0.76995849609375	-0.0018756103515625	2729.47519510874
0.765533447265625	-0.0018731689453125	2730.3602051065
0.7611083984375	-0.0018707275390625	2731.24521510427
0.756683349609375	-0.001866455078125	2732.13022510203
0.75225830078125	-0.0018621826171875	2733.0152350998
0.747833251953125	-0.001856689453125	2733.90024509757
0.743408203125	-0.0018499755859375	2734.78525509533
0.738983154296875	-0.00184234619140625	2735.6702650931
0.73455810546875	-0.00183563232421875	2736.55527509086
0.730133056640625	-0.0018292236328125	2737.44028508863
0.7257080078125	-0.00182220458984375	2738.32529508639
0.721282958984375	-0.0018145751953125	2739.21030508416
0.71685791015625	-0.00180694580078125	2740.09531508192
0.712432861328125	-0.00179931640625	2740.98032507969
0.7080078125	-0.00179229736328125	2741.86533507746
0.703582763671875	-0.00178436279296875	2742.75034507522
0.69915771484375	-0.00177642822265625	2743.63535507299
0.694732666015625	-0.00176971435546875	2744.52036507075
0.6903076171875	-0.001763916015625	2745.40537506852
0.685882568359375	-0.00175567626953125	2746.29038506628
0.68145751953125	-0.0017486572265625	2747.17539506405
0.677032470703125	-0.00174102783203125	2748.06040506181
0.672607421875	-0.00173431396484375	2748.94541505958
0.668182373046875	-0.00172637939453125	2749.83042505735
0.66375732421875	-0.00171905517578125	2750.71543505511
0.659332275390625	-0.0017120361328125	2751.60044505288
0.6549072265625	-0.0017059326171875	2752.48545505064
0.650482177734375	-0.001700439453125	2753.37046504841
0.64605712890625	-0.0016943359375	2754.25547504617
0.641632080078125	-0.0016888427734375	2755.14048504394
0.63720703125	-0.0016839599609375	2756.0254950417
0.632781982421875	-0.00167877197265625	2756.91050503947
0.62835693359375	-0.00167388916015625	2757.79551503724
0.623931884765625	-0.00167236328125	2758.680525035
0.6195068359375	-0.00166748046875	2759.56553503277
0.615081787109375	-0.00166290283203125	2760.45054503053
0.61065673828125	-0.001658935546875	2761.3355550283
0.606231689453125	-0.00165496826171875	2762.22056502606
0.601806640625	-0.00165130615234375	2763.10557502383
0.597381591796875	-0.00164825439453125	2763.99058502159
0.59295654296875	-0.0016461181640625	2764.87559501936
0.588531494140625	-0.0016436767578125	2765.76060501713
0.5841064453125	-0.00164031982421875	2766.64561501489
0.579681396484375	-0.001639404296875	2767.53062501266
0.57525634765625	-0.00163818359375	2768.41563501042
0.570831298828125	-0.0016363525390625	2769.30064500819
0.56640625	-0.0016363525390625	2770.18565500595
0.561981201171875	-0.0016351318359375	2771.07066500372
0.55755615234375	-0.0016351318359375	2771.95567500148
0.553131103515625	-0.0016339111328125	2772.84068499925
0.5487060546875	-0.00163421630859375	2773.72569499702
0.544281005859375	-0.00163421630859375	2774.61070499478
0.53985595703125	-0.001634521484375	2775.49571499255
0.535430908203125	-0.0016351318359375	2776.38072499031
0.531005859375	-0.00163543701171875	2777.26573498808
0.526580810546875	-0.001636962890625	2778.15074498584
0.52215576171875	-0.00163848876953125	2779.03575498361
0.517730712890625	-0.001639404296875	2779.92076498137
0.5133056640625	-0.00164093017578125	2780.80577497914
0.508880615234375	-0.00164215087890625	2781.69078497691
0.50445556640625	-0.00164337158203125	2782.57579497467
0.500030517578125	-0.00164581298828125	2783.46080497244
0.49560546875	-0.0016473388671875	2784.3458149702
0.491180419921875	-0.0016485595703125	2785.23082496797
0.48675537109375	-0.00165069580078125	2786.11583496573
0.482330322265625	-0.00165283203125	2787.0008449635
0.4779052734375	-0.00165435791015625	2787.88585496127
0.473480224609375	-0.00165618896484375	2788.77086495903
0.46905517578125	-0.0016583251953125	2789.6558749568
0.464630126953125	-0.00166015625	2790.54088495456
0.460205078125	-0.0016619873046875	2791.42589495233
0.455780029296875	-0.001663818359375	2792.31090495009
0.45135498046875	-0.0016656494140625	2793.19591494786
0.446929931640625	-0.00166748046875	2794.08092494562
0.4425048828125	-0.0016693115234375	2794.96593494339
0.438079833984375	-0.00167083740234375	2795.85094494115
0.43365478515625	-0.00167205810546875	2796.73595493892
0.429229736328125	-0.00167388916015625	2797.62096493669
0.4248046875	-0.0016748046875	2798.50597493445
0.420379638671875	-0.00167572021484375	2799.39098493222
0.41595458984375	-0.00167755126953125	2800.27599492998
0.411529541015625	-0.00167877197265625	2801.16100492775
0.4071044921875	-0.00168060302734375	2802.04601492551
0.402679443359375	-0.00168182373046875	2802.93102492328
0.39825439453125	-0.00168304443359375	2803.81603492104
0.393829345703125	-0.00168487548828125	2804.70104491881
0.389404296875	-0.00168548583984375	2805.58605491658
0.384979248046875	-0.00168701171875	2806.47106491434
0.38055419921875	-0.0016888427734375	2807.35607491211
0.376129150390625	-0.001690673828125	2808.24108490987
0.3717041015625	-0.00169158935546875	2809.12609490764
0.367279052734375	-0.0016937255859375	2810.0111049054
0.36285400390625	-0.00169525146484375	2810.89611490317
0.358428955078125	-0.00169708251953125	2811.78112490094
0.35400390625	-0.00169891357421875	2812.6661348987
0.349578857421875	-0.00169891357421875	2813.55114489647
0.34515380859375	-0.00170135498046875	2814.43615489423
0.340728759765625	-0.00170318603515625	2815.321164892
0.3363037109375	-0.001705322265625	2816.20617488976
0.331878662109375	-0.001707763671875	2817.09118488753
0.32745361328125	-0.00170989990234375	2817.97619488529
0.323028564453125	-0.00171173095703125	2818.86120488306
0.318603515625	-0.00171417236328125	2819.74621488083
0.314178466796875	-0.00171630859375	2820.63122487859
0.30975341796875	-0.0017205810546875	2821.51623487636
0.305328369140625	-0.001722412109375	2822.40124487412
0.3009033203125	-0.0017242431640625	2823.28625487189
0.296478271484375	-0.00172607421875	2824.17126486965
0.29205322265625	-0.00172882080078125	2825.05627486742
0.287628173828125	-0.00173095703125	2825.94128486518
0.283203125	-0.0017340087890625	2826.82629486295
0.278778076171875	-0.00173583984375	2827.71130486072
0.27435302734375	-0.00173828125	2828.59631485848
0.269927978515625	-0.00174102783203125	2829.48132485625
0.2655029296875	-0.0017431640625	2830.36633485401
0.261077880859375	-0.00174652099609375	2831.25134485178
0.25665283203125	-0.001749267578125	2832.13635484954
0.252227783203125	-0.00175201416015625	2833.02136484731
0.247802734375	-0.0017547607421875	2833.90637484507
0.243377685546875	-0.00175750732421875	2834.79138484284
0.23895263671875	-0.00176055908203125	2835.67639484061
0.234527587890625	-0.00176422119140625	2836.56140483837
0.2301025390625	-0.00176513671875	2837.44641483614
0.225677490234375	-0.0017694091796875	2838.3314248339
0.22125244140625	-0.00177215576171875	2839.21643483167
0.216827392578125	-0.00177490234375	2840.10144482943
0.21240234375	-0.00177886962890625	2840.9864548272
0.207977294921875	-0.00178253173828125	2841.87146482496
0.20355224609375	-0.00178558349609375	2842.75647482273
0.199127197265625	-0.00178955078125	2843.6414848205
0.1947021484375	-0.00179290771484375	2844.52649481826
0.190277099609375	-0.00179656982421875	2845.41150481603
0.18585205078125	-0.001800537109375	2846.29651481379
0.181427001953125	-0.00180419921875	2847.18152481156
0.177001953125	-0.00180877685546875	2848.06653480932
0.172576904296875	-0.001812744140625	2848.95154480709
0.16815185546875	-0.00181671142578125	2849.83655480485
0.163726806640625	-0.00182159423828125	2850.72156480262
0.1593017578125	-0.00182647705078125	2851.60657480039
0.154876708984375	-0.00183074951171875	2852.49158479815
0.15045166015625	-0.0018365478515625	2853.37659479592
0.146026611328125	-0.001842041015625	2854.26160479368
0.1416015625	-0.0018475341796875	2855.14661479145
0.137176513671875	-0.00185333251953125	2856.03162478921
0.13275146484375	-0.00185943603515625	2856.91663478698
0.128326416015625	-0.00186553955078125	2857.80164478474
0.1239013671875	-0.001871337890625	2858.68665478251
0.119476318359375	-0.00187744140625	2859.57166478028
0.11505126953125	-0.00188262939453125	2860.45667477804
0.110626220703125	-0.00188934326171875	2861.34168477581
0.106201171875	-0.0018963623046875	2862.22669477357
0.101776123046875	-0.00190277099609375	2863.11170477134
0.09735107421875	-0.0019097900390625	2863.9967147691
0.092926025390625	-0.0019171142578125	2864.88172476687
0.0885009765625	-0.0019244384765625	2865.76673476463
0.084075927734375	-0.00193145751953125	2866.6517447624
0.07965087890625	-0.00193878173828125	2867.53675476017
0.075225830078125	-0.00194610595703125	2868.42176475793
0.07080078125	-0.00195343017578125	2869.3067747557
0.066375732421875	-0.00196075439453125	2870.19178475346
0.06195068359375	-0.00196929931640625	2871.07679475123
0.057525634765625	-0.00197662353515625	2871.96180474899
0.0531005859375	-0.00198455810546875	2872.84681474676
0.048675537109375	-0.00199310302734375	2873.73182474452
0.04425048828125	-0.0020025634765625	2874.61683474229
0.039825439453125	-0.00201141357421875	2875.50184474006
0.035400390625	-0.002020263671875	2876.38685473782
0.030975341796875	-0.00202911376953125	2877.27186473559
0.02655029296875	-0.00203826904296875	2878.15687473335
0.022125244140625	-0.00204864501953125	2879.04188473112
0.0177001953125	-0.00205963134765625	2879.92689472888
0.013275146484375	-0.00207122802734375	2880.81190472665
0.00885009765625	-0.00208251953125	2881.69691472441
0.004425048828125	-0.0020941162109375	2882.58192472218
0	-0.00210723876953125	2883.46693471995
0.004425048828125	-0.0015277099609375	2884.35194471771
0.00885009765625	-0.0010955810546875	2885.23695471548
0.013275146484375	-0.000760498046875	2886.12196471324
0.0177001953125	-0.000491729736328125	2887.00697471101
0.022125244140625	-0.000272552490234375	2887.89198470877
0.02655029296875	-9.0301513671875E-05	2888.77699470654
0.030975341796875	6.28662109375E-05	2889.6620047043
0.035400390625	0.0001934814453125	2890.54701470207
0.039825439453125	0.0003070068359375	2891.43202469984
0.04425048828125	0.000404815673828125	2892.3170346976
0.048675537109375	0.00048846435546875	2893.20204469537
0.0531005859375	0.00056243896484375	2894.08705469313
0.057525634765625	0.000627532958984375	2894.9720646909
0.06195068359375	0.00068634033203125	2895.85707468866
0.066375732421875	0.0007379150390625	2896.74208468643
0.07080078125	0.000784912109375	2897.6270946842
0.075225830078125	0.00082794189453125	2898.51210468196
0.07965087890625	0.0008660888671875	2899.39711467973
0.084075927734375	0.00090179443359375	2900.28212467749
0.0885009765625	0.00093475341796875	2901.16713467526
0.092926025390625	0.00096466064453125	2902.05214467302
0.09735107421875	0.0009918212890625	2902.93715467079
0.101776123046875	0.00101654052734375	2903.82216466855
0.106201171875	0.00103973388671875	2904.70717466632
0.110626220703125	0.00106201171875	2905.59218466408
0.11505126953125	0.0010821533203125	2906.47719466185
0.119476318359375	0.0010992431640625	2907.36220465962
0.1239013671875	0.00111724853515625	2908.24721465738
0.128326416015625	0.001134033203125	2909.13222465515
0.13275146484375	0.0011505126953125	2910.01723465291
0.137176513671875	0.00116546630859375	2910.90224465068
0.1416015625	0.00117950439453125	2911.78725464844
0.146026611328125	0.00119293212890625	2912.67226464621
0.15045166015625	0.00120574951171875	2913.55727464397
0.154876708984375	0.00121826171875	2914.44228464174
0.1593017578125	0.00122955322265625	2915.32729463951
0.163726806640625	0.0012408447265625	2916.21230463727
0.16815185546875	0.0012518310546875	2917.09731463504
0.172576904296875	0.0012628173828125	2917.9823246328
0.177001953125	0.0012725830078125	2918.86733463057
0.181427001953125	0.00128265380859375	2919.75234462833
0.18585205078125	0.00129180908203125	2920.6373546261
0.190277099609375	0.0013018798828125	2921.52236462387
0.1947021484375	0.00131103515625	2922.40737462163
0.199127197265625	0.00131988525390625	2923.2923846194
0.20355224609375	0.00132843017578125	2924.17739461716
0.207977294921875	0.0013372802734375	2925.06240461493
0.21240234375	0.0013458251953125	2925.94741461269
0.216827392578125	0.00135467529296875	2926.83242461046
0.22125244140625	0.001363525390625	2927.71743460822
0.225677490234375	0.00137115478515625	2928.60244460599
0.2301025390625	0.0013787841796875	2929.48745460376
0.234527587890625	0.00138580322265625	2930.37246460152
0.23895263671875	0.00139404296875	2931.25747459929
0.243377685546875	0.00140228271484375	2932.14248459705
0.247802734375	0.00141021728515625	2933.02749459482
0.252227783203125	0.0014178466796875	2933.91250459258
0.25665283203125	0.00142608642578125	2934.79751459035
0.261077880859375	0.00143310546875	2935.68252458811
0.2655029296875	0.0014410400390625	2936.56753458588
0.269927978515625	0.00144866943359375	2937.45254458365
0.27435302734375	0.00145599365234375	2938.33755458141
0.278778076171875	0.00146392822265625	2939.22256457918
0.283203125	0.0014715576171875	2940.10757457694
0.287628173828125	0.00147979736328125	2940.99258457471
0.29205322265625	0.00148712158203125	2941.87759457247
0.296478271484375	0.00149505615234375	2942.76260457024
0.3009033203125	0.001502685546875	2943.647614568
0.305328369140625	0.00151092529296875	2944.53262456577
0.30975341796875	0.0015185546875	2945.41763456354
0.314178466796875	0.00152862548828125	2946.3026445613
0.318603515625	0.00153564453125	2947.18765455907
0.323028564453125	0.00154327392578125	2948.07266455683
0.32745361328125	0.0015509033203125	2948.9576745546
0.331878662109375	0.00155914306640625	2949.84268455236
0.3363037109375	0.00156646728515625	2950.72769455013
0.340728759765625	0.00157470703125	2951.61270454789
0.34515380859375	0.00158233642578125	2952.49771454566
0.349578857421875	0.00159027099609375	2953.38272454343
0.35400390625	0.0015966796875	2954.26773454119
0.358428955078125	0.00160400390625	2955.15274453896
0.36285400390625	0.001612548828125	2956.03775453672
0.367279052734375	0.00162017822265625	2956.92276453449
0.3717041015625	0.0016278076171875	2957.80777453225
0.376129150390625	0.00163543701171875	2958.69278453002
0.38055419921875	0.00164276123046875	2959.57779452778
0.384979248046875	0.001649169921875	2960.46280452555
0.389404296875	0.0016558837890625	2961.34781452332
0.393829345703125	0.00166168212890625	2962.23282452108
0.39825439453125	0.00166717529296875	2963.11783451885
0.402679443359375	0.00167327880859375	2964.00284451661
0.4071044921875	0.001678466796875	2964.88785451438
0.411529541015625	0.0016839599609375	2965.77286451214
0.41595458984375	0.00168914794921875	2966.65787450991
0.420379638671875	0.0016937255859375	2967.54288450767
0.4248046875	0.00169830322265625	2968.42789450544
0.429229736328125	0.00170257568359375	2969.31290450321
0.43365478515625	0.00170684814453125	2970.19791450097
0.438079833984375	0.00171051025390625	2971.08292449874
0.4425048828125	0.0017138671875	2971.9679344965
0.446929931640625	0.0017181396484375	2972.85294449427
0.45135498046875	0.00172119140625	2973.73795449203
0.455780029296875	0.00172454833984375	2974.6229644898
0.460205078125	0.00172821044921875	2975.50797448756
0.464630126953125	0.00173126220703125	2976.39298448533
0.46905517578125	0.0017340087890625	2977.2779944831
0.473480224609375	0.0017376708984375	2978.16300448086
0.4779052734375	0.00174072265625	2979.04801447863
0.482330322265625	0.0017437744140625	2979.93302447639
0.48675537109375	0.00174591064453125	2980.81803447416
0.491180419921875	0.0017474365234375	2981.70304447192
0.49560546875	0.001749267578125	2982.58805446969
0.500030517578125	0.00175140380859375	2983.47306446745
0.50445556640625	0.0017529296875	2984.35807446522
0.508880615234375	0.00175445556640625	2985.24308446299
0.5133056640625	0.0017559814453125	2986.12809446075
0.517730712890625	0.00175689697265625	2987.01310445852
0.52215576171875	0.0017584228515625	2987.89811445628
0.526580810546875	0.00175933837890625	2988.78312445405
0.531005859375	0.00175994873046875	2989.66813445181
0.535430908203125	0.00176025390625	2990.55314444958
0.53985595703125	0.0017608642578125	2991.43815444734
0.544281005859375	0.00176177978515625	2992.32316444511
0.5487060546875	0.00176116943359375	2993.20817444288
0.553131103515625	0.00176177978515625	2994.09318444064
0.55755615234375	0.0017626953125	2994.97819443841
0.561981201171875	0.0017626953125	2995.86320443617
0.56640625	0.00176300048828125	2996.74821443394
0.570831298828125	0.0017633056640625	2997.6332244317
0.57525634765625	0.0017633056640625	2998.51823442947
0.579681396484375	0.00176361083984375	2999.40324442723
0.5841064453125	0.001763916015625	3000.288254425
0.588531494140625	0.0017626953125	3001.17326442277
0.59295654296875	0.0017633056640625	3002.05827442053
0.597381591796875	0.0017645263671875	3002.9432844183
0.601806640625	0.00176483154296875	3003.82829441606
0.606231689453125	0.0017657470703125	3004.71330441383
0.61065673828125	0.001766357421875	3005.59831441159
0.615081787109375	0.0017669677734375	3006.48332440936
0.6195068359375	0.00176849365234375	3007.36833440713
0.623931884765625	0.00176971435546875	3008.25334440489
0.62835693359375	0.00177398681640625	3009.13835440266
0.632781982421875	0.0017742919921875	3010.02336440042
0.63720703125	0.0017755126953125	3010.90837439819
0.641632080078125	0.00177642822265625	3011.79338439595
0.64605712890625	0.00177764892578125	3012.67839439372
0.650482177734375	0.00177978515625	3013.56340439148
0.6549072265625	0.00178070068359375	3014.44841438925
0.659332275390625	0.0017840576171875	3015.33342438701
0.66375732421875	0.001785888671875	3016.21843438478
0.668182373046875	0.001788330078125	3017.10344438255
0.672607421875	0.00179168701171875	3017.98845438031
0.677032470703125	0.00179443359375	3018.87346437808
0.68145751953125	0.00179718017578125	3019.75847437584
0.685882568359375	0.00180145263671875	3020.64348437361
0.6903076171875	0.0018048095703125	3021.52849437137
0.694732666015625	0.00180938720703125	3022.41350436914
0.69915771484375	0.00181427001953125	3023.2985143669
0.703582763671875	0.001817626953125	3024.18352436467
0.7080078125	0.0018231201171875	3025.06853436244
0.712432861328125	0.0018292236328125	3025.9535443602
0.71685791015625	0.00183502197265625	3026.83855435797
0.721282958984375	0.0018408203125	3027.72356435573
0.7257080078125	0.0018487548828125	3028.6085743535
0.730133056640625	0.00185546875	3029.49358435126
0.73455810546875	0.00186309814453125	3030.37859434903
0.738983154296875	0.00187225341796875	3031.2636043468
0.743408203125	0.0018792724609375	3032.14861434456
0.747833251953125	0.001888427734375	3033.03362434233
0.75225830078125	0.00189910888671875	3033.91863434009
0.756683349609375	0.0019097900390625	3034.80364433786
0.7611083984375	0.00192138671875	3035.68865433562
0.765533447265625	0.0019329833984375	3036.57366433339
0.76995849609375	0.00194549560546875	3037.45867433115
0.774383544921875	0.00195892333984375	3038.34368432892
0.77880859375	0.0019732666015625	3039.22869432669
0.783233642578125	0.00198822021484375	3040.11370432445
0.78765869140625	0.00200439453125	3040.99871432222
0.792083740234375	0.002021484375	3041.88372431998
0.7965087890625	0.0020391845703125	3042.76873431775
0.800933837890625	0.00205902099609375	3043.65374431551
0.80535888671875	0.0020794677734375	3044.53875431328
0.809783935546875	0.00210174560546875	3045.42376431104
0.814208984375	0.00212493896484375	3046.30877430881
0.818634033203125	0.0021490478515625	3047.19378430658
0.82305908203125	0.0021746826171875	3048.07879430434
0.827484130859375	0.00220184326171875	3048.96380430211
0.8319091796875	0.00223052978515625	3049.84881429987
0.836334228515625	0.0022601318359375	3050.73382429764
0.84075927734375	0.00229217529296875	3051.6188342954
0.845184326171875	0.002325439453125	3052.50384429317
0.849609375	0.002359619140625	3053.38885429093
0.854034423828125	0.0023968505859375	3054.2738642887
0.85845947265625	0.00243499755859375	3055.15887428647
0.862884521484375	0.0024737548828125	3056.04388428423
0.8673095703125	0.00251617431640625	3056.928894282
0.871734619140625	0.0025592041015625	3057.81390427976
0.87615966796875	0.0026043701171875	3058.69891427753
0.880584716796875	0.0026513671875	3059.58392427529
0.885009765625	0.0026995849609375	3060.46893427306
0.889434814453125	0.002750244140625	3061.35394427082
0.89385986328125	0.00280120849609375	3062.23895426859
0.898284912109375	0.00285400390625	3063.12396426636
0.9027099609375	0.00291015625	3064.00897426412
0.907135009765625	0.00296661376953125	3064.89398426189
0.91156005859375	0.00302398681640625	3065.77899425965
0.915985107421875	0.00308380126953125	3066.66400425742
0.92041015625	0.00314544677734375	3067.54901425518
0.924835205078125	0.0032086181640625	3068.43402425295
0.92926025390625	0.00327301025390625	3069.31903425071
0.933685302734375	0.00333831787109375	3070.20404424848
0.9381103515625	0.00340850830078125	3071.08905424625
0.942535400390625	0.0034765625	3071.97406424401
0.94696044921875	0.00354583740234375	3072.85907424178
0.951385498046875	0.00361541748046875	3073.74408423954
0.955810546875	0.00368621826171875	3074.62909423731
0.960235595703125	0.0037591552734375	3075.51410423507
0.96466064453125	0.00383392333984375	3076.39911423284
0.969085693359375	0.0039068603515625	3077.2841242306
0.9735107421875	0.003983154296875	3078.16913422837
0.977935791015625	0.00405548095703125	3079.05414422614
0.98236083984375	0.00413238525390625	3079.9391542239
0.986785888671875	0.0042108154296875	3080.82416422167
0.9912109375	0.00428863525390625	3081.70917421943
0.995635986328125	0.004366455078125	3082.5941842172
1.00006103515625	0.004442138671875	3083.47919421496
0.995635986328125	0.00383636474609375	3084.36420421273
0.9912109375	0.00333038330078125	3085.24921421049
0.986785888671875	0.0028912353515625	3086.13422420826
0.98236083984375	0.00250335693359375	3087.01923420603
0.977935791015625	0.0021563720703125	3087.90424420379
0.9735107421875	0.00184417724609375	3088.78925420156
0.969085693359375	0.0015582275390625	3089.67426419932
0.96466064453125	0.00129638671875	3090.55927419709
0.960235595703125	0.001055908203125	3091.44428419485
0.955810546875	0.0008343505859375	3092.32929419262
0.951385498046875	0.000628662109375	3093.21430419038
0.94696044921875	0.00043792724609375	3094.09931418815
0.942535400390625	0.000260467529296875	3094.98432418592
0.9381103515625	9.5550537109375E-05	3095.86933418368
0.933685302734375	-6.0211181640625E-05	3096.75434418145
0.92926025390625	-0.000203216552734375	3097.63935417921
0.924835205078125	-0.00033636474609375	3098.52436417698
0.92041015625	-0.00046160888671875	3099.40937417474
0.915985107421875	-0.00057818603515625	3100.29438417251
0.91156005859375	-0.00068682861328125	3101.17939417027
0.907135009765625	-0.00078857421875	3102.06440416804
0.9027099609375	-0.0008837890625	3102.94941416581
0.898284912109375	-0.00097137451171875	3103.83442416357
0.89385986328125	-0.0010540771484375	3104.71943416134
0.889434814453125	-0.00113067626953125	3105.6044441591
0.885009765625	-0.00120208740234375	3106.48945415687
0.880584716796875	-0.0012677001953125	3107.37446415463
0.87615966796875	-0.0013287353515625	3108.2594741524
0.871734619140625	-0.00138519287109375	3109.14448415016
0.8673095703125	-0.0014373779296875	3110.02949414793
0.862884521484375	-0.00148468017578125	3110.9145041457
0.85845947265625	-0.0015283203125	3111.79951414346
0.854034423828125	-0.00156829833984375	3112.68452414123
0.849609375	-0.00160430908203125	3113.56953413899
0.845184326171875	-0.00163665771484375	3114.45454413676
0.84075927734375	-0.001666259765625	3115.33955413452
0.836334228515625	-0.00169342041015625	3116.22456413229
0.8319091796875	-0.00171661376953125	3117.10957413006
0.827484130859375	-0.0017364501953125	3117.99458412782
0.82305908203125	-0.00175506591796875	3118.87959412559
0.818634033203125	-0.00177032470703125	3119.76460412335
0.814208984375	-0.0017828369140625	3120.64961412112
0.809783935546875	-0.00179351806640625	3121.53462411888
0.80535888671875	-0.00180206298828125	3122.41963411665
0.800933837890625	-0.00180908203125	3123.30464411441
0.7965087890625	-0.0018133544921875	3124.18965411218
0.792083740234375	-0.00181671142578125	3125.07466410994
0.78765869140625	-0.00181793212890625	3125.95967410771
0.783233642578125	-0.0018182373046875	3126.84468410548
0.77880859375	-0.0018170166015625	3127.72969410324
0.774383544921875	-0.001815185546875	3128.61470410101
0.76995849609375	-0.00181243896484375	3129.49971409877
0.765533447265625	-0.001807861328125	3130.38472409654
0.7611083984375	-0.0018035888671875	3131.2697340943
0.756683349609375	-0.001798095703125	3132.15474409207
0.75225830078125	-0.00179229736328125	3133.03975408983
0.747833251953125	-0.00178619384765625	3133.9247640876
0.743408203125	-0.001778564453125	3134.80977408537
0.738983154296875	-0.00177093505859375	3135.69478408313
0.73455810546875	-0.00176422119140625	3136.5797940809
0.730133056640625	-0.00175628662109375	3137.46480407866
0.7257080078125	-0.00174896240234375	3138.34981407643
0.721282958984375	-0.001741943359375	3139.23482407419
0.71685791015625	-0.00173492431640625	3140.11983407196
0.712432861328125	-0.0017266845703125	3141.00484406973
0.7080078125	-0.00171875	3141.88985406749
0.703582763671875	-0.0017120361328125	3142.77486406526
0.69915771484375	-0.0017034912109375	3143.65987406302
0.694732666015625	-0.00169677734375	3144.54488406079
0.6903076171875	-0.00168975830078125	3145.42989405855
0.685882568359375	-0.00168304443359375	3146.31490405632
0.68145751953125	-0.0016766357421875	3147.19991405408
0.677032470703125	-0.001669921875	3148.08492405185
0.672607421875	-0.001663818359375	3148.96993404962
0.668182373046875	-0.00165740966796875	3149.85494404738
0.66375732421875	-0.001651611328125	3150.73995404515
0.659332275390625	-0.001646728515625	3151.62496404291
0.6549072265625	-0.00164215087890625	3152.50997404068
0.650482177734375	-0.001636962890625	3153.39498403844
0.64605712890625	-0.0016326904296875	3154.27999403621
0.641632080078125	-0.00162841796875	3155.16500403397
0.63720703125	-0.001624755859375	3156.05001403174
0.632781982421875	-0.00162078857421875	3156.93502402951
0.62835693359375	-0.00161834716796875	3157.82003402727
0.623931884765625	-0.00161773681640625	3158.70504402504
0.6195068359375	-0.0016143798828125	3159.5900540228
0.615081787109375	-0.0016119384765625	3160.47506402057
0.61065673828125	-0.0016094970703125	3161.36007401833
0.606231689453125	-0.0016070556640625	3162.2450840161
0.601806640625	-0.00160614013671875	3163.13009401386
0.597381591796875	-0.0016046142578125	3164.01510401163
0.59295654296875	-0.0016033935546875	3164.9001140094
0.588531494140625	-0.0016033935546875	3165.78512400716
0.5841064453125	-0.00160186767578125	3166.67013400493
0.579681396484375	-0.00160247802734375	3167.55514400269
0.57525634765625	-0.0016033935546875	3168.44015400046
0.570831298828125	-0.00160400390625	3169.32516399822
0.56640625	-0.001605224609375	3170.21017399599
0.561981201171875	-0.00160614013671875	3171.09518399375
0.55755615234375	-0.00160797119140625	3171.98019399152
0.553131103515625	-0.0016094970703125	3172.86520398929
0.5487060546875	-0.00161163330078125	3173.75021398705
0.544281005859375	-0.0016131591796875	3174.63522398482
0.53985595703125	-0.0016156005859375	3175.52023398258
0.535430908203125	-0.0016180419921875	3176.40524398035
0.531005859375	-0.00162078857421875	3177.29025397811
0.526580810546875	-0.0016241455078125	3178.17526397588
0.52215576171875	-0.001627197265625	3179.06027397364
0.517730712890625	-0.00163055419921875	3179.94528397141
0.5133056640625	-0.00163330078125	3180.83029396918
0.508880615234375	-0.001636962890625	3181.71530396694
0.50445556640625	-0.00164031982421875	3182.60031396471
0.500030517578125	-0.0016436767578125	3183.48532396247
0.49560546875	-0.0016473388671875	3184.37033396024
0.491180419921875	-0.00165069580078125	3185.255343958
0.48675537109375	-0.00165374755859375	3186.14035395577
0.482330322265625	-0.00165771484375	3187.02536395353
0.4779052734375	-0.00166046142578125	3187.9103739513
0.473480224609375	-0.00166412353515625	3188.79538394907
0.46905517578125	-0.00166778564453125	3189.68039394683
0.464630126953125	-0.00167022705078125	3190.5654039446
0.460205078125	-0.0016741943359375	3191.45041394236
0.455780029296875	-0.00167694091796875	3192.33542394013
0.45135498046875	-0.00167938232421875	3193.22043393789
0.446929931640625	-0.00168212890625	3194.10544393566
0.4425048828125	-0.00168487548828125	3194.99045393342
0.438079833984375	-0.00168731689453125	3195.87546393119
0.43365478515625	-0.00168853759765625	3196.76047392896
0.429229736328125	-0.00169097900390625	3197.64548392672
0.4248046875	-0.001693115234375	3198.53049392449
0.420379638671875	-0.0016949462890625	3199.41550392225
0.41595458984375	-0.0016961669921875	3200.30051392002
0.411529541015625	-0.00169830322265625	3201.18552391778
0.4071044921875	-0.00169952392578125	3202.07053391555
0.402679443359375	-0.0017010498046875	3202.95554391331
0.39825439453125	-0.001702880859375	3203.84055391108
0.393829345703125	-0.0017041015625	3204.72556390885
0.389404296875	-0.00170501708984375	3205.61057390661
0.384979248046875	-0.00170623779296875	3206.49558390438
0.38055419921875	-0.0017071533203125	3207.38059390214
0.376129150390625	-0.0017083740234375	3208.26560389991
0.3717041015625	-0.001710205078125	3209.15061389767
0.367279052734375	-0.00171112060546875	3210.03562389544
0.36285400390625	-0.0017120361328125	3210.9206338932
0.358428955078125	-0.001712646484375	3211.80564389097
0.35400390625	-0.0017138671875	3212.69065388874
0.349578857421875	-0.00171356201171875	3213.5756638865
0.34515380859375	-0.00171478271484375	3214.46067388427
0.340728759765625	-0.00171630859375	3215.34568388203
0.3363037109375	-0.0017181396484375	3216.2306938798
0.331878662109375	-0.0017193603515625	3217.11570387756
0.32745361328125	-0.0017205810546875	3218.00071387533
0.323028564453125	-0.00172149658203125	3218.88572387309
0.318603515625	-0.001722412109375	3219.77073387086
0.314178466796875	-0.00172454833984375	3220.65574386863
0.30975341796875	-0.001727294921875	3221.54075386639
0.305328369140625	-0.0017291259765625	3222.42576386416
0.3009033203125	-0.00173004150390625	3223.31077386192
0.296478271484375	-0.00173095703125	3224.19578385969
0.29205322265625	-0.00173309326171875	3225.08079385745
0.287628173828125	-0.001734619140625	3225.96580385522
0.283203125	-0.00173614501953125	3226.85081385299
0.278778076171875	-0.0017376708984375	3227.73582385075
0.27435302734375	-0.00173980712890625	3228.62083384852
0.269927978515625	-0.001741943359375	3229.50584384628
0.2655029296875	-0.0017437744140625	3230.39085384405
0.261077880859375	-0.00174530029296875	3231.27586384181
0.25665283203125	-0.00174774169921875	3232.16087383958
0.252227783203125	-0.00174957275390625	3233.04588383734
0.247802734375	-0.001751708984375	3233.93089383511
0.243377685546875	-0.001754150390625	3234.81590383287
0.23895263671875	-0.00175628662109375	3235.70091383064
0.234527587890625	-0.00175872802734375	3236.58592382841
0.2301025390625	-0.00176055908203125	3237.47093382617
0.225677490234375	-0.0017626953125	3238.35594382394
0.22125244140625	-0.00176483154296875	3239.2409538217
0.216827392578125	-0.00176788330078125	3240.12596381947
0.21240234375	-0.00177001953125	3241.01097381723
0.207977294921875	-0.0017730712890625	3241.895983815
0.20355224609375	-0.0017755126953125	3242.78099381276
0.199127197265625	-0.001778564453125	3243.66600381053
0.1947021484375	-0.00178192138671875	3244.5510138083
0.190277099609375	-0.00178436279296875	3245.43602380606
0.18585205078125	-0.00178802490234375	3246.32103380383
0.181427001953125	-0.00179107666015625	3247.20604380159
0.177001953125	-0.00179443359375	3248.09105379936
0.172576904296875	-0.001798095703125	3248.97606379712
0.16815185546875	-0.0018017578125	3249.86107379489
0.163726806640625	-0.001805419921875	3250.74608379266
0.1593017578125	-0.00180908203125	3251.63109379042
0.154876708984375	-0.00181304931640625	3252.51610378819
0.15045166015625	-0.001817626953125	3253.40111378595
0.146026611328125	-0.00182220458984375	3254.28612378372
0.1416015625	-0.0018267822265625	3255.17113378148
0.137176513671875	-0.0018316650390625	3256.05614377925
0.13275146484375	-0.00183685302734375	3256.94115377701
0.128326416015625	-0.001842041015625	3257.82616377478
0.1239013671875	-0.0018475341796875	3258.71117377255
0.119476318359375	-0.00185302734375	3259.59618377031
0.11505126953125	-0.00185791015625	3260.48119376808
0.110626220703125	-0.0018646240234375	3261.36620376584
0.106201171875	-0.00187042236328125	3262.25121376361
0.101776123046875	-0.0018768310546875	3263.13622376137
0.09735107421875	-0.00188385009765625	3264.02123375914
0.092926025390625	-0.00189056396484375	3264.9062437569
0.0885009765625	-0.001898193359375	3265.79125375467
0.084075927734375	-0.001905517578125	3266.67626375244
0.07965087890625	-0.001912841796875	3267.5612737502
0.075225830078125	-0.0019195556640625	3268.44628374797
0.07080078125	-0.001927490234375	3269.33129374573
0.066375732421875	-0.00193603515625	3270.2163037435
0.06195068359375	-0.00194427490234375	3271.10131374126
0.057525634765625	-0.00195281982421875	3271.98632373903
0.0531005859375	-0.00196197509765625	3272.87133373679
0.048675537109375	-0.00197113037109375	3273.75634373456
0.04425048828125	-0.00198028564453125	3274.64135373233
0.039825439453125	-0.00199066162109375	3275.52636373009
0.035400390625	-0.00200103759765625	3276.41137372786
0.030975341796875	-0.00201141357421875	3277.29638372562
0.02655029296875	-0.002022705078125	3278.18139372339
0.022125244140625	-0.00203369140625	3279.06640372115
0.0177001953125	-0.0020465087890625	3279.95141371892
0.013275146484375	-0.00205902099609375	3280.83642371668
0.00885009765625	-0.00207244873046875	3281.72143371445
0.004425048828125	-0.0020867919921875	3282.60644371222
0	-0.00210113525390625	3283.49145370998
0.004425048828125	-0.00152374267578125	3284.37646370775
0.00885009765625	-0.00109161376953125	3285.26147370551
0.013275146484375	-0.00075469970703125	3286.14648370328
0.0177001953125	-0.00048455810546875	3287.03149370104
0.022125244140625	-0.000264068603515625	3287.91650369881
0.02655029296875	-8.038330078125E-05	3288.80151369657
0.030975341796875	7.4462890625E-05	3289.68652369434
0.035400390625	0.000206634521484375	3290.57153369211
0.039825439453125	0.000321746826171875	3291.45654368987
0.04425048828125	0.000420379638671875	3292.34155368764
0.048675537109375	0.00050518798828125	3293.2265636854
0.0531005859375	0.000580047607421875	3294.11157368317
0.057525634765625	0.000646697998046875	3294.99658368093
0.06195068359375	0.00070587158203125	3295.8815936787
0.066375732421875	0.000758056640625	3296.76660367646
0.07080078125	0.0008056640625	3297.65161367423
0.075225830078125	0.00084930419921875	3298.536623672
0.07965087890625	0.0008880615234375	3299.42163366976
0.084075927734375	0.000924072265625	3300.30664366753
0.0885009765625	0.00095611572265625	3301.19165366529
0.092926025390625	0.00098724365234375	3302.07666366306
0.09735107421875	0.001014404296875	3302.96167366082
0.101776123046875	0.0010400390625	3303.84668365859
0.106201171875	0.001063232421875	3304.73169365635
0.110626220703125	0.00108489990234375	3305.61670365412
0.11505126953125	0.00110443115234375	3306.50171365189
0.119476318359375	0.001121826171875	3307.38672364965
0.1239013671875	0.00114044189453125	3308.27173364742
0.128326416015625	0.00115692138671875	3309.15674364518
0.13275146484375	0.0011724853515625	3310.04175364295
0.137176513671875	0.0011871337890625	3310.92676364071
0.1416015625	0.00120086669921875	3311.81177363848
0.146026611328125	0.0012139892578125	3312.69678363624
0.15045166015625	0.00122650146484375	3313.58179363401
0.154876708984375	0.00123870849609375	3314.46680363178
0.1593017578125	0.0012493896484375	3315.35181362954
0.163726806640625	0.00126007080078125	3316.23682362731
0.16815185546875	0.0012701416015625	3317.12183362507
0.172576904296875	0.001280517578125	3318.00684362284
0.177001953125	0.00128997802734375	3318.8918536206
0.181427001953125	0.00129974365234375	3319.77686361837
0.18585205078125	0.00130828857421875	3320.66187361613
0.190277099609375	0.00131744384765625	3321.5468836139
0.1947021484375	0.00132537841796875	3322.43189361167
0.199127197265625	0.00133392333984375	3323.31690360943
0.20355224609375	0.001341552734375	3324.2019136072
0.207977294921875	0.0013494873046875	3325.08692360496
0.21240234375	0.00135772705078125	3325.97193360273
0.216827392578125	0.0013653564453125	3326.85694360049
0.22125244140625	0.00137298583984375	3327.74195359826
0.225677490234375	0.00138031005859375	3328.62696359602
0.2301025390625	0.00138763427734375	3329.51197359379
0.234527587890625	0.00139373779296875	3330.39698359156
0.23895263671875	0.0014013671875	3331.28199358932
0.243377685546875	0.0014080810546875	3332.16700358709
0.247802734375	0.00141571044921875	3333.05201358485
0.252227783203125	0.00142303466796875	3333.93702358262
0.25665283203125	0.001429443359375	3334.82203358038
0.261077880859375	0.00143646240234375	3335.70704357815
0.2655029296875	0.00144287109375	3336.59205357592
0.269927978515625	0.00144989013671875	3337.47706357368
0.27435302734375	0.001456298828125	3338.36207357145
0.278778076171875	0.00146331787109375	3339.24708356921
0.283203125	0.0014703369140625	3340.13209356698
0.287628173828125	0.00147705078125	3341.01710356474
0.29205322265625	0.00148468017578125	3341.90211356251
0.296478271484375	0.0014910888671875	3342.78712356027
0.3009033203125	0.00149749755859375	3343.67213355804
0.305328369140625	0.00150482177734375	3344.5571435558
0.30975341796875	0.00151214599609375	3345.44215355357
0.314178466796875	0.00152130126953125	3346.32716355134
0.318603515625	0.0015277099609375	3347.2121735491
0.323028564453125	0.001534423828125	3348.09718354687
0.32745361328125	0.00154144287109375	3348.98219354463
0.331878662109375	0.001549072265625	3349.8672035424
0.3363037109375	0.00155548095703125	3350.75221354016
0.340728759765625	0.0015625	3351.63722353793
0.34515380859375	0.00157012939453125	3352.52223353569
0.349578857421875	0.0015765380859375	3353.40724353346
0.35400390625	0.0015826416015625	3354.29225353123
0.358428955078125	0.00158935546875	3355.17726352899
0.36285400390625	0.0015960693359375	3356.06227352676
0.367279052734375	0.00160400390625	3356.94728352452
0.3717041015625	0.00161102294921875	3357.83229352229
0.376129150390625	0.001617431640625	3358.71730352005
0.38055419921875	0.001624755859375	3359.60231351782
0.384979248046875	0.001630859375	3360.48732351559
0.389404296875	0.00163726806640625	3361.37233351335
0.393829345703125	0.00164276123046875	3362.25734351112
0.39825439453125	0.00164794921875	3363.14235350888
0.402679443359375	0.001654052734375	3364.02736350665
0.4071044921875	0.0016595458984375	3364.91237350441
0.411529541015625	0.0016644287109375	3365.79738350218
0.41595458984375	0.001669921875	3366.68239349994
0.420379638671875	0.00167449951171875	3367.56740349771
0.4248046875	0.00167877197265625	3368.45241349548
0.429229736328125	0.00168365478515625	3369.33742349324
0.43365478515625	0.0016876220703125	3370.22243349101
0.438079833984375	0.00169158935546875	3371.10744348877
0.4425048828125	0.001695556640625	3371.99245348654
0.446929931640625	0.00169921875	3372.8774634843
0.45135498046875	0.001702880859375	3373.76247348207
0.455780029296875	0.00170654296875	3374.64748347983
0.460205078125	0.001710205078125	3375.5324934776
0.464630126953125	0.00171356201171875	3376.41750347537
0.46905517578125	0.00171630859375	3377.30251347313
0.473480224609375	0.00171966552734375	3378.1875234709
0.4779052734375	0.0017230224609375	3379.07253346866
0.482330322265625	0.0017254638671875	3379.95754346643
0.48675537109375	0.00172821044921875	3380.84255346419
0.491180419921875	0.00173095703125	3381.72756346196
0.49560546875	0.0017327880859375	3382.61257345972
0.500030517578125	0.00173553466796875	3383.49758345749
0.50445556640625	0.001737060546875	3384.38259345526
0.508880615234375	0.0017388916015625	3385.26760345302
0.5133056640625	0.00174102783203125	3386.15261345079
0.517730712890625	0.0017425537109375	3387.03762344855
0.52215576171875	0.001744384765625	3387.92263344632
0.526580810546875	0.00174591064453125	3388.80764344408
0.531005859375	0.00174713134765625	3389.69265344185
0.535430908203125	0.00174896240234375	3390.57766343961
0.53985595703125	0.00175018310546875	3391.46267343738
0.544281005859375	0.001751708984375	3392.34768343515
0.5487060546875	0.001751708984375	3393.23269343291
0.553131103515625	0.0017529296875	3394.11770343068
0.55755615234375	0.00175384521484375	3395.00271342844
0.561981201171875	0.0017547607421875	3395.88772342621
0.56640625	0.00175567626953125	3396.77273342397
0.570831298828125	0.001756591796875	3397.65774342174
0.57525634765625	0.0017578125	3398.5427534195
0.579681396484375	0.00175872802734375	3399.42776341727
0.5841064453125	0.0017596435546875	3400.31277341504
0.588531494140625	0.001759033203125	3401.1977834128
0.59295654296875	0.00176055908203125	3402.08279341057
0.597381591796875	0.00176177978515625	3402.96780340833
0.601806640625	0.00176300048828125	3403.8528134061
0.606231689453125	0.0017645263671875	3404.73782340386
0.61065673828125	0.00176513671875	3405.62283340163
0.615081787109375	0.00176666259765625	3406.50784339939
0.6195068359375	0.00176788330078125	3407.39285339716
0.623931884765625	0.0017694091796875	3408.27786339493
0.62835693359375	0.00177398681640625	3409.16287339269
0.632781982421875	0.0017742919921875	3410.04788339046
0.63720703125	0.00177520751953125	3410.93289338822
0.641632080078125	0.00177642822265625	3411.81790338599
0.64605712890625	0.0017779541015625	3412.70291338375
0.650482177734375	0.00177978515625	3413.58792338152
0.6549072265625	0.0017816162109375	3414.47293337928
0.659332275390625	0.00178375244140625	3415.35794337705
0.66375732421875	0.001785888671875	3416.24295337482
0.668182373046875	0.00178802490234375	3417.12796337258
0.672607421875	0.00178985595703125	3418.01297337035
0.677032470703125	0.001793212890625	3418.89798336811
0.68145751953125	0.00179595947265625	3419.78299336588
0.685882568359375	0.0017987060546875	3420.66800336364
0.6903076171875	0.0018017578125	3421.55301336141
0.694732666015625	0.0018048095703125	3422.43802335917
0.69915771484375	0.0018084716796875	3423.32303335694
0.703582763671875	0.0018121337890625	3424.20804335471
0.7080078125	0.00181549072265625	3425.09305335247
0.712432861328125	0.001820068359375	3425.97806335024
0.71685791015625	0.001824951171875	3426.863073348
0.721282958984375	0.00182952880859375	3427.74808334577
0.7257080078125	0.00183502197265625	3428.63309334353
0.730133056640625	0.0018408203125	3429.5181033413
0.73455810546875	0.00184661865234375	3430.40311333906
0.738983154296875	0.0018536376953125	3431.28812333683
0.743408203125	0.001859130859375	3432.1731333346
0.747833251953125	0.001866455078125	3433.05814333236
0.75225830078125	0.0018743896484375	3433.94315333013
0.756683349609375	0.0018829345703125	3434.82816332789
0.7611083984375	0.00189239501953125	3435.71317332566
0.765533447265625	0.00190155029296875	3436.59818332342
0.76995849609375	0.00191253662109375	3437.48319332119
0.774383544921875	0.00192291259765625	3438.36820331895
0.77880859375	0.001934814453125	3439.25321331672
0.783233642578125	0.00194671630859375	3440.13822331449
0.78765869140625	0.0019598388671875	3441.02323331225
0.792083740234375	0.001973876953125	3441.90824331002
0.7965087890625	0.00198944091796875	3442.79325330778
0.800933837890625	0.0020050048828125	3443.67826330555
0.80535888671875	0.00202301025390625	3444.56327330331
0.809783935546875	0.00204071044921875	3445.44828330108
0.814208984375	0.00206024169921875	3446.33329329885
0.818634033203125	0.0020806884765625	3447.21830329661
0.82305908203125	0.00210235595703125	3448.10331329438
0.827484130859375	0.00212493896484375	3448.98832329214
0.8319091796875	0.0021490478515625	3449.87333328991
0.836334228515625	0.0021759033203125	3450.75834328767
0.84075927734375	0.002203369140625	3451.64335328544
0.845184326171875	0.00223236083984375	3452.5283632832
0.849609375	0.00226226806640625	3453.41337328097
0.854034423828125	0.0022943115234375	3454.29838327873
0.85845947265625	0.002327880859375	3455.1833932765
0.862884521484375	0.0023614501953125	3456.06840327427
0.8673095703125	0.00239837646484375	3456.95341327203
0.871734619140625	0.00243621826171875	3457.8384232698
0.87615966796875	0.00247650146484375	3458.72343326756
0.880584716796875	0.00251739501953125	3459.60844326533
0.885009765625	0.00255950927734375	3460.49345326309
0.889434814453125	0.00260498046875	3461.37846326086
0.89385986328125	0.00265106201171875	3462.26347325862
0.898284912109375	0.0026971435546875	3463.14848325639
0.9027099609375	0.00274566650390625	3464.03349325416
0.907135009765625	0.0027972412109375	3464.91850325192
0.91156005859375	0.002847900390625	3465.80351324969
0.915985107421875	0.0029022216796875	3466.68852324745
0.92041015625	0.00295745849609375	3467.57353324522
0.924835205078125	0.0030133056640625	3468.45854324298
0.92926025390625	0.00307037353515625	3469.34355324075
0.933685302734375	0.00312957763671875	3470.22856323852
0.9381103515625	0.0031915283203125	3471.11357323628
0.942535400390625	0.003251953125	3471.99858323405
0.94696044921875	0.00331268310546875	3472.88359323181
0.951385498046875	0.0033746337890625	3473.76860322958
0.955810546875	0.0034393310546875	3474.65361322734
0.960235595703125	0.00350372314453125	3475.53862322511
0.96466064453125	0.0035693359375	3476.42363322287
0.969085693359375	0.003634033203125	3477.30864322064
0.9735107421875	0.00370025634765625	3478.19365321841
0.977935791015625	0.003765869140625	3479.07866321617
0.98236083984375	0.00383270263671875	3479.96367321394
0.986785888671875	0.00389984130859375	3480.8486832117
0.9912109375	0.00396697998046875	3481.73369320947
0.995635986328125	0.0040338134765625	3482.61870320723
1.00006103515625	0.004102783203125	3483.503713205
0.995635986328125	0.003499755859375	3484.38872320276
0.9912109375	0.00300140380859375	3485.27373320053
0.986785888671875	0.002574462890625	3486.1587431983
0.98236083984375	0.0021990966796875	3487.04375319606
0.977935791015625	0.001866455078125	3487.92876319383
0.9735107421875	0.0015704345703125	3488.81377319159
0.969085693359375	0.001300048828125	3489.69878318936
0.96466064453125	0.0010546875	3490.58379318712
0.960235595703125	0.000830078125	3491.46880318489
0.955810546875	0.000623779296875	3492.35381318265
0.951385498046875	0.00043353271484375	3493.23882318042
0.94696044921875	0.00025750732421875	3494.12383317819
0.942535400390625	9.46044921875E-05	3495.00884317595
0.9381103515625	-5.6396484375E-05	3495.89385317372
0.933685302734375	-0.00019830322265625	3496.77886317148
0.92926025390625	-0.000329376220703125	3497.66387316925
0.924835205078125	-0.00045123291015625	3498.54888316701
0.92041015625	-0.00056463623046875	3499.43389316478
0.915985107421875	-0.000669891357421875	3500.31890316254
0.91156005859375	-0.00076904296875	3501.20391316031
0.907135009765625	-0.000860595703125	3502.08892315808
0.9027099609375	-0.000946044921875	3502.97393315584
0.898284912109375	-0.00102569580078125	3503.85894315361
0.89385986328125	-0.00110015869140625	3504.74395315137
0.889434814453125	-0.00116912841796875	3505.62896314914
0.885009765625	-0.00123260498046875	3506.5139731469
0.880584716796875	-0.00129180908203125	3507.39898314467
0.87615966796875	-0.00134613037109375	3508.28399314243
0.871734619140625	-0.001396484375	3509.1690031402
0.8673095703125	-0.00144287109375	3510.05401313797
0.862884521484375	-0.0014849853515625	3510.93902313573
0.85845947265625	-0.00152252197265625	3511.8240331335
0.854034423828125	-0.0015582275390625	3512.70904313126
0.849609375	-0.00158935546875	3513.59405312903
0.845184326171875	-0.0016180419921875	3514.47906312679
0.84075927734375	-0.001644287109375	3515.36407312456
0.836334228515625	-0.00166656494140625	3516.24908312232
0.8319091796875	-0.0016864013671875	3517.13409312009
0.827484130859375	-0.0017034912109375	3518.01910311786
0.82305908203125	-0.00171875	3518.90411311562
0.818634033203125	-0.00173126220703125	3519.78912311339
0.814208984375	-0.001741943359375	3520.67413311115
0.809783935546875	-0.00175018310546875	3521.55914310892
0.80535888671875	-0.0017578125	3522.44415310668
0.800933837890625	-0.00176300048828125	3523.32916310445
0.7965087890625	-0.00176666259765625	3524.21417310221
0.792083740234375	-0.001768798828125	3525.09918309998
0.78765869140625	-0.00177001953125	3525.98419309775
0.783233642578125	-0.00176971435546875	3526.86920309551
0.77880859375	-0.00176849365234375	3527.75421309328
0.774383544921875	-0.001766357421875	3528.63922309104
0.76995849609375	-0.0017633056640625	3529.52423308881
0.765533447265625	-0.0017596435546875	3530.40924308657
0.7611083984375	-0.00175537109375	3531.29425308434
0.756683349609375	-0.00175048828125	3532.1792630821
0.75225830078125	-0.0017449951171875	3533.06427307987
0.747833251953125	-0.001739501953125	3533.94928307764
0.743408203125	-0.00173431396484375	3534.8342930754
0.738983154296875	-0.00172607421875	3535.71930307317
0.73455810546875	-0.00171966552734375	3536.60431307093
0.730133056640625	-0.00171295166015625	3537.4893230687
0.7257080078125	-0.0017047119140625	3538.37433306646
0.721282958984375	-0.001697998046875	3539.25934306423
0.71685791015625	-0.00169097900390625	3540.14435306199
0.712432861328125	-0.0016845703125	3541.02936305976
0.7080078125	-0.00167755126953125	3541.91437305753
0.703582763671875	-0.001669921875	3542.79938305529
0.69915771484375	-0.00166259765625	3543.68439305306
0.694732666015625	-0.0016558837890625	3544.56940305082
0.6903076171875	-0.00165008544921875	3545.45441304859
0.685882568359375	-0.0016436767578125	3546.33942304635
0.68145751953125	-0.00163818359375	3547.22443304412
0.677032470703125	-0.0016326904296875	3548.10944304188
0.672607421875	-0.0016278076171875	3548.99445303965
0.668182373046875	-0.00162261962890625	3549.87946303742
0.66375732421875	-0.00161773681640625	3550.76447303518
0.659332275390625	-0.00161346435546875	3551.64948303295
0.6549072265625	-0.0016094970703125	3552.53449303071
0.650482177734375	-0.00160491943359375	3553.41950302848
0.64605712890625	-0.0016009521484375	3554.30451302624
0.641632080078125	-0.0015972900390625	3555.18952302401
0.63720703125	-0.00159515380859375	3556.07453302178
0.632781982421875	-0.00159210205078125	3556.95954301954
0.62835693359375	-0.00158905029296875	3557.84455301731
0.623931884765625	-0.0015899658203125	3558.72956301507
0.6195068359375	-0.0015869140625	3559.61457301284
0.615081787109375	-0.00158477783203125	3560.4995830106
0.61065673828125	-0.001583251953125	3561.38459300837
0.606231689453125	-0.00158203125	3562.26960300613
0.601806640625	-0.00158111572265625	3563.1546130039
0.597381591796875	-0.001580810546875	3564.03962300166
0.59295654296875	-0.0015802001953125	3564.92463299943
0.588531494140625	-0.00158050537109375	3565.8096429972
0.5841064453125	-0.0015789794921875	3566.69465299496
0.579681396484375	-0.00158050537109375	3567.57966299273
0.57525634765625	-0.00158172607421875	3568.46467299049
0.570831298828125	-0.00158294677734375	3569.34968298826
0.56640625	-0.00158477783203125	3570.23469298602
0.561981201171875	-0.0015869140625	3571.11970298379
0.55755615234375	-0.0015887451171875	3572.00471298155
0.553131103515625	-0.0015911865234375	3572.88972297932
0.5487060546875	-0.00159423828125	3573.77473297709
0.544281005859375	-0.00159576416015625	3574.65974297485
0.53985595703125	-0.00159912109375	3575.54475297262
0.535430908203125	-0.00160247802734375	3576.42976297038
0.531005859375	-0.00160614013671875	3577.31477296815
0.526580810546875	-0.0016094970703125	3578.19978296591
0.52215576171875	-0.0016131591796875	3579.08479296368
0.517730712890625	-0.001617431640625	3579.96980296145
0.5133056640625	-0.00162078857421875	3580.85481295921
0.508880615234375	-0.00162567138671875	3581.73982295698
0.50445556640625	-0.0016290283203125	3582.62483295474
0.500030517578125	-0.00163360595703125	3583.50984295251
0.49560546875	-0.0016375732421875	3584.39485295027
0.491180419921875	-0.00164215087890625	3585.27986294804
0.48675537109375	-0.001646728515625	3586.1648729458
0.482330322265625	-0.001650390625	3587.04988294357
0.4779052734375	-0.00165496826171875	3587.93489294134
0.473480224609375	-0.00165863037109375	3588.8199029391
0.46905517578125	-0.0016632080078125	3589.70491293687
0.464630126953125	-0.0016668701171875	3590.58992293463
0.460205078125	-0.0016705322265625	3591.4749329324
0.455780029296875	-0.00167449951171875	3592.35994293016
0.45135498046875	-0.00167755126953125	3593.24495292793
0.446929931640625	-0.0016815185546875	3594.12996292569
0.4425048828125	-0.00168487548828125	3595.01497292346
0.438079833984375	-0.0016876220703125	3595.89998292123
0.43365478515625	-0.001690673828125	3596.78499291899
0.429229736328125	-0.00169281005859375	3597.67000291676
0.4248046875	-0.001695556640625	3598.55501291452
0.420379638671875	-0.0016973876953125	3599.44002291229
0.41595458984375	-0.00169952392578125	3600.32503291005
0.411529541015625	-0.00170166015625	3601.21004290782
0.4071044921875	-0.00170318603515625	3602.09505290558
0.402679443359375	-0.0017047119140625	3602.98006290335
0.39825439453125	-0.00170623779296875	3603.86507290112
0.393829345703125	-0.00170745849609375	3604.75008289888
0.389404296875	-0.001707763671875	3605.63509289665
0.384979248046875	-0.001708984375	3606.52010289441
0.38055419921875	-0.0017095947265625	3607.40511289218
0.376129150390625	-0.00171112060546875	3608.29012288994
0.3717041015625	-0.00171234130859375	3609.17513288771
0.367279052734375	-0.00171295166015625	3610.06014288547
0.36285400390625	-0.0017138671875	3610.94515288324
0.358428955078125	-0.00171417236328125	3611.83016288101
0.35400390625	-0.001715087890625	3612.71517287877
0.349578857421875	-0.0017144775390625	3613.60018287654
0.34515380859375	-0.0017156982421875	3614.4851928743
0.340728759765625	-0.00171630859375	3615.37020287207
0.3363037109375	-0.00171722412109375	3616.25521286983
0.331878662109375	-0.00171844482421875	3617.1402228676
0.32745361328125	-0.0017193603515625	3618.02523286536
0.323028564453125	-0.00172027587890625	3618.91024286313
0.318603515625	-0.00172088623046875	3619.7952528609
0.314178466796875	-0.0017218017578125	3620.68026285866
0.30975341796875	-0.001724853515625	3621.56527285643
0.305328369140625	-0.0017254638671875	3622.45028285419
0.3009033203125	-0.00172637939453125	3623.33529285196
0.296478271484375	-0.001727294921875	3624.22030284972
0.29205322265625	-0.001728515625	3625.10531284749
0.287628173828125	-0.0017291259765625	3625.99032284525
0.283203125	-0.0017303466796875	3626.87533284302
0.278778076171875	-0.00173187255859375	3627.76034284079
0.27435302734375	-0.0017333984375	3628.64535283855
0.269927978515625	-0.001734619140625	3629.53036283632
0.2655029296875	-0.00173614501953125	3630.41537283408
0.261077880859375	-0.001737060546875	3631.30038283185
0.25665283203125	-0.0017388916015625	3632.18539282961
0.252227783203125	-0.00174102783203125	3633.07040282738
0.247802734375	-0.00174285888671875	3633.95541282514
0.243377685546875	-0.00174468994140625	3634.84042282291
0.23895263671875	-0.0017462158203125	3635.72543282068
0.234527587890625	-0.001748046875	3636.61044281844
0.2301025390625	-0.00174957275390625	3637.49545281621
0.225677490234375	-0.00175140380859375	3638.38046281397
0.22125244140625	-0.00175384521484375	3639.26547281174
0.216827392578125	-0.00175628662109375	3640.1504828095
0.21240234375	-0.0017584228515625	3641.03549280727
0.207977294921875	-0.0017608642578125	3641.92050280503
0.20355224609375	-0.00176361083984375	3642.8055128028
0.199127197265625	-0.00176544189453125	3643.69052280057
0.1947021484375	-0.0017681884765625	3644.57553279833
0.190277099609375	-0.001771240234375	3645.4605427961
0.18585205078125	-0.0017742919921875	3646.34555279386
0.181427001953125	-0.00177734375	3647.23056279163
0.177001953125	-0.0017803955078125	3648.11557278939
0.172576904296875	-0.00178375244140625	3649.00058278716
0.16815185546875	-0.0017877197265625	3649.88559278492
0.163726806640625	-0.001790771484375	3650.77060278269
0.1593017578125	-0.00179473876953125	3651.65561278046
0.154876708984375	-0.00179779052734375	3652.54062277822
0.15045166015625	-0.0018023681640625	3653.42563277599
0.146026611328125	-0.00180694580078125	3654.31064277375
0.1416015625	-0.00181121826171875	3655.19565277152
0.137176513671875	-0.00181671142578125	3656.08066276928
0.13275146484375	-0.00182098388671875	3656.96567276705
0.128326416015625	-0.001826171875	3657.85068276481
0.1239013671875	-0.0018316650390625	3658.73569276258
0.119476318359375	-0.00183746337890625	3659.62070276035
0.11505126953125	-0.00184173583984375	3660.50571275811
0.110626220703125	-0.0018487548828125	3661.39072275588
0.106201171875	-0.00185455322265625	3662.27573275364
0.101776123046875	-0.001861572265625	3663.16074275141
0.09735107421875	-0.0018682861328125	3664.04575274917
0.092926025390625	-0.00187469482421875	3664.93076274694
0.0885009765625	-0.00188262939453125	3665.81577274471
0.084075927734375	-0.0018902587890625	3666.70078274247
0.07965087890625	-0.0018975830078125	3667.58579274024
0.075225830078125	-0.001905517578125	3668.470802738
0.07080078125	-0.0019140625	3669.35581273577
0.066375732421875	-0.00192230224609375	3670.24082273353
0.06195068359375	-0.00193145751953125	3671.1258327313
0.057525634765625	-0.00194061279296875	3672.01084272906
0.0531005859375	-0.00195068359375	3672.89585272683
0.048675537109375	-0.00196014404296875	3673.78086272459
0.04425048828125	-0.00197052001953125	3674.66587272236
0.039825439453125	-0.0019818115234375	3675.55088272013
0.035400390625	-0.0019927978515625	3676.43589271789
0.030975341796875	-0.00200469970703125	3677.32090271566
0.02655029296875	-0.0020172119140625	3678.20591271342
0.022125244140625	-0.00202972412109375	3679.09092271119
0.0177001953125	-0.0020428466796875	3679.97593270895
0.013275146484375	-0.00205718994140625	3680.86094270672
0.00885009765625	-0.0020721435546875	3681.74595270448
0.004425048828125	-0.00208740234375	3682.63096270225
0	-0.00210357666015625	3683.51597270002
0.004425048828125	-0.0015264892578125	3684.40098269778
0.00885009765625	-0.00109344482421875	3685.28599269555
0.013275146484375	-0.00075531005859375	3686.17100269331
0.0177001953125	-0.00048406982421875	3687.05601269108
0.022125244140625	-0.000261688232421875	3687.94102268884
0.02655029296875	-7.6568603515625E-05	3688.82603268661
0.030975341796875	7.940673828125E-05	3689.71104268438
0.035400390625	0.00021270751953125	3690.59605268214
0.039825439453125	0.00032891845703125	3691.48106267991
0.04425048828125	0.000428680419921875	3692.36607267767
0.048675537109375	0.000514129638671875	3693.25108267544
0.0531005859375	0.000589935302734375	3694.1360926732
0.057525634765625	0.000657379150390625	3695.02110267097
0.06195068359375	0.0007171630859375	3695.90611266873
0.066375732421875	0.0007708740234375	3696.7911226665
0.07080078125	0.000819091796875	3697.67613266427
0.075225830078125	0.00086334228515625	3698.56114266203
0.07965087890625	0.00090240478515625	3699.4461526598
0.084075927734375	0.00093841552734375	3700.33116265756
0.0885009765625	0.00097137451171875	3701.21617265533
0.092926025390625	0.00100189208984375	3702.10118265309
0.09735107421875	0.00102996826171875	3702.98619265086
0.101776123046875	0.0010552978515625	3703.87120264862
0.106201171875	0.0010784912109375	3704.75621264639
0.110626220703125	0.00110015869140625	3705.64122264416
0.11505126953125	0.00112060546875	3706.52623264192
0.119476318359375	0.0011376953125	3707.41124263969
0.1239013671875	0.001156005859375	3708.29625263745
0.128326416015625	0.00117218017578125	3709.18126263522
0.13275146484375	0.001187744140625	3710.06627263298
0.137176513671875	0.00120208740234375	3710.95128263075
0.1416015625	0.00121551513671875	3711.83629262851
0.146026611328125	0.0012286376953125	3712.72130262628
0.15045166015625	0.00124053955078125	3713.60631262405
0.154876708984375	0.00125213623046875	3714.49132262181
0.1593017578125	0.0012628173828125	3715.37633261958
0.163726806640625	0.0012738037109375	3716.26134261734
0.16815185546875	0.0012835693359375	3717.14635261511
0.172576904296875	0.0012933349609375	3718.03136261287
0.177001953125	0.001302490234375	3718.91637261064
0.181427001953125	0.00131195068359375	3719.8013826084
0.18585205078125	0.00131988525390625	3720.68639260617
0.190277099609375	0.00132843017578125	3721.57140260394
0.1947021484375	0.00133636474609375	3722.4564126017
0.199127197265625	0.00134429931640625	3723.34142259947
0.20355224609375	0.0013519287109375	3724.22643259723
0.207977294921875	0.00135955810546875	3725.111442595
0.21240234375	0.00136688232421875	3725.99645259276
0.216827392578125	0.00137420654296875	3726.88146259053
0.22125244140625	0.00138092041015625	3727.76647258829
0.225677490234375	0.0013873291015625	3728.65148258606
0.2301025390625	0.00139373779296875	3729.53649258383
0.234527587890625	0.00139984130859375	3730.42150258159
0.23895263671875	0.00140625	3731.30651257936
0.243377685546875	0.0014129638671875	3732.19152257712
0.247802734375	0.0014190673828125	3733.07653257489
0.252227783203125	0.00142547607421875	3733.96154257265
0.25665283203125	0.00143157958984375	3734.84655257042
0.261077880859375	0.00143798828125	3735.73156256818
0.2655029296875	0.00144378662109375	3736.61657256595
0.269927978515625	0.00144989013671875	3737.50158256372
0.27435302734375	0.0014556884765625	3738.38659256148
0.278778076171875	0.00146240234375	3739.27160255925
0.283203125	0.00146820068359375	3740.15661255701
0.287628173828125	0.00147491455078125	3741.04162255478
0.29205322265625	0.00148101806640625	3741.92663255254
0.296478271484375	0.00148712158203125	3742.81164255031
0.3009033203125	0.00149322509765625	3743.69665254807
0.305328369140625	0.0014996337890625	3744.58166254584
0.30975341796875	0.00150604248046875	3745.46667254361
0.314178466796875	0.00151397705078125	3746.35168254137
0.318603515625	0.001519775390625	3747.23669253914
0.323028564453125	0.0015252685546875	3748.1217025369
0.32745361328125	0.00153228759765625	3749.00671253467
0.331878662109375	0.00153839111328125	3749.89172253243
0.3363037109375	0.00154449462890625	3750.7767325302
0.340728759765625	0.001551513671875	3751.66174252796
0.34515380859375	0.00155731201171875	3752.54675252573
0.349578857421875	0.00156341552734375	3753.4317625235
0.35400390625	0.00156829833984375	3754.31677252126
0.358428955078125	0.0015753173828125	3755.20178251903
0.36285400390625	0.00158172607421875	3756.08679251679
0.367279052734375	0.0015887451171875	3756.97180251456
0.3717041015625	0.0015948486328125	3757.85681251232
0.376129150390625	0.00160186767578125	3758.74182251009
0.38055419921875	0.00160736083984375	3759.62683250785
0.384979248046875	0.00161346435546875	3760.51184250562
0.389404296875	0.00161956787109375	3761.39685250339
0.393829345703125	0.001624755859375	3762.28186250115
0.39825439453125	0.00162994384765625	3763.16687249892
0.402679443359375	0.0016351318359375	3764.05188249668
0.4071044921875	0.00164031982421875	3764.93689249445
0.411529541015625	0.0016455078125	3765.82190249221
0.41595458984375	0.0016497802734375	3766.70691248998
0.420379638671875	0.0016546630859375	3767.59192248774
0.4248046875	0.001658935546875	3768.47693248551
0.429229736328125	0.0016632080078125	3769.36194248328
0.43365478515625	0.00166717529296875	3770.24695248104
0.438079833984375	0.001671142578125	3771.13196247881
0.4425048828125	0.00167510986328125	3772.01697247657
0.446929931640625	0.00167938232421875	3772.90198247434
0.45135498046875	0.001683349609375	3773.7869924721
0.455780029296875	0.00168701171875	3774.67200246987
0.460205078125	0.00169036865234375	3775.55701246764
0.464630126953125	0.0016937255859375	3776.4420224654
0.46905517578125	0.00169769287109375	3777.32703246317
0.473480224609375	0.00170074462890625	3778.21204246093
0.4779052734375	0.00170440673828125	3779.0970524587
0.482330322265625	0.00170745849609375	3779.98206245646
0.48675537109375	0.00171051025390625	3780.86707245423
0.491180419921875	0.00171295166015625	3781.75208245199
0.49560546875	0.0017156982421875	3782.63709244976
0.500030517578125	0.0017181396484375	3783.52210244752
0.50445556640625	0.0017205810546875	3784.40711244529
0.508880615234375	0.001722412109375	3785.29212244306
0.5133056640625	0.00172515869140625	3786.17713244082
0.517730712890625	0.001727294921875	3787.06214243859
0.52215576171875	0.0017291259765625	3787.94715243635
0.526580810546875	0.00173126220703125	3788.83216243412
0.531005859375	0.00173309326171875	3789.71717243188
0.535430908203125	0.00173431396484375	3790.60218242965
0.53985595703125	0.00173583984375	3791.48719242741
0.544281005859375	0.001737060546875	3792.37220242518
0.5487060546875	0.00173828125	3793.25721242295
0.553131103515625	0.0017401123046875	3794.14222242071
0.55755615234375	0.00174102783203125	3795.02723241848
0.561981201171875	0.0017431640625	3795.91224241624
0.56640625	0.0017437744140625	3796.79725241401
0.570831298828125	0.00174591064453125	3797.68226241177
0.57525634765625	0.00174652099609375	3798.56727240954
0.579681396484375	0.00174774169921875	3799.45228240731
0.5841064453125	0.00174896240234375	3800.33729240507
0.588531494140625	0.00174896240234375	3801.22230240284
0.59295654296875	0.0017510986328125	3802.1073124006
0.597381591796875	0.0017523193359375	3802.99232239837
0.601806640625	0.0017535400390625	3803.87733239613
0.606231689453125	0.00175537109375	3804.7623423939
0.61065673828125	0.001756591796875	3805.64735239166
0.615081787109375	0.0017572021484375	3806.53236238943
0.6195068359375	0.001759033203125	3807.4173723872
0.623931884765625	0.00176025390625	3808.30238238496
0.62835693359375	0.00176483154296875	3809.18739238273
0.632781982421875	0.00176605224609375	3810.07240238049
0.63720703125	0.00176605224609375	3810.95741237826
0.641632080078125	0.00176727294921875	3811.84242237602
0.64605712890625	0.0017694091796875	3812.72743237379
0.650482177734375	0.00177001953125	3813.61244237155
0.6549072265625	0.0017718505859375	3814.49745236932
0.659332275390625	0.0017742919921875	3815.38246236709
0.66375732421875	0.0017755126953125	3816.26747236485
0.668182373046875	0.00177825927734375	3817.15248236262
0.672607421875	0.0017791748046875	3818.03749236038
0.677032470703125	0.00178131103515625	3818.92250235815
0.68145751953125	0.0017840576171875	3819.80751235591
0.685882568359375	0.00178680419921875	3820.69252235368
0.6903076171875	0.00178924560546875	3821.57753235144
0.694732666015625	0.0017926025390625	3822.46254234921
0.69915771484375	0.00179534912109375	3823.34755234698
0.703582763671875	0.00179779052734375	3824.23256234474
0.7080078125	0.0018011474609375	3825.11757234251
0.712432861328125	0.0018048095703125	3826.00258234027
0.71685791015625	0.00180908203125	3826.88759233804
0.721282958984375	0.0018133544921875	3827.7726023358
0.7257080078125	0.001817626953125	3828.65761233357
0.730133056640625	0.00182281494140625	3829.54262233133
0.73455810546875	0.001827392578125	3830.4276323291
0.738983154296875	0.00183349609375	3831.31264232687
0.743408203125	0.00183746337890625	3832.19765232463
0.747833251953125	0.00184417724609375	3833.0826623224
0.75225830078125	0.00185089111328125	3833.96767232016
0.756683349609375	0.00185791015625	3834.85268231793
0.7611083984375	0.0018658447265625	3835.73769231569
0.765533447265625	0.0018743896484375	3836.62270231346
0.76995849609375	0.00188323974609375	3837.50771231122
0.774383544921875	0.0018927001953125	3838.39272230899
0.77880859375	0.00190277099609375	3839.27773230676
0.783233642578125	0.0019134521484375	3840.16274230452
0.78765869140625	0.001925048828125	3841.04775230229
0.792083740234375	0.00193756103515625	3841.93276230005
0.7965087890625	0.00195068359375	3842.81777229782
0.800933837890625	0.00196533203125	3843.70278229558
0.80535888671875	0.00198028564453125	3844.58779229335
0.809783935546875	0.00199615478515625	3845.47280229111
0.814208984375	0.002012939453125	3846.35781228888
0.818634033203125	0.0020306396484375	3847.24282228665
0.82305908203125	0.00205078125	3848.12783228441
0.827484130859375	0.002071533203125	3849.01284228218
0.8319091796875	0.002093505859375	3849.89785227994
0.836334228515625	0.0021160888671875	3850.78286227771
0.84075927734375	0.0021405029296875	3851.66787227547
0.845184326171875	0.0021661376953125	3852.55288227324
0.849609375	0.002193603515625	3853.437892271
0.854034423828125	0.0022222900390625	3854.32290226877
0.85845947265625	0.0022528076171875	3855.20791226654
0.862884521484375	0.00228271484375	3856.0929222643
0.8673095703125	0.0023162841796875	3856.97793226207
0.871734619140625	0.00235076904296875	3857.86294225983
0.87615966796875	0.002386474609375	3858.7479522576
0.880584716796875	0.00242401123046875	3859.63296225536
0.885009765625	0.0024639892578125	3860.51797225313
0.889434814453125	0.00250396728515625	3861.40298225089
0.89385986328125	0.0025469970703125	3862.28799224866
0.898284912109375	0.00259033203125	3863.17300224643
0.9027099609375	0.00263580322265625	3864.05801224419
0.907135009765625	0.0026824951171875	3864.94302224196
0.91156005859375	0.00272979736328125	3865.82803223972
0.915985107421875	0.0027789306640625	3866.71304223749
0.92041015625	0.0028289794921875	3867.59805223525
0.924835205078125	0.002880859375	3868.48306223302
0.92926025390625	0.002933349609375	3869.36807223078
0.933685302734375	0.00298675537109375	3870.25308222855
0.9381103515625	0.00304443359375	3871.13809222632
0.942535400390625	0.00309967041015625	3872.02310222408
0.94696044921875	0.003155517578125	3872.90811222185
0.951385498046875	0.003212890625	3873.79312221961
0.955810546875	0.00327056884765625	3874.67813221738
0.960235595703125	0.0033282470703125	3875.56314221514
0.96466064453125	0.003387451171875	3876.44815221291
0.969085693359375	0.003446044921875	3877.33316221067
0.9735107421875	0.00350555419921875	3878.21817220844
0.977935791015625	0.0035638427734375	3879.10318220621
0.98236083984375	0.00362396240234375	3879.98819220397
0.986785888671875	0.00368438720703125	3880.87320220174
0.9912109375	0.00374542236328125	3881.7582121995
