Potential applied (V)	WE(1).Current (A)	Time (s)
0.004425048828125	-0.076055908203125	2603.62679642647
0.00885009765625	-0.0733489990234375	2603.67104642636
0.013275146484375	-0.0708770751953125	2603.71529642625
0.0177001953125	-0.0686126708984375	2603.75954642614
0.022125244140625	-0.06649169921875	2603.80379642603
0.02655029296875	-0.064434814453125	2603.84804642592
0.030975341796875	-0.0625	2603.8922964258
0.035400390625	-0.060614013671875	2603.93654642569
0.039825439453125	-0.0588104248046875	2603.98079642558
0.04425048828125	-0.057073974609375	2604.02504642547
0.048675537109375	-0.0553924560546875	2604.06929642536
0.0531005859375	-0.0537628173828125	2604.11354642525
0.057525634765625	-0.0522003173828125	2604.15779642513
0.06195068359375	-0.050677490234375	2604.20204642502
0.066375732421875	-0.0492218017578125	2604.24629642491
0.07080078125	-0.0477996826171875	2604.2905464248
0.075225830078125	-0.046417236328125	2604.33479642469
0.07965087890625	-0.04508056640625	2604.37904642457
0.084075927734375	-0.0437713623046875	2604.42329642446
0.0885009765625	-0.04251708984375	2604.46754642435
0.092926025390625	-0.0412994384765625	2604.51179642424
0.09735107421875	-0.0401092529296875	2604.55604642413
0.101776123046875	-0.038946533203125	2604.60029642402
0.106201171875	-0.0378326416015625	2604.6445464239
0.110626220703125	-0.0367340087890625	2604.68879642379
0.11505126953125	-0.035675048828125	2604.73304642368
0.119476318359375	-0.0346343994140625	2604.77729642357
0.1239013671875	-0.0336212158203125	2604.82154642346
0.128326416015625	-0.032635498046875	2604.86579642335
0.13275146484375	-0.031683349609375	2604.91004642323
0.137176513671875	-0.03074951171875	2604.95429642312
0.1416015625	-0.0298370361328125	2604.99854642301
0.146026611328125	-0.0289520263671875	2605.0427964229
0.15045166015625	-0.0280914306640625	2605.08704642279
0.154876708984375	-0.027239990234375	2605.13129642268
0.1593017578125	-0.0264190673828125	2605.17554642256
0.163726806640625	-0.0256134033203125	2605.21979642245
0.16815185546875	-0.024822998046875	2605.26404642234
0.172576904296875	-0.0240509033203125	2605.30829642223
0.177001953125	-0.0233001708984375	2605.35254642212
0.181427001953125	-0.0225677490234375	2605.39679642201
0.18585205078125	-0.021856689453125	2605.44104642189
0.190277099609375	-0.0211456298828125	2605.48529642178
0.1947021484375	-0.020458984375	2605.52954642167
0.199127197265625	-0.0197906494140625	2605.57379642156
0.20355224609375	-0.01912841796875	2605.61804642145
0.207977294921875	-0.0184814453125	2605.66229642134
0.21240234375	-0.0178497314453125	2605.70654642122
0.216827392578125	-0.0172332763671875	2605.75079642111
0.22125244140625	-0.016632080078125	2605.795046421
0.225677490234375	-0.0160400390625	2605.83929642089
0.2301025390625	-0.015460205078125	2605.88354642078
0.234527587890625	-0.014886474609375	2605.92779642066
0.23895263671875	-0.0143280029296875	2605.97204642055
0.243377685546875	-0.0137786865234375	2606.01629642044
0.247802734375	-0.013238525390625	2606.06054642033
0.252227783203125	-0.01270751953125	2606.10479642022
0.25665283203125	-0.0121917724609375	2606.14904642011
0.261077880859375	-0.01168212890625	2606.19329641999
0.2655029296875	-0.011181640625	2606.23754641988
0.269927978515625	-0.0106964111328125	2606.28179641977
0.27435302734375	-0.010211181640625	2606.32604641966
0.278778076171875	-0.0097381591796875	2606.37029641955
0.283203125	-0.0092742919921875	2606.41454641944
0.287628173828125	-0.0088134765625	2606.45879641932
0.29205322265625	-0.0083648681640625	2606.50304641921
0.296478271484375	-0.00792236328125	2606.5472964191
0.3009033203125	-0.0074920654296875	2606.59154641899
0.305328369140625	-0.0070648193359375	2606.63579641888
0.30975341796875	-0.006646728515625	2606.68004641877
0.314178466796875	-0.006231689453125	2606.72429641865
0.318603515625	-0.0058258056640625	2606.76854641854
0.323028564453125	-0.005426025390625	2606.81279641843
0.32745361328125	-0.0050323486328125	2606.85704641832
0.331878662109375	-0.0046490478515625	2606.90129641821
0.3363037109375	-0.00427001953125	2606.9455464181
0.340728759765625	-0.00389678955078125	2606.98979641798
0.34515380859375	-0.00352935791015625	2607.03404641787
0.349578857421875	-0.0031689453125	2607.07829641776
0.35400390625	-0.00282501220703125	2607.12254641765
0.358428955078125	-0.0024737548828125	2607.16679641754
0.36285400390625	-0.00212921142578125	2607.21104641742
0.367279052734375	-0.0017889404296875	2607.25529641731
0.3717041015625	-0.00145477294921875	2607.2995464172
0.376129150390625	-0.00112579345703125	2607.34379641709
0.38055419921875	-0.000802001953125	2607.38804641698
0.384979248046875	-0.00048388671875	2607.43229641687
0.389404296875	-0.000170196533203125	2607.47654641675
0.393829345703125	0.00013739013671875	2607.52079641664
0.39825439453125	0.000441497802734375	2607.56504641653
0.402679443359375	0.000740966796875	2607.60929641642
0.4071044921875	0.00103607177734375	2607.65354641631
0.411529541015625	0.0013262939453125	2607.6977964162
0.41595458984375	0.00161224365234375	2607.74204641608
0.420379638671875	0.0018939208984375	2607.78629641597
0.4248046875	0.0021710205078125	2607.83054641586
0.429229736328125	0.00244384765625	2607.87479641575
0.43365478515625	0.00271209716796875	2607.91904641564
0.438079833984375	0.00297637939453125	2607.96329641553
0.4425048828125	0.0032373046875	2608.00754641541
0.446929931640625	0.0034942626953125	2608.0517964153
0.45135498046875	0.00374603271484375	2608.09604641519
0.455780029296875	0.00399505615234375	2608.14029641508
0.460205078125	0.00423919677734375	2608.18454641497
0.464630126953125	0.004481201171875	2608.22879641486
0.46905517578125	0.00471771240234375	2608.27304641474
0.473480224609375	0.00495330810546875	2608.31729641463
0.4779052734375	0.0051824951171875	2608.36154641452
0.482330322265625	0.00540924072265625	2608.40579641441
0.48675537109375	0.00563323974609375	2608.4500464143
0.491180419921875	0.00585205078125	2608.49429641419
0.49560546875	0.0060687255859375	2608.53854641407
0.500030517578125	0.0062744140625	2608.58279641396
0.50445556640625	0.0064849853515625	2608.62704641385
0.508880615234375	0.0066925048828125	2608.67129641374
0.5133056640625	0.00689697265625	2608.71554641363
0.517730712890625	0.0070953369140625	2608.75979641351
0.52215576171875	0.007293701171875	2608.8040464134
0.526580810546875	0.007489013671875	2608.84829641329
0.531005859375	0.0076812744140625	2608.89254641318
0.535430908203125	0.0078643798828125	2608.93679641307
0.53985595703125	0.008050537109375	2608.98104641296
0.544281005859375	0.008233642578125	2609.02529641284
0.5487060546875	0.0084136962890625	2609.06954641273
0.553131103515625	0.00859375	2609.11379641262
0.55755615234375	0.0087677001953125	2609.15804641251
0.561981201171875	0.008941650390625	2609.2022964124
0.56640625	0.0091064453125	2609.24654641229
0.570831298828125	0.0092742919921875	2609.29079641217
0.57525634765625	0.00943603515625	2609.33504641206
0.579681396484375	0.0095916748046875	2609.37929641195
0.5841064453125	0.0097503662109375	2609.42354641184
0.588531494140625	0.009906005859375	2609.46779641173
0.59295654296875	0.0100616455078125	2609.51204641162
0.597381591796875	0.0102142333984375	2609.5562964115
0.601806640625	0.01036376953125	2609.60054641139
0.606231689453125	0.0105072021484375	2609.64479641128
0.61065673828125	0.0106536865234375	2609.68904641117
0.615081787109375	0.0108001708984375	2609.73329641106
0.6195068359375	0.0109375	2609.77754641094
0.623931884765625	0.0110748291015625	2609.82179641083
0.62835693359375	0.0112152099609375	2609.86604641072
0.632781982421875	0.0113494873046875	2609.91029641061
0.63720703125	0.011480712890625	2609.9545464105
0.641632080078125	0.01160888671875	2609.99879641039
0.64605712890625	0.011737060546875	2610.04304641027
0.650482177734375	0.0118621826171875	2610.08729641016
0.6549072265625	0.0119873046875	2610.13154641005
0.659332275390625	0.0121063232421875	2610.17579640994
0.66375732421875	0.0122283935546875	2610.22004640983
0.668182373046875	0.0123443603515625	2610.26429640972
0.672607421875	0.0124603271484375	2610.3085464096
0.677032470703125	0.0125732421875	2610.35279640949
0.68145751953125	0.0126861572265625	2610.39704640938
0.685882568359375	0.0127960205078125	2610.44129640927
0.6903076171875	0.0129058837890625	2610.48554640916
0.694732666015625	0.013006591796875	2610.52979640905
0.69915771484375	0.0131134033203125	2610.57404640893
0.703582763671875	0.0132171630859375	2610.61829640882
0.7080078125	0.01331787109375	2610.66254640871
0.712432861328125	0.0134185791015625	2610.7067964086
0.71685791015625	0.0135162353515625	2610.75104640849
0.721282958984375	0.0136138916015625	2610.79529640838
0.7257080078125	0.0137115478515625	2610.83954640826
0.730133056640625	0.0138031005859375	2610.88379640815
0.73455810546875	0.0138946533203125	2610.92804640804
0.738983154296875	0.013983154296875	2610.97229640793
0.743408203125	0.014068603515625	2611.01654640782
0.747833251953125	0.014154052734375	2611.06079640771
0.75225830078125	0.0142425537109375	2611.10504640759
0.756683349609375	0.0143280029296875	2611.14929640748
0.7611083984375	0.0144073486328125	2611.19354640737
0.765533447265625	0.0144927978515625	2611.23779640726
0.76995849609375	0.014569091796875	2611.28204640715
0.774383544921875	0.0146514892578125	2611.32629640703
0.77880859375	0.014727783203125	2611.37054640692
0.783233642578125	0.01480712890625	2611.41479640681
0.78765869140625	0.01488037109375	2611.4590464067
0.792083740234375	0.0149566650390625	2611.50329640659
0.7965087890625	0.01502685546875	2611.54754640648
0.800933837890625	0.01510009765625	2611.59179640636
0.80535888671875	0.01517333984375	2611.63604640625
0.809783935546875	0.0152435302734375	2611.68029640614
0.814208984375	0.015313720703125	2611.72454640603
0.818634033203125	0.0153778076171875	2611.76879640592
0.82305908203125	0.015447998046875	2611.81304640581
0.827484130859375	0.01551513671875	2611.85729640569
0.8319091796875	0.0155792236328125	2611.90154640558
0.836334228515625	0.0156402587890625	2611.94579640547
0.84075927734375	0.015704345703125	2611.99004640536
0.845184326171875	0.015771484375	2612.03429640525
0.849609375	0.01583251953125	2612.07854640514
0.854034423828125	0.0158935546875	2612.12279640502
0.85845947265625	0.01595458984375	2612.16704640491
0.862884521484375	0.0160125732421875	2612.2112964048
0.8673095703125	0.016070556640625	2612.25554640469
0.871734619140625	0.0161285400390625	2612.29979640458
0.87615966796875	0.0161834716796875	2612.34404640447
0.880584716796875	0.0162384033203125	2612.38829640435
0.885009765625	0.0162994384765625	2612.43254640424
0.889434814453125	0.016351318359375	2612.47679640413
0.89385986328125	0.0164093017578125	2612.52104640402
0.898284912109375	0.0164642333984375	2612.56529640391
0.9027099609375	0.0165130615234375	2612.60954640379
0.907135009765625	0.016571044921875	2612.65379640368
0.91156005859375	0.0166229248046875	2612.69804640357
0.915985107421875	0.0166778564453125	2612.74229640346
0.92041015625	0.016729736328125	2612.78654640335
0.924835205078125	0.016778564453125	2612.83079640324
0.92926025390625	0.01683349609375	2612.87504640312
0.933685302734375	0.0168853759765625	2612.91929640301
0.9381103515625	0.016943359375	2612.9635464029
0.942535400390625	0.016998291015625	2613.00779640279
0.94696044921875	0.0170501708984375	2613.05204640268
0.951385498046875	0.01710205078125	2613.09629640257
0.955810546875	0.0171539306640625	2613.14054640245
0.960235595703125	0.0172088623046875	2613.18479640234
0.96466064453125	0.0172607421875	2613.22904640223
0.969085693359375	0.017315673828125	2613.27329640212
0.9735107421875	0.01737060546875	2613.31754640201
0.977935791015625	0.0174224853515625	2613.3617964019
0.98236083984375	0.01748046875	2613.40604640178
0.986785888671875	0.017535400390625	2613.45029640167
0.9912109375	0.0175872802734375	2613.49454640156
0.995635986328125	0.0176422119140625	2613.53879640145
1.00006103515625	0.0177001953125	2613.58304640134
0.995635986328125	0.017034912109375	2613.62729640123
0.9912109375	0.0163818359375	2613.67154640111
0.986785888671875	0.015753173828125	2613.715796401
0.98236083984375	0.015142822265625	2613.76004640089
0.977935791015625	0.0145477294921875	2613.80429640078
0.9735107421875	0.01397705078125	2613.84854640067
0.969085693359375	0.013409423828125	2613.89279640056
0.96466064453125	0.012860107421875	2613.93704640044
0.960235595703125	0.0123199462890625	2613.98129640033
0.955810546875	0.0117919921875	2614.02554640022
0.951385498046875	0.011279296875	2614.06979640011
0.94696044921875	0.0107757568359375	2614.1140464
0.942535400390625	0.010284423828125	2614.15829639988
0.9381103515625	0.0097991943359375	2614.20254639977
0.933685302734375	0.009326171875	2614.24679639966
0.92926025390625	0.0088592529296875	2614.29104639955
0.924835205078125	0.0084075927734375	2614.33529639944
0.92041015625	0.0079620361328125	2614.37954639933
0.915985107421875	0.007525634765625	2614.42379639921
0.91156005859375	0.0070953369140625	2614.4680463991
0.907135009765625	0.00667724609375	2614.51229639899
0.9027099609375	0.00626220703125	2614.55654639888
0.898284912109375	0.0058563232421875	2614.60079639877
0.89385986328125	0.0054595947265625	2614.64504639866
0.889434814453125	0.0050628662109375	2614.68929639854
0.885009765625	0.00468048095703125	2614.73354639843
0.880584716796875	0.00430084228515625	2614.77779639832
0.87615966796875	0.0039306640625	2614.82204639821
0.871734619140625	0.0035650634765625	2614.8662963981
0.8673095703125	0.00320404052734375	2614.91054639799
0.862884521484375	0.00285308837890625	2614.95479639787
0.85845947265625	0.00250457763671875	2614.99904639776
0.854034423828125	0.002161865234375	2615.04329639765
0.849609375	0.0018231201171875	2615.08754639754
0.845184326171875	0.00149139404296875	2615.13179639743
0.84075927734375	0.00116424560546875	2615.17604639732
0.836334228515625	0.00084197998046875	2615.2202963972
0.8319091796875	0.0005242919921875	2615.26454639709
0.827484130859375	0.000212066650390625	2615.30879639698
0.82305908203125	-9.6099853515625E-05	2615.35304639687
0.818634033203125	-0.0003988037109375	2615.39729639676
0.814208984375	-0.00069732666015625	2615.44154639664
0.809783935546875	-0.00099151611328125	2615.48579639653
0.80535888671875	-0.0012811279296875	2615.53004639642
0.800933837890625	-0.00156585693359375	2615.57429639631
0.7965087890625	-0.00184844970703125	2615.6185463962
0.792083740234375	-0.00212432861328125	2615.66279639609
0.78765869140625	-0.00239654541015625	2615.70704639597
0.783233642578125	-0.002664794921875	2615.75129639586
0.77880859375	-0.00292999267578125	2615.79554639575
0.774383544921875	-0.003189697265625	2615.83979639564
0.76995849609375	-0.0034478759765625	2615.88404639553
0.765533447265625	-0.00370086669921875	2615.92829639542
0.7611083984375	-0.00394989013671875	2615.9725463953
0.756683349609375	-0.00419525146484375	2616.01679639519
0.75225830078125	-0.00443695068359375	2616.06104639508
0.747833251953125	-0.00467559814453125	2616.10529639497
0.743408203125	-0.00490966796875	2616.14954639486
0.738983154296875	-0.0051397705078125	2616.19379639475
0.73455810546875	-0.005364990234375	2616.23804639463
0.730133056640625	-0.00558990478515625	2616.28229639452
0.7257080078125	-0.00581146240234375	2616.32654639441
0.721282958984375	-0.00602783203125	2616.3707963943
0.71685791015625	-0.0062225341796875	2616.41504639419
0.712432861328125	-0.00643310546875	2616.45929639408
0.7080078125	-0.006640625	2616.50354639396
0.703582763671875	-0.006842041015625	2616.54779639385
0.69915771484375	-0.00704345703125	2616.59204639374
0.694732666015625	-0.00723876953125	2616.63629639363
0.6903076171875	-0.00743408203125	2616.68054639352
0.685882568359375	-0.0076263427734375	2616.72479639341
0.68145751953125	-0.0078094482421875	2616.76904639329
0.677032470703125	-0.0079925537109375	2616.81329639318
0.672607421875	-0.0081756591796875	2616.85754639307
0.668182373046875	-0.0083526611328125	2616.90179639296
0.66375732421875	-0.00853271484375	2616.94604639285
0.659332275390625	-0.0087066650390625	2616.99029639273
0.6549072265625	-0.008880615234375	2617.03454639262
0.650482177734375	-0.0090484619140625	2617.07879639251
0.64605712890625	-0.0092132568359375	2617.1230463924
0.641632080078125	-0.009375	2617.16729639229
0.63720703125	-0.00953369140625	2617.21154639218
0.632781982421875	-0.0096893310546875	2617.25579639206
0.62835693359375	-0.009844970703125	2617.30004639195
0.623931884765625	-0.0100006103515625	2617.34429639184
0.6195068359375	-0.0101470947265625	2617.38854639173
0.615081787109375	-0.0102935791015625	2617.43279639162
0.61065673828125	-0.01043701171875	2617.47704639151
0.606231689453125	-0.0105804443359375	2617.52129639139
0.601806640625	-0.0107208251953125	2617.56554639128
0.597381591796875	-0.010858154296875	2617.60979639117
0.59295654296875	-0.010992431640625	2617.65404639106
0.588531494140625	-0.011126708984375	2617.69829639095
0.5841064453125	-0.0112579345703125	2617.74254639084
0.579681396484375	-0.01138916015625	2617.78679639072
0.57525634765625	-0.0115142822265625	2617.83104639061
0.570831298828125	-0.011639404296875	2617.8752963905
0.56640625	-0.011761474609375	2617.91954639039
0.561981201171875	-0.011883544921875	2617.96379639028
0.55755615234375	-0.012005615234375	2618.00804639016
0.553131103515625	-0.01212158203125	2618.05229639005
0.5487060546875	-0.012237548828125	2618.09654638994
0.544281005859375	-0.012347412109375	2618.14079638983
0.53985595703125	-0.012457275390625	2618.18504638972
0.535430908203125	-0.0125640869140625	2618.22929638961
0.531005859375	-0.0126678466796875	2618.27354638949
0.526580810546875	-0.0127777099609375	2618.31779638938
0.52215576171875	-0.0128814697265625	2618.36204638927
0.517730712890625	-0.012982177734375	2618.40629638916
0.5133056640625	-0.0130859375	2618.45054638905
0.508880615234375	-0.01318359375	2618.49479638894
0.50445556640625	-0.01328125	2618.53904638882
0.500030517578125	-0.0133758544921875	2618.58329638871
0.49560546875	-0.013470458984375	2618.6275463886
0.491180419921875	-0.01356201171875	2618.67179638849
0.48675537109375	-0.0136505126953125	2618.71604638838
0.482330322265625	-0.0137451171875	2618.76029638827
0.4779052734375	-0.0138397216796875	2618.80454638815
0.473480224609375	-0.0139251708984375	2618.84879638804
0.46905517578125	-0.0140106201171875	2618.89304638793
0.464630126953125	-0.0140899658203125	2618.93729638782
0.460205078125	-0.01417236328125	2618.98154638771
0.455780029296875	-0.0142578125	2619.0257963876
0.45135498046875	-0.01434326171875	2619.07004638748
0.446929931640625	-0.014422607421875	2619.11429638737
0.4425048828125	-0.0145050048828125	2619.15854638726
0.438079833984375	-0.01458740234375	2619.20279638715
0.43365478515625	-0.014666748046875	2619.24704638704
0.429229736328125	-0.01474609375	2619.29129638693
0.4248046875	-0.0148223876953125	2619.33554638681
0.420379638671875	-0.0148956298828125	2619.3797963867
0.41595458984375	-0.0149688720703125	2619.42404638659
0.411529541015625	-0.0150421142578125	2619.46829638648
0.4071044921875	-0.015118408203125	2619.51254638637
0.402679443359375	-0.015191650390625	2619.55679638625
0.39825439453125	-0.0152587890625	2619.60104638614
0.393829345703125	-0.01533203125	2619.64529638603
0.389404296875	-0.0153961181640625	2619.68954638592
0.384979248046875	-0.0154693603515625	2619.73379638581
0.38055419921875	-0.0155364990234375	2619.7780463857
0.376129150390625	-0.0156097412109375	2619.82229638558
0.3717041015625	-0.0156768798828125	2619.86654638547
0.367279052734375	-0.0157440185546875	2619.91079638536
0.36285400390625	-0.01580810546875	2619.95504638525
0.358428955078125	-0.015869140625	2619.99929638514
0.35400390625	-0.0159393310546875	2620.04354638503
0.349578857421875	-0.01600341796875	2620.08779638491
0.34515380859375	-0.0160675048828125	2620.1320463848
0.340728759765625	-0.0161285400390625	2620.17629638469
0.3363037109375	-0.0161956787109375	2620.22054638458
0.331878662109375	-0.016259765625	2620.26479638447
0.32745361328125	-0.0163238525390625	2620.30904638436
0.323028564453125	-0.016387939453125	2620.35329638424
0.318603515625	-0.016448974609375	2620.39754638413
0.314178466796875	-0.016510009765625	2620.44179638402
0.30975341796875	-0.0165740966796875	2620.48604638391
0.305328369140625	-0.0166351318359375	2620.5302963838
0.3009033203125	-0.0166900634765625	2620.57454638369
0.296478271484375	-0.016754150390625	2620.61879638357
0.29205322265625	-0.016815185546875	2620.66304638346
0.287628173828125	-0.0168731689453125	2620.70729638335
0.283203125	-0.0169342041015625	2620.75154638324
0.278778076171875	-0.016998291015625	2620.79579638313
0.27435302734375	-0.0170623779296875	2620.84004638301
0.269927978515625	-0.017120361328125	2620.8842963829
0.2655029296875	-0.01717529296875	2620.92854638279
0.261077880859375	-0.0172332763671875	2620.97279638268
0.25665283203125	-0.0172943115234375	2621.01704638257
0.252227783203125	-0.0173492431640625	2621.06129638246
0.247802734375	-0.0174102783203125	2621.10554638234
0.243377685546875	-0.01746826171875	2621.14979638223
0.23895263671875	-0.0175262451171875	2621.19404638212
0.234527587890625	-0.0175872802734375	2621.23829638201
0.2301025390625	-0.017645263671875	2621.2825463819
0.225677490234375	-0.0177032470703125	2621.32679638179
0.22125244140625	-0.0177581787109375	2621.37104638167
0.216827392578125	-0.017816162109375	2621.41529638156
0.21240234375	-0.0178741455078125	2621.45954638145
0.207977294921875	-0.0179290771484375	2621.50379638134
0.20355224609375	-0.01798095703125	2621.54804638123
0.199127197265625	-0.0180419921875	2621.59229638112
0.1947021484375	-0.018096923828125	2621.636546381
0.190277099609375	-0.01815185546875	2621.68079638089
0.18585205078125	-0.018206787109375	2621.72504638078
0.181427001953125	-0.0182647705078125	2621.76929638067
0.177001953125	-0.01832275390625	2621.81354638056
0.172576904296875	-0.018377685546875	2621.85779638045
0.16815185546875	-0.018426513671875	2621.90204638033
0.163726806640625	-0.0184844970703125	2621.94629638022
0.1593017578125	-0.0185333251953125	2621.99054638011
0.154876708984375	-0.0185882568359375	2622.03479638
0.15045166015625	-0.01864013671875	2622.07904637989
0.146026611328125	-0.018695068359375	2622.12329637978
0.1416015625	-0.0187408447265625	2622.16754637966
0.137176513671875	-0.0187957763671875	2622.21179637955
0.13275146484375	-0.01884765625	2622.25604637944
0.128326416015625	-0.018890380859375	2622.30029637933
0.1239013671875	-0.018939208984375	2622.34454637922
0.119476318359375	-0.018994140625	2622.3887963791
0.11505126953125	-0.0190399169921875	2622.43304637899
0.110626220703125	-0.0190887451171875	2622.47729637888
0.106201171875	-0.0191375732421875	2622.52154637877
0.101776123046875	-0.019189453125	2622.56579637866
0.09735107421875	-0.0192413330078125	2622.61004637855
0.092926025390625	-0.019287109375	2622.65429637843
0.0885009765625	-0.0193359375	2622.69854637832
0.084075927734375	-0.0193817138671875	2622.74279637821
0.07965087890625	-0.0194305419921875	2622.7870463781
0.075225830078125	-0.0194793701171875	2622.83129637799
0.07080078125	-0.019525146484375	2622.87554637788
0.066375732421875	-0.0195648193359375	2622.91979637776
0.06195068359375	-0.0196136474609375	2622.96404637765
0.057525634765625	-0.0196563720703125	2623.00829637754
0.0531005859375	-0.0197021484375	2623.05254637743
0.048675537109375	-0.0197479248046875	2623.09679637732
0.04425048828125	-0.019793701171875	2623.14104637721
0.039825439453125	-0.01983642578125	2623.18529637709
0.035400390625	-0.0198822021484375	2623.22954637698
0.030975341796875	-0.019927978515625	2623.27379637687
0.02655029296875	-0.019970703125	2623.31804637676
0.022125244140625	-0.0200103759765625	2623.36229637665
0.0177001953125	-0.02005615234375	2623.40654637654
0.013275146484375	-0.0200958251953125	2623.45079637642
0.00885009765625	-0.0201385498046875	2623.49504637631
0.004425048828125	-0.02017822265625	2623.5392963762
0	-0.0202239990234375	2623.58354637609
0.004425048828125	-0.0195343017578125	2623.62779637598
0.00885009765625	-0.0188751220703125	2623.67204637586
0.013275146484375	-0.018231201171875	2623.71629637575
0.0177001953125	-0.0176025390625	2623.76054637564
0.022125244140625	-0.016986083984375	2623.80479637553
0.02655029296875	-0.016387939453125	2623.84904637542
0.030975341796875	-0.0157989501953125	2623.89329637531
0.035400390625	-0.0152252197265625	2623.93754637519
0.039825439453125	-0.0146636962890625	2623.98179637508
0.04425048828125	-0.0141082763671875	2624.02604637497
0.048675537109375	-0.0135711669921875	2624.07029637486
0.0531005859375	-0.013037109375	2624.11454637475
0.057525634765625	-0.01251220703125	2624.15879637464
0.06195068359375	-0.012005615234375	2624.20304637452
0.066375732421875	-0.011505126953125	2624.24729637441
0.07080078125	-0.0110107421875	2624.2915463743
0.075225830078125	-0.010528564453125	2624.33579637419
0.07965087890625	-0.010052490234375	2624.38004637408
0.084075927734375	-0.0095855712890625	2624.42429637397
0.0885009765625	-0.009130859375	2624.46854637385
0.092926025390625	-0.0086761474609375	2624.51279637374
0.09735107421875	-0.008233642578125	2624.55704637363
0.101776123046875	-0.0078033447265625	2624.60129637352
0.106201171875	-0.007373046875	2624.64554637341
0.110626220703125	-0.0069549560546875	2624.6897963733
0.11505126953125	-0.006536865234375	2624.73404637318
0.119476318359375	-0.006134033203125	2624.77829637307
0.1239013671875	-0.005731201171875	2624.82254637296
0.128326416015625	-0.0053375244140625	2624.86679637285
0.13275146484375	-0.00495086669921875	2624.91104637274
0.137176513671875	-0.0045697021484375	2624.95529637263
0.1416015625	-0.00419464111328125	2624.99954637251
0.146026611328125	-0.00382537841796875	2625.0437963724
0.15045166015625	-0.0034613037109375	2625.08804637229
0.154876708984375	-0.0031146240234375	2625.13229637218
0.1593017578125	-0.00276214599609375	2625.17654637207
0.163726806640625	-0.00241363525390625	2625.22079637195
0.16815185546875	-0.0020709228515625	2625.26504637184
0.172576904296875	-0.0017340087890625	2625.30929637173
0.177001953125	-0.0014031982421875	2625.35354637162
0.181427001953125	-0.00107666015625	2625.39779637151
0.18585205078125	-0.00075469970703125	2625.4420463714
0.190277099609375	-0.00043731689453125	2625.48629637128
0.1947021484375	-0.00012506103515625	2625.53054637117
0.199127197265625	0.000181884765625	2625.57479637106
0.20355224609375	0.000484893798828125	2625.61904637095
0.207977294921875	0.00078338623046875	2625.66329637084
0.21240234375	0.001077880859375	2625.70754637073
0.216827392578125	0.00136749267578125	2625.75179637061
0.22125244140625	0.00165283203125	2625.7960463705
0.225677490234375	0.00193359375	2625.84029637039
0.2301025390625	0.00221160888671875	2625.88454637028
0.234527587890625	0.00248321533203125	2625.92879637017
0.23895263671875	0.00275115966796875	2625.97304637006
0.243377685546875	0.003017578125	2626.01729636994
0.247802734375	0.00327789306640625	2626.06154636983
0.252227783203125	0.00353546142578125	2626.10579636972
0.25665283203125	0.003790283203125	2626.15004636961
0.261077880859375	0.00403961181640625	2626.1942963695
0.2655029296875	0.00428558349609375	2626.23854636938
0.269927978515625	0.00452911376953125	2626.28279636927
0.27435302734375	0.00476776123046875	2626.32704636916
0.278778076171875	0.0050042724609375	2626.37129636905
0.283203125	0.0052349853515625	2626.41554636894
0.287628173828125	0.00546356201171875	2626.45979636883
0.29205322265625	0.005689697265625	2626.50404636871
0.296478271484375	0.00591156005859375	2626.5482963686
0.3009033203125	0.0061285400390625	2626.59254636849
0.305328369140625	0.0063323974609375	2626.63679636838
0.30975341796875	0.0065460205078125	2626.68104636827
0.314178466796875	0.0067596435546875	2626.72529636816
0.318603515625	0.006964111328125	2626.76954636804
0.323028564453125	0.0071624755859375	2626.81379636793
0.32745361328125	0.0073638916015625	2626.85804636782
0.331878662109375	0.0075592041015625	2626.90229636771
0.3363037109375	0.0077545166015625	2626.9465463676
0.340728759765625	0.007940673828125	2626.99079636749
0.34515380859375	0.0081268310546875	2627.03504636737
0.349578857421875	0.0083160400390625	2627.07929636726
0.35400390625	0.00849609375	2627.12354636715
0.358428955078125	0.0086761474609375	2627.16779636704
0.36285400390625	0.0088531494140625	2627.21204636693
0.367279052734375	0.009027099609375	2627.25629636682
0.3717041015625	0.009197998046875	2627.3005463667
0.376129150390625	0.009368896484375	2627.34479636659
0.38055419921875	0.0095306396484375	2627.38904636648
0.384979248046875	0.0096954345703125	2627.43329636637
0.389404296875	0.009857177734375	2627.47754636626
0.393829345703125	0.010015869140625	2627.52179636615
0.39825439453125	0.010174560546875	2627.56604636603
0.402679443359375	0.0103302001953125	2627.61029636592
0.4071044921875	0.010479736328125	2627.65454636581
0.411529541015625	0.0106292724609375	2627.6987963657
0.41595458984375	0.01077880859375	2627.74304636559
0.420379638671875	0.0109222412109375	2627.78729636547
0.4248046875	0.011065673828125	2627.83154636536
0.429229736328125	0.0112030029296875	2627.87579636525
0.43365478515625	0.01134033203125	2627.92004636514
0.438079833984375	0.011480712890625	2627.96429636503
0.4425048828125	0.011614990234375	2628.00854636492
0.446929931640625	0.0117462158203125	2628.0527963648
0.45135498046875	0.01187744140625	2628.09704636469
0.455780029296875	0.0120086669921875	2628.14129636458
0.460205078125	0.0121337890625	2628.18554636447
0.464630126953125	0.012261962890625	2628.22979636436
0.46905517578125	0.012384033203125	2628.27404636425
0.473480224609375	0.0125	2628.31829636413
0.4779052734375	0.012615966796875	2628.36254636402
0.482330322265625	0.0127349853515625	2628.40679636391
0.48675537109375	0.0128509521484375	2628.4510463638
0.491180419921875	0.0129638671875	2628.49529636369
0.49560546875	0.0130828857421875	2628.53954636358
0.500030517578125	0.0131927490234375	2628.58379636346
0.50445556640625	0.0133056640625	2628.62804636335
0.508880615234375	0.0134185791015625	2628.67229636324
0.5133056640625	0.013525390625	2628.71654636313
0.517730712890625	0.0136260986328125	2628.76079636302
0.52215576171875	0.01373291015625	2628.80504636291
0.526580810546875	0.0138336181640625	2628.84929636279
0.531005859375	0.013934326171875	2628.89354636268
0.535430908203125	0.0140350341796875	2628.93779636257
0.53985595703125	0.014129638671875	2628.98204636246
0.544281005859375	0.014227294921875	2629.02629636235
0.5487060546875	0.014324951171875	2629.07054636223
0.553131103515625	0.01441650390625	2629.11479636212
0.55755615234375	0.01451416015625	2629.15904636201
0.561981201171875	0.014605712890625	2629.2032963619
0.56640625	0.014697265625	2629.24754636179
0.570831298828125	0.0147857666015625	2629.29179636168
0.57525634765625	0.014874267578125	2629.33604636156
0.579681396484375	0.0149658203125	2629.38029636145
0.5841064453125	0.015045166015625	2629.42454636134
0.588531494140625	0.015130615234375	2629.46879636123
0.59295654296875	0.0152099609375	2629.51304636112
0.597381591796875	0.0152984619140625	2629.55729636101
0.601806640625	0.0153778076171875	2629.60154636089
0.606231689453125	0.0154571533203125	2629.64579636078
0.61065673828125	0.01553955078125	2629.69004636067
0.615081787109375	0.0156097412109375	2629.73429636056
0.6195068359375	0.0156829833984375	2629.77854636045
0.623931884765625	0.015765380859375	2629.82279636034
0.62835693359375	0.015838623046875	2629.86704636022
0.632781982421875	0.0159149169921875	2629.91129636011
0.63720703125	0.0159881591796875	2629.95554636
0.641632080078125	0.016058349609375	2629.99979635989
0.64605712890625	0.0161285400390625	2630.04404635978
0.650482177734375	0.01619873046875	2630.08829635967
0.6549072265625	0.016265869140625	2630.13254635955
0.659332275390625	0.0163360595703125	2630.17679635944
0.66375732421875	0.0163970947265625	2630.22104635933
0.668182373046875	0.016461181640625	2630.26529635922
0.672607421875	0.0165313720703125	2630.30954635911
0.677032470703125	0.0165924072265625	2630.353796359
0.68145751953125	0.0166534423828125	2630.39804635888
0.685882568359375	0.0167144775390625	2630.44229635877
0.6903076171875	0.0167724609375	2630.48654635866
0.694732666015625	0.0168304443359375	2630.53079635855
0.69915771484375	0.01689453125	2630.57504635844
0.703582763671875	0.016949462890625	2630.61929635832
0.7080078125	0.0170074462890625	2630.66354635821
0.712432861328125	0.017059326171875	2630.7077963581
0.71685791015625	0.0171142578125	2630.75204635799
0.721282958984375	0.0171661376953125	2630.79629635788
0.7257080078125	0.0172119140625	2630.84054635777
0.730133056640625	0.0172637939453125	2630.88479635765
0.73455810546875	0.0173187255859375	2630.92904635754
0.738983154296875	0.01737060546875	2630.97329635743
0.743408203125	0.0174163818359375	2631.01754635732
0.747833251953125	0.017462158203125	2631.06179635721
0.75225830078125	0.0175079345703125	2631.1060463571
0.756683349609375	0.0175567626953125	2631.15029635698
0.7611083984375	0.017608642578125	2631.19454635687
0.765533447265625	0.0176513671875	2631.23879635676
0.76995849609375	0.0176971435546875	2631.28304635665
0.774383544921875	0.01773681640625	2631.32729635654
0.77880859375	0.017779541015625	2631.37154635643
0.783233642578125	0.0178192138671875	2631.41579635631
0.78765869140625	0.017864990234375	2631.4600463562
0.792083740234375	0.017901611328125	2631.50429635609
0.7965087890625	0.017950439453125	2631.54854635598
0.800933837890625	0.01798095703125	2631.59279635587
0.80535888671875	0.018017578125	2631.63704635576
0.809783935546875	0.018060302734375	2631.68129635564
0.814208984375	0.0180938720703125	2631.72554635553
0.818634033203125	0.018133544921875	2631.76979635542
0.82305908203125	0.0181671142578125	2631.81404635531
0.827484130859375	0.018206787109375	2631.8582963552
0.8319091796875	0.018243408203125	2631.90254635508
0.836334228515625	0.0182708740234375	2631.94679635497
0.84075927734375	0.018304443359375	2631.99104635486
0.845184326171875	0.0183349609375	2632.03529635475
0.849609375	0.018365478515625	2632.07954635464
0.854034423828125	0.01839599609375	2632.12379635453
0.85845947265625	0.0184356689453125	2632.16804635441
0.862884521484375	0.018463134765625	2632.2122963543
0.8673095703125	0.018499755859375	2632.25654635419
0.871734619140625	0.0185272216796875	2632.30079635408
0.87615966796875	0.0185577392578125	2632.34504635397
0.880584716796875	0.0185882568359375	2632.38929635386
0.885009765625	0.01861572265625	2632.43354635374
0.889434814453125	0.0186431884765625	2632.47779635363
0.89385986328125	0.0186767578125	2632.52204635352
0.898284912109375	0.0187042236328125	2632.56629635341
0.9027099609375	0.0187347412109375	2632.6105463533
0.907135009765625	0.018756103515625	2632.65479635319
0.91156005859375	0.0187835693359375	2632.69904635307
0.915985107421875	0.01881103515625	2632.74329635296
0.92041015625	0.0188385009765625	2632.78754635285
0.924835205078125	0.0188720703125	2632.83179635274
0.92926025390625	0.0188995361328125	2632.87604635263
0.933685302734375	0.0189239501953125	2632.92029635252
0.9381103515625	0.01895751953125	2632.9645463524
0.942535400390625	0.0189849853515625	2633.00879635229
0.94696044921875	0.0190093994140625	2633.05304635218
0.951385498046875	0.0190460205078125	2633.09729635207
0.955810546875	0.0190704345703125	2633.14154635196
0.960235595703125	0.0191009521484375	2633.18579635185
0.96466064453125	0.0191314697265625	2633.23004635173
0.969085693359375	0.0191619873046875	2633.27429635162
0.9735107421875	0.0191925048828125	2633.31854635151
0.977935791015625	0.019219970703125	2633.3627963514
0.98236083984375	0.01925048828125	2633.40704635129
0.986785888671875	0.0192840576171875	2633.45129635117
0.9912109375	0.019317626953125	2633.49554635106
0.995635986328125	0.019354248046875	2633.53979635095
1.00006103515625	0.0193878173828125	2633.58404635084
0.995635986328125	0.01868896484375	2633.62829635073
0.9912109375	0.0180145263671875	2633.67254635062
0.986785888671875	0.0173614501953125	2633.7167963505
0.98236083984375	0.0167327880859375	2633.76104635039
0.977935791015625	0.0161224365234375	2633.80529635028
0.9735107421875	0.015533447265625	2633.84954635017
0.969085693359375	0.01494140625	2633.89379635006
0.96466064453125	0.01436767578125	2633.93804634995
0.960235595703125	0.013812255859375	2633.98229634983
0.955810546875	0.013262939453125	2634.02654634972
0.951385498046875	0.012725830078125	2634.07079634961
0.94696044921875	0.0122039794921875	2634.1150463495
0.942535400390625	0.0116912841796875	2634.15929634939
0.9381103515625	0.011187744140625	2634.20354634928
0.933685302734375	0.0106964111328125	2634.24779634916
0.92926025390625	0.0102142333984375	2634.29204634905
0.924835205078125	0.0097412109375	2634.33629634894
0.92041015625	0.0092803955078125	2634.38054634883
0.915985107421875	0.0088226318359375	2634.42479634872
0.91156005859375	0.0083770751953125	2634.4690463486
0.907135009765625	0.0079345703125	2634.51329634849
0.9027099609375	0.0075103759765625	2634.55754634838
0.898284912109375	0.007086181640625	2634.60179634827
0.89385986328125	0.006671142578125	2634.64604634816
0.889434814453125	0.0062652587890625	2634.69029634805
0.885009765625	0.0058624267578125	2634.73454634793
0.880584716796875	0.0054718017578125	2634.77879634782
0.87615966796875	0.0050811767578125	2634.82304634771
0.871734619140625	0.00470184326171875	2634.8672963476
0.8673095703125	0.00432861328125	2634.91154634749
0.862884521484375	0.0039605712890625	2634.95579634738
0.85845947265625	0.0036004638671875	2635.00004634726
0.854034423828125	0.00324493408203125	2635.04429634715
0.849609375	0.00289764404296875	2635.08854634704
0.845184326171875	0.0025518798828125	2635.13279634693
0.84075927734375	0.00221099853515625	2635.17704634682
0.836334228515625	0.00187713623046875	2635.22129634671
0.8319091796875	0.00154815673828125	2635.26554634659
0.827484130859375	0.001224365234375	2635.30979634648
0.82305908203125	0.00090576171875	2635.35404634637
0.818634033203125	0.0005914306640625	2635.39829634626
0.814208984375	0.00028216552734375	2635.44254634615
0.809783935546875	-2.1893310546875E-05	2635.48679634604
0.80535888671875	-0.000322113037109375	2635.53104634592
0.800933837890625	-0.00061767578125	2635.57529634581
0.7965087890625	-0.0009088134765625	2635.6195463457
0.792083740234375	-0.001195068359375	2635.66379634559
0.78765869140625	-0.0014776611328125	2635.70804634548
0.783233642578125	-0.00175567626953125	2635.75229634537
0.77880859375	-0.0020294189453125	2635.79654634525
0.774383544921875	-0.0022998046875	2635.84079634514
0.76995849609375	-0.00256591796875	2635.88504634503
0.765533447265625	-0.00282745361328125	2635.92929634492
0.7611083984375	-0.00308624267578125	2635.97354634481
0.756683349609375	-0.00334075927734375	2636.01779634469
0.75225830078125	-0.00359130859375	2636.06204634458
0.747833251953125	-0.00383819580078125	2636.10629634447
0.743408203125	-0.0040814208984375	2636.15054634436
0.738983154296875	-0.004317626953125	2636.19479634425
0.73455810546875	-0.0045538330078125	2636.23904634414
0.730133056640625	-0.0047857666015625	2636.28329634402
0.7257080078125	-0.005013427734375	2636.32754634391
0.721282958984375	-0.0052386474609375	2636.3717963438
0.71685791015625	-0.005460205078125	2636.41604634369
0.712432861328125	-0.00567901611328125	2636.46029634358
0.7080078125	-0.005894775390625	2636.50454634347
0.703582763671875	-0.0061077880859375	2636.54879634335
0.69915771484375	-0.0062957763671875	2636.59304634324
0.694732666015625	-0.0065032958984375	2636.63729634313
0.6903076171875	-0.00670166015625	2636.68154634302
0.685882568359375	-0.0069000244140625	2636.72579634291
0.68145751953125	-0.0070953369140625	2636.7700463428
0.677032470703125	-0.00728759765625	2636.81429634268
0.672607421875	-0.0074737548828125	2636.85854634257
0.668182373046875	-0.0076629638671875	2636.90279634246
0.66375732421875	-0.0078399658203125	2636.94704634235
0.659332275390625	-0.0080230712890625	2636.99129634224
0.6549072265625	-0.008203125	2637.03554634213
0.650482177734375	-0.0083770751953125	2637.07979634201
0.64605712890625	-0.0085479736328125	2637.1240463419
0.641632080078125	-0.0087158203125	2637.16829634179
0.63720703125	-0.0088836669921875	2637.21254634168
0.632781982421875	-0.0090484619140625	2637.25679634157
0.62835693359375	-0.0092071533203125	2637.30104634145
0.623931884765625	-0.009368896484375	2637.34529634134
0.6195068359375	-0.0095245361328125	2637.38954634123
0.615081787109375	-0.0096771240234375	2637.43379634112
0.61065673828125	-0.0098297119140625	2637.47804634101
0.606231689453125	-0.009979248046875	2637.5222963409
0.601806640625	-0.0101287841796875	2637.56654634078
0.597381591796875	-0.0102691650390625	2637.61079634067
0.59295654296875	-0.01041259765625	2637.65504634056
0.588531494140625	-0.0105499267578125	2637.69929634045
0.5841064453125	-0.010687255859375	2637.74354634034
0.579681396484375	-0.010821533203125	2637.78779634023
0.57525634765625	-0.0109527587890625	2637.83204634011
0.570831298828125	-0.0110809326171875	2637.87629634
0.56640625	-0.011212158203125	2637.92054633989
0.561981201171875	-0.0113372802734375	2637.96479633978
0.55755615234375	-0.011456298828125	2638.00904633967
0.553131103515625	-0.0115814208984375	2638.05329633956
0.5487060546875	-0.0117034912109375	2638.09754633944
0.544281005859375	-0.0118255615234375	2638.14179633933
0.53985595703125	-0.0119384765625	2638.18604633922
0.535430908203125	-0.012054443359375	2638.23029633911
0.531005859375	-0.0121673583984375	2638.274546339
0.526580810546875	-0.0122772216796875	2638.31879633889
0.52215576171875	-0.01239013671875	2638.36304633877
0.517730712890625	-0.0125	2638.40729633866
0.5133056640625	-0.012603759765625	2638.45154633855
0.508880615234375	-0.0127105712890625	2638.49579633844
0.50445556640625	-0.0128143310546875	2638.54004633833
0.500030517578125	-0.0129119873046875	2638.58429633822
0.49560546875	-0.0130157470703125	2638.6285463381
0.491180419921875	-0.013116455078125	2638.67279633799
0.48675537109375	-0.013214111328125	2638.71704633788
0.482330322265625	-0.0133087158203125	2638.76129633777
0.4779052734375	-0.0134033203125	2638.80554633766
0.473480224609375	-0.0134979248046875	2638.84979633754
0.46905517578125	-0.013592529296875	2638.89404633743
0.464630126953125	-0.0136810302734375	2638.93829633732
0.460205078125	-0.01376953125	2638.98254633721
0.455780029296875	-0.0138641357421875	2639.0267963371
0.45135498046875	-0.0139495849609375	2639.07104633699
0.446929931640625	-0.0140350341796875	2639.11529633687
0.4425048828125	-0.014117431640625	2639.15954633676
0.438079833984375	-0.0141998291015625	2639.20379633665
0.43365478515625	-0.0142852783203125	2639.24804633654
0.429229736328125	-0.014361572265625	2639.29229633643
0.4248046875	-0.0144439697265625	2639.33654633632
0.420379638671875	-0.0145263671875	2639.3807963362
0.41595458984375	-0.0146026611328125	2639.42504633609
0.411529541015625	-0.0146820068359375	2639.46929633598
0.4071044921875	-0.0147552490234375	2639.51354633587
0.402679443359375	-0.0148345947265625	2639.55779633576
0.39825439453125	-0.0149078369140625	2639.60204633565
0.393829345703125	-0.0149810791015625	2639.64629633553
0.389404296875	-0.015057373046875	2639.69054633542
0.384979248046875	-0.0151336669921875	2639.73479633531
0.38055419921875	-0.0152069091796875	2639.7790463352
0.376129150390625	-0.015277099609375	2639.82329633509
0.3717041015625	-0.0153564453125	2639.86754633498
0.367279052734375	-0.015423583984375	2639.91179633486
0.36285400390625	-0.0154937744140625	2639.95604633475
0.358428955078125	-0.015570068359375	2640.00029633464
0.35400390625	-0.0156341552734375	2640.04454633453
0.349578857421875	-0.0157012939453125	2640.08879633442
0.34515380859375	-0.015771484375	2640.1330463343
0.340728759765625	-0.015838623046875	2640.17729633419
0.3363037109375	-0.0159027099609375	2640.22154633408
0.331878662109375	-0.015972900390625	2640.26579633397
0.32745361328125	-0.0160400390625	2640.31004633386
0.323028564453125	-0.0161041259765625	2640.35429633375
0.318603515625	-0.0161712646484375	2640.39854633363
0.314178466796875	-0.0162353515625	2640.44279633352
0.30975341796875	-0.0163055419921875	2640.48704633341
0.305328369140625	-0.0163726806640625	2640.5312963333
0.3009033203125	-0.0164306640625	2640.57554633319
0.296478271484375	-0.0164947509765625	2640.61979633308
0.29205322265625	-0.016558837890625	2640.66404633296
0.287628173828125	-0.0166259765625	2640.70829633285
0.283203125	-0.01668701171875	2640.75254633274
0.278778076171875	-0.016754150390625	2640.79679633263
0.27435302734375	-0.01680908203125	2640.84104633252
0.269927978515625	-0.0168701171875	2640.88529633241
0.2655029296875	-0.0169342041015625	2640.92954633229
0.261077880859375	-0.016998291015625	2640.97379633218
0.25665283203125	-0.017059326171875	2641.01804633207
0.252227783203125	-0.017120361328125	2641.06229633196
0.247802734375	-0.017181396484375	2641.10654633185
0.243377685546875	-0.0172393798828125	2641.15079633174
0.23895263671875	-0.01729736328125	2641.19504633162
0.234527587890625	-0.0173583984375	2641.23929633151
0.2301025390625	-0.0174163818359375	2641.2835463314
0.225677490234375	-0.0174774169921875	2641.32779633129
0.22125244140625	-0.0175384521484375	2641.37204633118
0.216827392578125	-0.017596435546875	2641.41629633107
0.21240234375	-0.0176605224609375	2641.46054633095
0.207977294921875	-0.0177154541015625	2641.50479633084
0.20355224609375	-0.0177764892578125	2641.54904633073
0.199127197265625	-0.01783447265625	2641.59329633062
0.1947021484375	-0.0178924560546875	2641.63754633051
0.190277099609375	-0.0179473876953125	2641.68179633039
0.18585205078125	-0.0180023193359375	2641.72604633028
0.181427001953125	-0.018060302734375	2641.77029633017
0.177001953125	-0.018115234375	2641.81454633006
0.172576904296875	-0.0181640625	2641.85879632995
0.16815185546875	-0.0182220458984375	2641.90304632984
0.163726806640625	-0.01827392578125	2641.94729632972
0.1593017578125	-0.0183319091796875	2641.99154632961
0.154876708984375	-0.018377685546875	2642.0357963295
0.15045166015625	-0.0184417724609375	2642.08004632939
0.146026611328125	-0.01849365234375	2642.12429632928
0.1416015625	-0.0185455322265625	2642.16854632917
0.137176513671875	-0.0185943603515625	2642.21279632905
0.13275146484375	-0.0186492919921875	2642.25704632894
0.128326416015625	-0.018701171875	2642.30129632883
0.1239013671875	-0.0187408447265625	2642.34554632872
0.119476318359375	-0.018792724609375	2642.38979632861
0.11505126953125	-0.0188446044921875	2642.4340463285
0.110626220703125	-0.0188873291015625	2642.47829632838
0.106201171875	-0.018939208984375	2642.52254632827
0.101776123046875	-0.01898193359375	2642.56679632816
0.09735107421875	-0.0190277099609375	2642.61104632805
0.092926025390625	-0.0190765380859375	2642.65529632794
0.0885009765625	-0.019122314453125	2642.69954632782
0.084075927734375	-0.0191741943359375	2642.74379632771
0.07965087890625	-0.019219970703125	2642.7880463276
0.075225830078125	-0.019256591796875	2642.83229632749
0.07080078125	-0.0193023681640625	2642.87654632738
0.066375732421875	-0.0193511962890625	2642.92079632727
0.06195068359375	-0.019390869140625	2642.96504632715
0.057525634765625	-0.0194366455078125	2643.00929632704
0.0531005859375	-0.019476318359375	2643.05354632693
0.048675537109375	-0.01951904296875	2643.09779632682
0.04425048828125	-0.019561767578125	2643.14204632671
0.039825439453125	-0.0196075439453125	2643.1862963266
0.035400390625	-0.0196441650390625	2643.23054632648
0.030975341796875	-0.019683837890625	2643.27479632637
0.02655029296875	-0.0197296142578125	2643.31904632626
0.022125244140625	-0.01976318359375	2643.36329632615
0.0177001953125	-0.019805908203125	2643.40754632604
0.013275146484375	-0.0198486328125	2643.45179632593
0.00885009765625	-0.0198883056640625	2643.49604632581
0.004425048828125	-0.0199310302734375	2643.5402963257
0	-0.0199676513671875	2643.58454632559
0.004425048828125	-0.019281005859375	2643.62879632548
0.00885009765625	-0.018621826171875	2643.67304632537
0.013275146484375	-0.0179779052734375	2643.71729632526
0.0177001953125	-0.0173492431640625	2643.76154632514
0.022125244140625	-0.016741943359375	2643.80579632503
0.02655029296875	-0.016143798828125	2643.85004632492
0.030975341796875	-0.015557861328125	2643.89429632481
0.035400390625	-0.014984130859375	2643.9385463247
0.039825439453125	-0.014422607421875	2643.98279632459
0.04425048828125	-0.0138702392578125	2644.02704632447
0.048675537109375	-0.013330078125	2644.07129632436
0.0531005859375	-0.0128021240234375	2644.11554632425
0.057525634765625	-0.0122802734375	2644.15979632414
0.06195068359375	-0.011773681640625	2644.20404632403
0.066375732421875	-0.011273193359375	2644.24829632391
0.07080078125	-0.010784912109375	2644.2925463238
0.075225830078125	-0.010302734375	2644.33679632369
0.07965087890625	-0.009832763671875	2644.38104632358
0.084075927734375	-0.009368896484375	2644.42529632347
0.0885009765625	-0.0089141845703125	2644.46954632336
0.092926025390625	-0.008465576171875	2644.51379632324
0.09735107421875	-0.008026123046875	2644.55804632313
0.101776123046875	-0.0075958251953125	2644.60229632302
0.106201171875	-0.0071685791015625	2644.64654632291
0.110626220703125	-0.00675048828125	2644.6907963228
0.11505126953125	-0.0063385009765625	2644.73504632269
0.119476318359375	-0.005938720703125	2644.77929632257
0.1239013671875	-0.0055389404296875	2644.82354632246
0.128326416015625	-0.0051483154296875	2644.86779632235
0.13275146484375	-0.0047637939453125	2644.91204632224
0.137176513671875	-0.00438568115234375	2644.95629632213
0.1416015625	-0.0040130615234375	2645.00054632202
0.146026611328125	-0.003646240234375	2645.0447963219
0.15045166015625	-0.00328399658203125	2645.08904632179
0.154876708984375	-0.0029388427734375	2645.13329632168
0.1593017578125	-0.0025885009765625	2645.17754632157
0.163726806640625	-0.00224334716796875	2645.22179632146
0.16815185546875	-0.0019024658203125	2645.26604632135
0.172576904296875	-0.0015673828125	2645.31029632123
0.177001953125	-0.00123809814453125	2645.35454632112
0.181427001953125	-0.00091339111328125	2645.39879632101
0.18585205078125	-0.0005938720703125	2645.4430463209
0.190277099609375	-0.000279266357421875	2645.48729632079
0.1947021484375	3.06304931640625E-05	2645.53154632067
0.199127197265625	0.000335845947265625	2645.57579632056
0.20355224609375	0.0006365966796875	2645.62004632045
0.207977294921875	0.00093292236328125	2645.66429632034
0.21240234375	0.00122528076171875	2645.70854632023
0.216827392578125	0.00151275634765625	2645.75279632012
0.22125244140625	0.00179595947265625	2645.79704632
0.225677490234375	0.00207489013671875	2645.84129631989
0.2301025390625	0.002349853515625	2645.88554631978
0.234527587890625	0.0026190185546875	2645.92979631967
0.23895263671875	0.00288665771484375	2645.97404631956
0.243377685546875	0.003150634765625	2646.01829631945
0.247802734375	0.00340972900390625	2646.06254631933
0.252227783203125	0.00366485595703125	2646.10679631922
0.25665283203125	0.003916015625	2646.15104631911
0.261077880859375	0.00416473388671875	2646.195296319
0.2655029296875	0.00440887451171875	2646.23954631889
0.269927978515625	0.00464874267578125	2646.28379631878
0.27435302734375	0.0048858642578125	2646.32804631866
0.278778076171875	0.00512176513671875	2646.37229631855
0.283203125	0.00534912109375	2646.41654631844
0.287628173828125	0.0055780029296875	2646.46079631833
0.29205322265625	0.00580169677734375	2646.50504631822
0.296478271484375	0.006021728515625	2646.54929631811
0.3009033203125	0.006231689453125	2646.59354631799
0.305328369140625	0.0064422607421875	2646.63779631788
0.30975341796875	0.00665283203125	2646.68204631777
0.314178466796875	0.0068603515625	2646.72629631766
0.318603515625	0.007061767578125	2646.77054631755
0.323028564453125	0.00726318359375	2646.81479631744
0.32745361328125	0.0074615478515625	2646.85904631732
0.331878662109375	0.00765380859375	2646.90329631721
0.3363037109375	0.0078460693359375	2646.9475463171
0.340728759765625	0.0080322265625	2646.99179631699
0.34515380859375	0.00821533203125	2647.03604631688
0.349578857421875	0.0083984375	2647.08029631676
0.35400390625	0.00858154296875	2647.12454631665
0.358428955078125	0.008758544921875	2647.16879631654
0.36285400390625	0.008929443359375	2647.21304631643
0.367279052734375	0.0091033935546875	2647.25729631632
0.3717041015625	0.0092742919921875	2647.30154631621
0.376129150390625	0.0094390869140625	2647.34579631609
0.38055419921875	0.0096038818359375	2647.39004631598
0.384979248046875	0.009771728515625	2647.43429631587
0.389404296875	0.009930419921875	2647.47854631576
0.393829345703125	0.0100830078125	2647.52279631565
0.39825439453125	0.0102386474609375	2647.56704631554
0.402679443359375	0.01038818359375	2647.61129631542
0.4071044921875	0.010540771484375	2647.65554631531
0.411529541015625	0.010687255859375	2647.6997963152
0.41595458984375	0.010833740234375	2647.74404631509
0.420379638671875	0.01097412109375	2647.78829631498
0.4248046875	0.011114501953125	2647.83254631487
0.429229736328125	0.0112518310546875	2647.87679631475
0.43365478515625	0.01138916015625	2647.92104631464
0.438079833984375	0.0115264892578125	2647.96529631453
0.4425048828125	0.011651611328125	2648.00954631442
0.446929931640625	0.011785888671875	2648.05379631431
0.45135498046875	0.0119140625	2648.0980463142
0.455780029296875	0.012042236328125	2648.14229631408
0.460205078125	0.01217041015625	2648.18654631397
0.464630126953125	0.012298583984375	2648.23079631386
0.46905517578125	0.0124176025390625	2648.27504631375
0.473480224609375	0.01253662109375	2648.31929631364
0.4779052734375	0.01265869140625	2648.36354631352
0.482330322265625	0.012774658203125	2648.40779631341
0.48675537109375	0.0128936767578125	2648.4520463133
0.491180419921875	0.0130096435546875	2648.49629631319
0.49560546875	0.01312255859375	2648.54054631308
0.500030517578125	0.0132415771484375	2648.58479631297
0.50445556640625	0.013348388671875	2648.62904631285
0.508880615234375	0.0134552001953125	2648.67329631274
0.5133056640625	0.01356201171875	2648.71754631263
0.517730712890625	0.013665771484375	2648.76179631252
0.52215576171875	0.013763427734375	2648.80604631241
0.526580810546875	0.0138641357421875	2648.8502963123
0.531005859375	0.0139678955078125	2648.89454631218
0.535430908203125	0.0140594482421875	2648.93879631207
0.53985595703125	0.014154052734375	2648.98304631196
0.544281005859375	0.0142547607421875	2649.02729631185
0.5487060546875	0.0143463134765625	2649.07154631174
0.553131103515625	0.0144378662109375	2649.11579631163
0.55755615234375	0.0145294189453125	2649.16004631151
0.561981201171875	0.014617919921875	2649.2042963114
0.56640625	0.014703369140625	2649.24854631129
0.570831298828125	0.014794921875	2649.29279631118
0.57525634765625	0.0148773193359375	2649.33704631107
0.579681396484375	0.0149658203125	2649.38129631096
0.5841064453125	0.01505126953125	2649.42554631084
0.588531494140625	0.0151336669921875	2649.46979631073
0.59295654296875	0.015216064453125	2649.51404631062
0.597381591796875	0.01529541015625	2649.55829631051
0.601806640625	0.015380859375	2649.6025463104
0.606231689453125	0.015460205078125	2649.64679631029
0.61065673828125	0.015533447265625	2649.69104631017
0.615081787109375	0.01561279296875	2649.73529631006
0.6195068359375	0.0156890869140625	2649.77954630995
0.623931884765625	0.0157623291015625	2649.82379630984
0.62835693359375	0.0158447265625	2649.86804630973
0.632781982421875	0.0159210205078125	2649.91229630961
0.63720703125	0.0159881591796875	2649.9565463095
0.641632080078125	0.0160614013671875	2650.00079630939
0.64605712890625	0.0161346435546875	2650.04504630928
0.650482177734375	0.01619873046875	2650.08929630917
0.6549072265625	0.0162689208984375	2650.13354630906
0.659332275390625	0.0163360595703125	2650.17779630894
0.66375732421875	0.016400146484375	2650.22204630883
0.668182373046875	0.0164642333984375	2650.26629630872
0.672607421875	0.016522216796875	2650.31054630861
0.677032470703125	0.0165863037109375	2650.3547963085
0.68145751953125	0.016644287109375	2650.39904630839
0.685882568359375	0.0167083740234375	2650.44329630827
0.6903076171875	0.0167755126953125	2650.48754630816
0.694732666015625	0.0168365478515625	2650.53179630805
0.69915771484375	0.01689453125	2650.57604630794
0.703582763671875	0.01695556640625	2650.62029630783
0.7080078125	0.0170135498046875	2650.66454630772
0.712432861328125	0.0170654296875	2650.7087963076
0.71685791015625	0.0171234130859375	2650.75304630749
0.721282958984375	0.01717529296875	2650.79729630738
0.7257080078125	0.017230224609375	2650.84154630727
0.730133056640625	0.0172821044921875	2650.88579630716
0.73455810546875	0.017333984375	2650.93004630704
0.738983154296875	0.0173828125	2650.97429630693
0.743408203125	0.0174285888671875	2651.01854630682
0.747833251953125	0.0174713134765625	2651.06279630671
0.75225830078125	0.0175201416015625	2651.1070463066
0.756683349609375	0.0175689697265625	2651.15129630649
0.7611083984375	0.01761474609375	2651.19554630637
0.765533447265625	0.01766357421875	2651.23979630626
0.76995849609375	0.0177001953125	2651.28404630615
0.774383544921875	0.017742919921875	2651.32829630604
0.77880859375	0.01778564453125	2651.37254630593
0.783233642578125	0.017828369140625	2651.41679630582
0.78765869140625	0.0178680419921875	2651.4610463057
0.792083740234375	0.01790771484375	2651.50529630559
0.7965087890625	0.0179443359375	2651.54954630548
0.800933837890625	0.01798095703125	2651.59379630537
0.80535888671875	0.018017578125	2651.63804630526
0.809783935546875	0.0180633544921875	2651.68229630515
0.814208984375	0.018096923828125	2651.72654630503
0.818634033203125	0.018133544921875	2651.77079630492
0.82305908203125	0.0181671142578125	2651.81504630481
0.827484130859375	0.018194580078125	2651.8592963047
0.8319091796875	0.0182281494140625	2651.90354630459
0.836334228515625	0.0182647705078125	2651.94779630448
0.84075927734375	0.01829833984375	2651.99204630436
0.845184326171875	0.0183258056640625	2652.03629630425
0.849609375	0.018359375	2652.08054630414
0.854034423828125	0.0183929443359375	2652.12479630403
0.85845947265625	0.018426513671875	2652.16904630392
0.862884521484375	0.0184539794921875	2652.21329630381
0.8673095703125	0.0184844970703125	2652.25754630369
0.871734619140625	0.018505859375	2652.30179630358
0.87615966796875	0.0185394287109375	2652.34604630347
0.880584716796875	0.01856689453125	2652.39029630336
0.885009765625	0.018597412109375	2652.43454630325
0.889434814453125	0.018621826171875	2652.47879630313
0.89385986328125	0.0186492919921875	2652.52304630302
0.898284912109375	0.0186767578125	2652.56729630291
0.9027099609375	0.0187103271484375	2652.6115463028
0.907135009765625	0.018731689453125	2652.65579630269
0.91156005859375	0.018756103515625	2652.70004630258
0.915985107421875	0.0187835693359375	2652.74429630246
0.92041015625	0.0188140869140625	2652.78854630235
0.924835205078125	0.01883544921875	2652.83279630224
0.92926025390625	0.0188690185546875	2652.87704630213
0.933685302734375	0.018902587890625	2652.92129630202
0.9381103515625	0.0189361572265625	2652.96554630191
0.942535400390625	0.0189605712890625	2653.00979630179
0.94696044921875	0.0189849853515625	2653.05404630168
0.951385498046875	0.0190185546875	2653.09829630157
0.955810546875	0.0190460205078125	2653.14254630146
0.960235595703125	0.019073486328125	2653.18679630135
0.96466064453125	0.0191009521484375	2653.23104630124
0.969085693359375	0.0191375732421875	2653.27529630112
0.9735107421875	0.0191619873046875	2653.31954630101
0.977935791015625	0.019195556640625	2653.3637963009
0.98236083984375	0.019219970703125	2653.40804630079
0.986785888671875	0.01925048828125	2653.45229630068
0.9912109375	0.0192840576171875	2653.49654630057
0.995635986328125	0.019317626953125	2653.54079630045
1.00006103515625	0.0193511962890625	2653.58504630034
0.995635986328125	0.018658447265625	2653.62929630023
0.9912109375	0.0179931640625	2653.67354630012
0.986785888671875	0.01734619140625	2653.71779630001
0.98236083984375	0.016717529296875	2653.76204629989
0.977935791015625	0.0161041259765625	2653.80629629978
0.9735107421875	0.015509033203125	2653.85054629967
0.969085693359375	0.014923095703125	2653.89479629956
0.96466064453125	0.01435546875	2653.93904629945
0.960235595703125	0.013800048828125	2653.98329629934
0.955810546875	0.0132568359375	2654.02754629922
0.951385498046875	0.0127227783203125	2654.07179629911
0.94696044921875	0.0121978759765625	2654.116046299
0.942535400390625	0.011688232421875	2654.16029629889
0.9381103515625	0.0111907958984375	2654.20454629878
0.933685302734375	0.010699462890625	2654.24879629867
0.92926025390625	0.01021728515625	2654.29304629855
0.924835205078125	0.009747314453125	2654.33729629844
0.92041015625	0.00928955078125	2654.38154629833
0.915985107421875	0.008837890625	2654.42579629822
0.91156005859375	0.008392333984375	2654.47004629811
0.907135009765625	0.0079559326171875	2654.514296298
0.9027099609375	0.00753173828125	2654.55854629788
0.898284912109375	0.007110595703125	2654.60279629777
0.89385986328125	0.0066986083984375	2654.64704629766
0.889434814453125	0.006292724609375	2654.69129629755
0.885009765625	0.0058929443359375	2654.73554629744
0.880584716796875	0.005499267578125	2654.77979629733
0.87615966796875	0.0051177978515625	2654.82404629721
0.871734619140625	0.0047393798828125	2654.8682962971
0.8673095703125	0.00436737060546875	2654.91254629699
0.862884521484375	0.0040032958984375	2654.95679629688
0.85845947265625	0.00364501953125	2655.00104629677
0.854034423828125	0.00329071044921875	2655.04529629666
0.849609375	0.002945556640625	2655.08954629654
0.845184326171875	0.0026025390625	2655.13379629643
0.84075927734375	0.0022650146484375	2655.17804629632
0.836334228515625	0.00193145751953125	2655.22229629621
0.8319091796875	0.0016033935546875	2655.2665462961
0.827484130859375	0.0012811279296875	2655.31079629598
0.82305908203125	0.00096343994140625	2655.35504629587
0.818634033203125	0.0006512451171875	2655.39929629576
0.814208984375	0.000343017578125	2655.44354629565
0.809783935546875	3.96575927734375E-05	2655.48779629554
0.80535888671875	-0.0002593994140625	2655.53204629543
0.800933837890625	-0.0005535888671875	2655.57629629531
0.7965087890625	-0.00084320068359375	2655.6205462952
0.792083740234375	-0.0011285400390625	2655.66479629509
0.78765869140625	-0.00140960693359375	2655.70904629498
0.783233642578125	-0.0016876220703125	2655.75329629487
0.77880859375	-0.00195953369140625	2655.79754629476
0.774383544921875	-0.00222900390625	2655.84179629464
0.76995849609375	-0.0024945068359375	2655.88604629453
0.765533447265625	-0.00275604248046875	2655.93029629442
0.7611083984375	-0.00301361083984375	2655.97454629431
0.756683349609375	-0.00326690673828125	2656.0187962942
0.75225830078125	-0.0035174560546875	2656.06304629409
0.747833251953125	-0.00376251220703125	2656.10729629397
0.743408203125	-0.004005126953125	2656.15154629386
0.738983154296875	-0.0042437744140625	2656.19579629375
0.73455810546875	-0.00447906494140625	2656.24004629364
0.730133056640625	-0.0047113037109375	2656.28429629353
0.7257080078125	-0.00494171142578125	2656.32854629342
0.721282958984375	-0.00516632080078125	2656.3727962933
0.71685791015625	-0.005389404296875	2656.41704629319
0.712432861328125	-0.00560546875	2656.46129629308
0.7080078125	-0.0058221435546875	2656.50554629297
0.703582763671875	-0.0060357666015625	2656.54979629286
0.69915771484375	-0.006219482421875	2656.59404629274
0.694732666015625	-0.0064208984375	2656.63829629263
0.6903076171875	-0.006622314453125	2656.68254629252
0.685882568359375	-0.0068206787109375	2656.72679629241
0.68145751953125	-0.0070159912109375	2656.7710462923
0.677032470703125	-0.007208251953125	2656.81529629219
0.672607421875	-0.0073974609375	2656.85954629207
0.668182373046875	-0.0075836181640625	2656.90379629196
0.66375732421875	-0.0077667236328125	2656.94804629185
0.659332275390625	-0.0079437255859375	2656.99229629174
0.6549072265625	-0.0081207275390625	2657.03654629163
0.650482177734375	-0.0082977294921875	2657.08079629152
0.64605712890625	-0.0084716796875	2657.1250462914
0.641632080078125	-0.0086395263671875	2657.16929629129
0.63720703125	-0.008807373046875	2657.21354629118
0.632781982421875	-0.0089691162109375	2657.25779629107
0.62835693359375	-0.009130859375	2657.30204629096
0.623931884765625	-0.0092926025390625	2657.34629629085
0.6195068359375	-0.0094451904296875	2657.39054629073
0.615081787109375	-0.0095977783203125	2657.43479629062
0.61065673828125	-0.0097503662109375	2657.47904629051
0.606231689453125	-0.0099029541015625	2657.5232962904
0.601806640625	-0.01004638671875	2657.56754629029
0.597381591796875	-0.0101837158203125	2657.61179629018
0.59295654296875	-0.0103271484375	2657.65604629006
0.588531494140625	-0.01046142578125	2657.70029628995
0.5841064453125	-0.010601806640625	2657.74454628984
0.579681396484375	-0.010736083984375	2657.78879628973
0.57525634765625	-0.010870361328125	2657.83304628962
0.570831298828125	-0.0109954833984375	2657.87729628951
0.56640625	-0.0111328125	2657.92154628939
0.561981201171875	-0.0112548828125	2657.96579628928
0.55755615234375	-0.0113800048828125	2658.01004628917
0.553131103515625	-0.0114990234375	2658.05429628906
0.5487060546875	-0.0116180419921875	2658.09854628895
0.544281005859375	-0.0117340087890625	2658.14279628883
0.53985595703125	-0.0118560791015625	2658.18704628872
0.535430908203125	-0.0119720458984375	2658.23129628861
0.531005859375	-0.0120849609375	2658.2755462885
0.526580810546875	-0.012200927734375	2658.31979628839
0.52215576171875	-0.0123077392578125	2658.36404628828
0.517730712890625	-0.01241455078125	2658.40829628816
0.5133056640625	-0.012518310546875	2658.45254628805
0.508880615234375	-0.012628173828125	2658.49679628794
0.50445556640625	-0.0127288818359375	2658.54104628783
0.500030517578125	-0.012835693359375	2658.58529628772
0.49560546875	-0.0129364013671875	2658.62954628761
0.491180419921875	-0.0130340576171875	2658.67379628749
0.48675537109375	-0.013134765625	2658.71804628738
0.482330322265625	-0.0132293701171875	2658.76229628727
0.4779052734375	-0.0133270263671875	2658.80654628716
0.473480224609375	-0.01341552734375	2658.85079628705
0.46905517578125	-0.01351318359375	2658.89504628694
0.464630126953125	-0.0136016845703125	2658.93929628682
0.460205078125	-0.0136871337890625	2658.98354628671
0.455780029296875	-0.013775634765625	2659.0277962866
0.45135498046875	-0.013861083984375	2659.07204628649
0.446929931640625	-0.0139495849609375	2659.11629628638
0.4425048828125	-0.014031982421875	2659.16054628626
0.438079833984375	-0.014117431640625	2659.20479628615
0.43365478515625	-0.0142059326171875	2659.24904628604
0.429229736328125	-0.014288330078125	2659.29329628593
0.4248046875	-0.01436767578125	2659.33754628582
0.420379638671875	-0.014447021484375	2659.38179628571
0.41595458984375	-0.0145263671875	2659.42604628559
0.411529541015625	-0.0146026611328125	2659.47029628548
0.4071044921875	-0.01468505859375	2659.51454628537
0.402679443359375	-0.0147613525390625	2659.55879628526
0.39825439453125	-0.0148345947265625	2659.60304628515
0.393829345703125	-0.014910888671875	2659.64729628504
0.389404296875	-0.014984130859375	2659.69154628492
0.384979248046875	-0.0150543212890625	2659.73579628481
0.38055419921875	-0.0151275634765625	2659.7800462847
0.376129150390625	-0.015203857421875	2659.82429628459
0.3717041015625	-0.0152740478515625	2659.86854628448
0.367279052734375	-0.01534423828125	2659.91279628437
0.36285400390625	-0.01541748046875	2659.95704628425
0.358428955078125	-0.0154815673828125	2660.00129628414
0.35400390625	-0.0155517578125	2660.04554628403
0.349578857421875	-0.0156219482421875	2660.08979628392
0.34515380859375	-0.0156890869140625	2660.13404628381
0.340728759765625	-0.015765380859375	2660.1782962837
0.3363037109375	-0.0158294677734375	2660.22254628358
0.331878662109375	-0.0158966064453125	2660.26679628347
0.32745361328125	-0.015966796875	2660.31104628336
0.323028564453125	-0.0160308837890625	2660.35529628325
0.318603515625	-0.0160980224609375	2660.39954628314
0.314178466796875	-0.0161651611328125	2660.44379628303
0.30975341796875	-0.0162353515625	2660.48804628291
0.305328369140625	-0.0162933349609375	2660.5322962828
0.3009033203125	-0.016357421875	2660.57654628269
0.296478271484375	-0.0164215087890625	2660.62079628258
0.29205322265625	-0.0164886474609375	2660.66504628247
0.287628173828125	-0.0165496826171875	2660.70929628235
0.283203125	-0.0166107177734375	2660.75354628224
0.278778076171875	-0.016668701171875	2660.79779628213
0.27435302734375	-0.016729736328125	2660.84204628202
0.269927978515625	-0.0167938232421875	2660.88629628191
0.2655029296875	-0.0168609619140625	2660.9305462818
0.261077880859375	-0.016925048828125	2660.97479628168
0.25665283203125	-0.016986083984375	2661.01904628157
0.252227783203125	-0.0170501708984375	2661.06329628146
0.247802734375	-0.0171142578125	2661.10754628135
0.243377685546875	-0.0171661376953125	2661.15179628124
0.23895263671875	-0.01722412109375	2661.19604628113
0.234527587890625	-0.01728515625	2661.24029628101
0.2301025390625	-0.0173492431640625	2661.2845462809
0.225677490234375	-0.017401123046875	2661.32879628079
0.22125244140625	-0.0174652099609375	2661.37304628068
0.216827392578125	-0.017523193359375	2661.41729628057
0.21240234375	-0.0175811767578125	2661.46154628046
0.207977294921875	-0.0176422119140625	2661.50579628034
0.20355224609375	-0.0177001953125	2661.55004628023
0.199127197265625	-0.0177520751953125	2661.59429628012
0.1947021484375	-0.01781005859375	2661.63854628001
0.190277099609375	-0.017864990234375	2661.6827962799
0.18585205078125	-0.017919921875	2661.72704627979
0.181427001953125	-0.0179718017578125	2661.77129627967
0.177001953125	-0.01802978515625	2661.81554627956
0.172576904296875	-0.0180908203125	2661.85979627945
0.16815185546875	-0.0181488037109375	2661.90404627934
0.163726806640625	-0.01820068359375	2661.94829627923
0.1593017578125	-0.018255615234375	2661.99254627911
0.154876708984375	-0.018310546875	2662.036796279
0.15045166015625	-0.0183624267578125	2662.08104627889
0.146026611328125	-0.018414306640625	2662.12529627878
0.1416015625	-0.018463134765625	2662.16954627867
0.137176513671875	-0.0185150146484375	2662.21379627856
0.13275146484375	-0.0185638427734375	2662.25804627844
0.128326416015625	-0.01861572265625	2662.30229627833
0.1239013671875	-0.0186614990234375	2662.34654627822
0.119476318359375	-0.018707275390625	2662.39079627811
0.11505126953125	-0.018756103515625	2662.435046278
0.110626220703125	-0.018804931640625	2662.47929627789
0.106201171875	-0.018853759765625	2662.52354627777
0.101776123046875	-0.0188995361328125	2662.56779627766
0.09735107421875	-0.0189483642578125	2662.61204627755
0.092926025390625	-0.0189971923828125	2662.65629627744
0.0885009765625	-0.01904296875	2662.70054627733
0.084075927734375	-0.0190948486328125	2662.74479627722
0.07965087890625	-0.0191375732421875	2662.7890462771
0.075225830078125	-0.0191802978515625	2662.83329627699
0.07080078125	-0.019219970703125	2662.87754627688
0.066375732421875	-0.01927490234375	2662.92179627677
0.06195068359375	-0.0193145751953125	2662.96604627666
0.057525634765625	-0.0193572998046875	2663.01029627655
0.0531005859375	-0.01939697265625	2663.05454627643
0.048675537109375	-0.0194427490234375	2663.09879627632
0.04425048828125	-0.0194854736328125	2663.14304627621
0.039825439453125	-0.0195281982421875	2663.1872962761
0.035400390625	-0.01956787109375	2663.23154627599
0.030975341796875	-0.0196075439453125	2663.27579627588
0.02655029296875	-0.019647216796875	2663.32004627576
0.022125244140625	-0.0196868896484375	2663.36429627565
0.0177001953125	-0.0197296142578125	2663.40854627554
0.013275146484375	-0.019769287109375	2663.45279627543
0.00885009765625	-0.01981201171875	2663.49704627532
0.004425048828125	-0.0198486328125	2663.5412962752
0	-0.0198944091796875	2663.58554627509
0.004425048828125	-0.0192169189453125	2663.62979627498
0.00885009765625	-0.0185577392578125	2663.67404627487
0.013275146484375	-0.017919921875	2663.71829627476
0.0177001953125	-0.017291259765625	2663.76254627465
0.022125244140625	-0.0166839599609375	2663.80679627453
0.02655029296875	-0.0160888671875	2663.85104627442
0.030975341796875	-0.015509033203125	2663.89529627431
0.035400390625	-0.0149383544921875	2663.9395462742
0.039825439453125	-0.0143768310546875	2663.98379627409
0.04425048828125	-0.01383056640625	2664.02804627398
0.048675537109375	-0.013287353515625	2664.07229627386
0.0531005859375	-0.012762451171875	2664.11654627375
0.057525634765625	-0.0122467041015625	2664.16079627364
0.06195068359375	-0.0117401123046875	2664.20504627353
0.066375732421875	-0.01124267578125	2664.24929627342
0.07080078125	-0.0107635498046875	2664.29354627331
0.075225830078125	-0.0102813720703125	2664.33779627319
0.07965087890625	-0.009814453125	2664.38204627308
0.084075927734375	-0.0093505859375	2664.42629627297
0.0885009765625	-0.008892822265625	2664.47054627286
0.092926025390625	-0.008447265625	2664.51479627275
0.09735107421875	-0.0080078125	2664.55904627263
0.101776123046875	-0.0075836181640625	2664.60329627252
0.106201171875	-0.007159423828125	2664.64754627241
0.110626220703125	-0.006744384765625	2664.6917962723
0.11505126953125	-0.0063323974609375	2664.73604627219
0.119476318359375	-0.0059326171875	2664.78029627208
0.1239013671875	-0.0055328369140625	2664.82454627196
0.128326416015625	-0.005145263671875	2664.86879627185
0.13275146484375	-0.0047625732421875	2664.91304627174
0.137176513671875	-0.0043853759765625	2664.95729627163
0.1416015625	-0.00401519775390625	2665.00154627152
0.146026611328125	-0.00364990234375	2665.04579627141
0.15045166015625	-0.00329132080078125	2665.09004627129
0.154876708984375	-0.00294921875	2665.13429627118
0.1593017578125	-0.0026007080078125	2665.17854627107
0.163726806640625	-0.00225799560546875	2665.22279627096
0.16815185546875	-0.00191986083984375	2665.26704627085
0.172576904296875	-0.00158660888671875	2665.31129627074
0.177001953125	-0.0012591552734375	2665.35554627062
0.181427001953125	-0.00093658447265625	2665.39979627051
0.18585205078125	-0.000618896484375	2665.4440462704
0.190277099609375	-0.000305450439453125	2665.48829627029
0.1947021484375	2.9327392578125E-06	2665.53254627018
0.199127197265625	0.000306365966796875	2665.57679627007
0.20355224609375	0.00060577392578125	2665.62104626995
0.207977294921875	0.00090118408203125	2665.66529626984
0.21240234375	0.00119140625	2665.70954626973
0.216827392578125	0.00147857666015625	2665.75379626962
0.22125244140625	0.00176025390625	2665.79804626951
0.225677490234375	0.00203826904296875	2665.8422962694
0.2301025390625	0.00231231689453125	2665.88654626928
0.234527587890625	0.00258026123046875	2665.93079626917
0.23895263671875	0.0028460693359375	2665.97504626906
0.243377685546875	0.00310882568359375	2666.01929626895
0.247802734375	0.00336517333984375	2666.06354626884
0.252227783203125	0.0036187744140625	2666.10779626872
0.25665283203125	0.00387054443359375	2666.15204626861
0.261077880859375	0.0041180419921875	2666.1962962685
0.2655029296875	0.0043609619140625	2666.24054626839
0.269927978515625	0.004600830078125	2666.28479626828
0.27435302734375	0.00483673095703125	2666.32904626817
0.278778076171875	0.00507110595703125	2666.37329626805
0.283203125	0.00529937744140625	2666.41754626794
0.287628173828125	0.00552520751953125	2666.46179626783
0.29205322265625	0.0057501220703125	2666.50604626772
0.296478271484375	0.00596771240234375	2666.55029626761
0.3009033203125	0.0061859130859375	2666.5945462675
0.305328369140625	0.0063873291015625	2666.63879626738
0.30975341796875	0.006597900390625	2666.68304626727
0.314178466796875	0.0068084716796875	2666.72729626716
0.318603515625	0.0070098876953125	2666.77154626705
0.323028564453125	0.007208251953125	2666.81579626694
0.32745361328125	0.0074066162109375	2666.86004626683
0.331878662109375	0.007598876953125	2666.90429626671
0.3363037109375	0.0077880859375	2666.9485462666
0.340728759765625	0.0079742431640625	2666.99279626649
0.34515380859375	0.008160400390625	2667.03704626638
0.349578857421875	0.008343505859375	2667.08129626627
0.35400390625	0.0085235595703125	2667.12554626616
0.358428955078125	0.008697509765625	2667.16979626604
0.36285400390625	0.0088714599609375	2667.21404626593
0.367279052734375	0.00904541015625	2667.25829626582
0.3717041015625	0.00921630859375	2667.30254626571
0.376129150390625	0.0093841552734375	2667.3467962656
0.38055419921875	0.0095428466796875	2667.39104626548
0.384979248046875	0.009710693359375	2667.43529626537
0.389404296875	0.009869384765625	2667.47954626526
0.393829345703125	0.0100250244140625	2667.52379626515
0.39825439453125	0.0101806640625	2667.56804626504
0.402679443359375	0.010333251953125	2667.61229626493
0.4071044921875	0.0104827880859375	2667.65654626481
0.411529541015625	0.0106292724609375	2667.7007962647
0.41595458984375	0.0107818603515625	2667.74504626459
0.420379638671875	0.0109222412109375	2667.78929626448
0.4248046875	0.0110595703125	2667.83354626437
0.429229736328125	0.0112030029296875	2667.87779626426
0.43365478515625	0.01134033203125	2667.92204626414
0.438079833984375	0.011474609375	2667.96629626403
0.4425048828125	0.0116119384765625	2668.01054626392
0.446929931640625	0.0117431640625	2668.05479626381
0.45135498046875	0.011871337890625	2668.0990462637
0.455780029296875	0.0120025634765625	2668.14329626359
0.460205078125	0.01212158203125	2668.18754626347
0.464630126953125	0.01224365234375	2668.23179626336
0.46905517578125	0.01236572265625	2668.27604626325
0.473480224609375	0.0124847412109375	2668.32029626314
0.4779052734375	0.0126068115234375	2668.36454626303
0.482330322265625	0.0127227783203125	2668.40879626292
0.48675537109375	0.0128448486328125	2668.4530462628
0.491180419921875	0.0129547119140625	2668.49729626269
0.49560546875	0.0130706787109375	2668.54154626258
0.500030517578125	0.0131866455078125	2668.58579626247
0.50445556640625	0.01329345703125	2668.63004626236
0.508880615234375	0.013397216796875	2668.67429626225
0.5133056640625	0.013507080078125	2668.71854626213
0.517730712890625	0.0136077880859375	2668.76279626202
0.52215576171875	0.013714599609375	2668.80704626191
0.526580810546875	0.0138153076171875	2668.8512962618
0.531005859375	0.0139129638671875	2668.89554626169
0.535430908203125	0.0140106201171875	2668.93979626157
0.53985595703125	0.0141021728515625	2668.98404626146
0.544281005859375	0.0141937255859375	2669.02829626135
0.5487060546875	0.0142913818359375	2669.07254626124
0.553131103515625	0.014385986328125	2669.11679626113
0.55755615234375	0.0144805908203125	2669.16104626102
0.561981201171875	0.014569091796875	2669.2052962609
0.56640625	0.014654541015625	2669.24954626079
0.570831298828125	0.0147430419921875	2669.29379626068
0.57525634765625	0.0148345947265625	2669.33804626057
0.579681396484375	0.014923095703125	2669.38229626046
0.5841064453125	0.015008544921875	2669.42654626035
0.588531494140625	0.0150909423828125	2669.47079626023
0.59295654296875	0.0151702880859375	2669.51504626012
0.597381591796875	0.0152496337890625	2669.55929626001
0.601806640625	0.01533203125	2669.6035462599
0.606231689453125	0.0154144287109375	2669.64779625979
0.61065673828125	0.0154937744140625	2669.69204625968
0.615081787109375	0.0155731201171875	2669.73629625956
0.6195068359375	0.0156463623046875	2669.78054625945
0.623931884765625	0.0157196044921875	2669.82479625934
0.62835693359375	0.0157958984375	2669.86904625923
0.632781982421875	0.015869140625	2669.91329625912
0.63720703125	0.0159454345703125	2669.95754625901
0.641632080078125	0.0160186767578125	2670.00179625889
0.64605712890625	0.0160888671875	2670.04604625878
0.650482177734375	0.0161529541015625	2670.09029625867
0.6549072265625	0.01622314453125	2670.13454625856
0.659332275390625	0.01629638671875	2670.17879625845
0.66375732421875	0.016357421875	2670.22304625833
0.668182373046875	0.0164215087890625	2670.26729625822
0.672607421875	0.0164886474609375	2670.31154625811
0.677032470703125	0.0165496826171875	2670.355796258
0.68145751953125	0.0166046142578125	2670.40004625789
0.685882568359375	0.016668701171875	2670.44429625778
0.6903076171875	0.01673583984375	2670.48854625766
0.694732666015625	0.016796875	2670.53279625755
0.69915771484375	0.0168548583984375	2670.57704625744
0.703582763671875	0.01690673828125	2670.62129625733
0.7080078125	0.0169677734375	2670.66554625722
0.712432861328125	0.017022705078125	2670.70979625711
0.71685791015625	0.01707763671875	2670.75404625699
0.721282958984375	0.0171295166015625	2670.79829625688
0.7257080078125	0.0171783447265625	2670.84254625677
0.730133056640625	0.017230224609375	2670.88679625666
0.73455810546875	0.0172821044921875	2670.93104625655
0.738983154296875	0.0173370361328125	2670.97529625644
0.743408203125	0.017376708984375	2671.01954625632
0.747833251953125	0.017425537109375	2671.06379625621
0.75225830078125	0.017474365234375	2671.1080462561
0.756683349609375	0.017523193359375	2671.15229625599
0.7611083984375	0.01756591796875	2671.19654625588
0.765533447265625	0.01761474609375	2671.24079625577
0.76995849609375	0.017657470703125	2671.28504625565
0.774383544921875	0.017694091796875	2671.32929625554
0.77880859375	0.01773681640625	2671.37354625543
0.783233642578125	0.0177764892578125	2671.41779625532
0.78765869140625	0.0178192138671875	2671.46204625521
0.792083740234375	0.017864990234375	2671.5062962551
0.7965087890625	0.017901611328125	2671.55054625498
0.800933837890625	0.0179473876953125	2671.59479625487
0.80535888671875	0.0179840087890625	2671.63904625476
0.809783935546875	0.0180206298828125	2671.68329625465
0.814208984375	0.0180572509765625	2671.72754625454
0.818634033203125	0.0180938720703125	2671.77179625442
0.82305908203125	0.0181243896484375	2671.81604625431
0.827484130859375	0.0181640625	2671.8602962542
0.8319091796875	0.0181976318359375	2671.90454625409
0.836334228515625	0.018231201171875	2671.94879625398
0.84075927734375	0.01826171875	2671.99304625387
0.845184326171875	0.01829833984375	2672.03729625375
0.849609375	0.018328857421875	2672.08154625364
0.854034423828125	0.0183624267578125	2672.12579625353
0.85845947265625	0.01839599609375	2672.17004625342
0.862884521484375	0.01842041015625	2672.21429625331
0.8673095703125	0.01845703125	2672.2585462532
0.871734619140625	0.0184814453125	2672.30279625308
0.87615966796875	0.018511962890625	2672.34704625297
0.880584716796875	0.0185394287109375	2672.39129625286
0.885009765625	0.01856689453125	2672.43554625275
0.889434814453125	0.0185943603515625	2672.47979625264
0.89385986328125	0.018621826171875	2672.52404625253
0.898284912109375	0.0186492919921875	2672.56829625241
0.9027099609375	0.0186767578125	2672.6125462523
0.907135009765625	0.0186981201171875	2672.65679625219
0.91156005859375	0.0187255859375	2672.70104625208
0.915985107421875	0.0187591552734375	2672.74529625197
0.92041015625	0.0187896728515625	2672.78954625185
0.924835205078125	0.0188201904296875	2672.83379625174
0.92926025390625	0.01884765625	2672.87804625163
0.933685302734375	0.0188720703125	2672.92229625152
0.9381103515625	0.018896484375	2672.96654625141
0.942535400390625	0.0189239501953125	2673.0107962513
0.94696044921875	0.01895751953125	2673.05504625118
0.951385498046875	0.018988037109375	2673.09929625107
0.955810546875	0.0190093994140625	2673.14354625096
0.960235595703125	0.019036865234375	2673.18779625085
0.96466064453125	0.0190673828125	2673.23204625074
0.969085693359375	0.0190948486328125	2673.27629625063
0.9735107421875	0.0191253662109375	2673.32054625051
0.977935791015625	0.0191558837890625	2673.3647962504
0.98236083984375	0.0191864013671875	2673.40904625029
0.986785888671875	0.019219970703125	2673.45329625018
0.9912109375	0.0192474365234375	2673.49754625007
