Potential applied (V)	WE(1).Current (A)	Time (s)
0.004425048828125	-0.0781005859375	2461.9391047842
0.00885009765625	-0.07359619140625	2462.02760578398
0.013275146484375	-0.0697052001953125	2462.11610678375
0.0177001953125	-0.066143798828125	2462.20460778353
0.022125244140625	-0.06282958984375	2462.29310878331
0.02655029296875	-0.0597442626953125	2462.38160978308
0.030975341796875	-0.05682373046875	2462.47011078286
0.035400390625	-0.0540740966796875	2462.55861178264
0.039825439453125	-0.0514923095703125	2462.64711278241
0.04425048828125	-0.0490447998046875	2462.73561378219
0.048675537109375	-0.046759033203125	2462.82411478197
0.0531005859375	-0.04459228515625	2462.91261578174
0.057525634765625	-0.042510986328125	2463.00111678152
0.06195068359375	-0.0405670166015625	2463.0896177813
0.066375732421875	-0.0387298583984375	2463.17811878107
0.07080078125	-0.0369842529296875	2463.26661978085
0.075225830078125	-0.035321044921875	2463.35512078063
0.07965087890625	-0.0337432861328125	2463.4436217804
0.084075927734375	-0.0322479248046875	2463.53212278018
0.0885009765625	-0.0308135986328125	2463.62062377996
0.092926025390625	-0.0294464111328125	2463.70912477973
0.09735107421875	-0.028131103515625	2463.79762577951
0.101776123046875	-0.02689208984375	2463.88612677929
0.106201171875	-0.025701904296875	2463.97462777906
0.110626220703125	-0.0245635986328125	2464.06312877884
0.11505126953125	-0.0234649658203125	2464.15162977862
0.119476318359375	-0.0224151611328125	2464.24013077839
0.1239013671875	-0.021405029296875	2464.32863177817
0.128326416015625	-0.0204315185546875	2464.41713277794
0.13275146484375	-0.0195037841796875	2464.50563377772
0.137176513671875	-0.018603515625	2464.5941347775
0.1416015625	-0.01773681640625	2464.68263577727
0.146026611328125	-0.0168975830078125	2464.77113677705
0.15045166015625	-0.0160858154296875	2464.85963777683
0.154876708984375	-0.0153045654296875	2464.9481387766
0.1593017578125	-0.0145538330078125	2465.03663977638
0.163726806640625	-0.01383056640625	2465.12514077616
0.16815185546875	-0.013128662109375	2465.21364177593
0.172576904296875	-0.012445068359375	2465.30214277571
0.177001953125	-0.0117889404296875	2465.39064377549
0.181427001953125	-0.0111541748046875	2465.47914477526
0.18585205078125	-0.010540771484375	2465.56764577504
0.190277099609375	-0.0099456787109375	2465.65614677482
0.1947021484375	-0.009368896484375	2465.74464777459
0.199127197265625	-0.008807373046875	2465.83314877437
0.20355224609375	-0.00826416015625	2465.92164977415
0.207977294921875	-0.0077423095703125	2466.01015077392
0.21240234375	-0.0072296142578125	2466.0986517737
0.216827392578125	-0.00673828125	2466.18715277348
0.22125244140625	-0.0062591552734375	2466.27565377325
0.225677490234375	-0.0057952880859375	2466.36415477303
0.2301025390625	-0.0053436279296875	2466.45265577281
0.234527587890625	-0.00491058349609375	2466.54115677258
0.23895263671875	-0.00448638916015625	2466.62965777236
0.243377685546875	-0.004075927734375	2466.71815877214
0.247802734375	-0.00367706298828125	2466.80665977191
0.252227783203125	-0.003289794921875	2466.89516077169
0.25665283203125	-0.00292572021484375	2466.98366177146
0.261077880859375	-0.0025592041015625	2467.07216277124
0.2655029296875	-0.0022039794921875	2467.16066377102
0.269927978515625	-0.00185882568359375	2467.24916477079
0.27435302734375	-0.00152435302734375	2467.33766577057
0.278778076171875	-0.00119873046875	2467.42616677035
0.283203125	-0.0008831787109375	2467.51466777012
0.287628173828125	-0.00057647705078125	2467.6031687699
0.29205322265625	-0.000278564453125	2467.69166976968
0.296478271484375	1.0748291015625E-05	2467.78017076945
0.3009033203125	0.000291778564453125	2467.86867176923
0.305328369140625	0.00056488037109375	2467.95717276901
0.30975341796875	0.00083038330078125	2468.04567376878
0.314178466796875	0.00109130859375	2468.13417476856
0.318603515625	0.001341552734375	2468.22267576834
0.323028564453125	0.00158477783203125	2468.31117676811
0.32745361328125	0.00182098388671875	2468.39967776789
0.331878662109375	0.00205108642578125	2468.48817876767
0.3363037109375	0.0022747802734375	2468.57667976744
0.340728759765625	0.00249176025390625	2468.66518076722
0.34515380859375	0.0027032470703125	2468.753681767
0.349578857421875	0.00290863037109375	2468.84218276677
0.35400390625	0.00310455322265625	2468.93068376655
0.358428955078125	0.00329803466796875	2469.01918476633
0.36285400390625	0.0034857177734375	2469.1076857661
0.367279052734375	0.0036676025390625	2469.19618676588
0.3717041015625	0.00384613037109375	2469.28468776566
0.376129150390625	0.00401763916015625	2469.37318876543
0.38055419921875	0.0041839599609375	2469.46168976521
0.384979248046875	0.00434600830078125	2469.55019076499
0.389404296875	0.00450531005859375	2469.63869176476
0.393829345703125	0.0046575927734375	2469.72719276454
0.39825439453125	0.0048077392578125	2469.81569376431
0.402679443359375	0.00495361328125	2469.90419476409
0.4071044921875	0.005093994140625	2469.99269576387
0.411529541015625	0.00523193359375	2470.08119676364
0.41595458984375	0.00536590576171875	2470.16969776342
0.420379638671875	0.00549560546875	2470.2581987632
0.4248046875	0.0056219482421875	2470.34669976297
0.429229736328125	0.00574462890625	2470.43520076275
0.43365478515625	0.00586456298828125	2470.52370176253
0.438079833984375	0.00598236083984375	2470.6122027623
0.4425048828125	0.00609405517578125	2470.70070376208
0.446929931640625	0.0061981201171875	2470.78920476186
0.45135498046875	0.0063018798828125	2470.87770576163
0.455780029296875	0.006402587890625	2470.96620676141
0.460205078125	0.006500244140625	2471.05470776119
0.464630126953125	0.0065948486328125	2471.14320876096
0.46905517578125	0.0066925048828125	2471.23170976074
0.473480224609375	0.006787109375	2471.32021076052
0.4779052734375	0.0068756103515625	2471.40871176029
0.482330322265625	0.006964111328125	2471.49721276007
0.48675537109375	0.007049560546875	2471.58571375985
0.491180419921875	0.007135009765625	2471.67421475962
0.49560546875	0.0072174072265625	2471.7627157594
0.500030517578125	0.007293701171875	2471.85121675918
0.50445556640625	0.0073699951171875	2471.93971775895
0.508880615234375	0.0074462890625	2472.02821875873
0.5133056640625	0.0075225830078125	2472.11671975851
0.517730712890625	0.0075927734375	2472.20522075828
0.52215576171875	0.0076629638671875	2472.29372175806
0.526580810546875	0.0077301025390625	2472.38222275783
0.531005859375	0.007794189453125	2472.47072375761
0.535430908203125	0.007855224609375	2472.55922475739
0.53985595703125	0.007916259765625	2472.64772575716
0.544281005859375	0.007977294921875	2472.73622675694
0.5487060546875	0.0080352783203125	2472.82472775672
0.553131103515625	0.0080963134765625	2472.91322875649
0.55755615234375	0.0081512451171875	2473.00172975627
0.561981201171875	0.0082061767578125	2473.09023075605
0.56640625	0.0082611083984375	2473.17873175582
0.570831298828125	0.00831298828125	2473.2672327556
0.57525634765625	0.00836181640625	2473.35573375538
0.579681396484375	0.0084136962890625	2473.44423475515
0.5841064453125	0.00845947265625	2473.53273575493
0.588531494140625	0.0085052490234375	2473.62123675471
0.59295654296875	0.008551025390625	2473.70973775448
0.597381591796875	0.0085968017578125	2473.79823875426
0.601806640625	0.0086395263671875	2473.88673975404
0.606231689453125	0.0086822509765625	2473.97524075381
0.61065673828125	0.0087249755859375	2474.06374175359
0.615081787109375	0.0087677001953125	2474.15224275337
0.6195068359375	0.008807373046875	2474.24074375314
0.623931884765625	0.0088470458984375	2474.32924475292
0.62835693359375	0.0088836669921875	2474.4177457527
0.632781982421875	0.0089202880859375	2474.50624675247
0.63720703125	0.0089569091796875	2474.59474775225
0.641632080078125	0.0089874267578125	2474.68324875203
0.64605712890625	0.00902099609375	2474.7717497518
0.650482177734375	0.0090545654296875	2474.86025075158
0.6549072265625	0.0090850830078125	2474.94875175136
0.659332275390625	0.00911865234375	2475.03725275113
0.66375732421875	0.00914306640625	2475.12575375091
0.668182373046875	0.009173583984375	2475.21425475068
0.672607421875	0.0092041015625	2475.30275575046
0.677032470703125	0.0092315673828125	2475.39125675024
0.68145751953125	0.0092559814453125	2475.47975775001
0.685882568359375	0.0092803955078125	2475.56825874979
0.6903076171875	0.0093048095703125	2475.65675974957
0.694732666015625	0.009326171875	2475.74526074934
0.69915771484375	0.0093505859375	2475.83376174912
0.703582763671875	0.0093719482421875	2475.9222627489
0.7080078125	0.0093902587890625	2476.01076374867
0.712432861328125	0.0094146728515625	2476.09926474845
0.71685791015625	0.0094329833984375	2476.18776574823
0.721282958984375	0.009454345703125	2476.276266748
0.7257080078125	0.0094757080078125	2476.36476774778
0.730133056640625	0.009490966796875	2476.45326874756
0.73455810546875	0.009515380859375	2476.54176974733
0.738983154296875	0.00953369140625	2476.63027074711
0.743408203125	0.0095489501953125	2476.71877174689
0.747833251953125	0.0095672607421875	2476.80727274666
0.75225830078125	0.0095855712890625	2476.89577374644
0.756683349609375	0.009600830078125	2476.98427474622
0.7611083984375	0.009619140625	2477.07277574599
0.765533447265625	0.009637451171875	2477.16127674577
0.76995849609375	0.0096527099609375	2477.24977774555
0.774383544921875	0.00966796875	2477.33827874532
0.77880859375	0.0096832275390625	2477.4267797451
0.783233642578125	0.009698486328125	2477.51528074488
0.78765869140625	0.009716796875	2477.60378174465
0.792083740234375	0.0097320556640625	2477.69228274443
0.7965087890625	0.009747314453125	2477.78078374421
0.800933837890625	0.009765625	2477.86928474398
0.80535888671875	0.009783935546875	2477.95778574376
0.809783935546875	0.0097991943359375	2478.04628674353
0.814208984375	0.009814453125	2478.13478774331
0.818634033203125	0.0098297119140625	2478.22328874309
0.82305908203125	0.009844970703125	2478.31178974286
0.827484130859375	0.0098602294921875	2478.40029074264
0.8319091796875	0.00987548828125	2478.48879174242
0.836334228515625	0.0098968505859375	2478.57729274219
0.84075927734375	0.0099151611328125	2478.66579374197
0.845184326171875	0.009930419921875	2478.75429474175
0.849609375	0.0099456787109375	2478.84279574152
0.854034423828125	0.0099639892578125	2478.9312967413
0.85845947265625	0.0099853515625	2479.01979774108
0.862884521484375	0.0100006103515625	2479.10829874085
0.8673095703125	0.01002197265625	2479.19679974063
0.871734619140625	0.01004638671875	2479.28530074041
0.87615966796875	0.01007080078125	2479.37380174018
0.880584716796875	0.0100921630859375	2479.46230273996
0.885009765625	0.0101165771484375	2479.55080373974
0.889434814453125	0.01014404296875	2479.63930473951
0.89385986328125	0.01016845703125	2479.72780573929
0.898284912109375	0.0101898193359375	2479.81630673907
0.9027099609375	0.0102203369140625	2479.90480773884
0.907135009765625	0.0102508544921875	2479.99330873862
0.91156005859375	0.0102783203125	2480.0818097384
0.915985107421875	0.010308837890625	2480.17031073817
0.92041015625	0.0103424072265625	2480.25881173795
0.924835205078125	0.0103729248046875	2480.34731273773
0.92926025390625	0.010406494140625	2480.4358137375
0.933685302734375	0.0104461669921875	2480.52431473728
0.9381103515625	0.0104888916015625	2480.61281573705
0.942535400390625	0.010528564453125	2480.70131673683
0.94696044921875	0.0105682373046875	2480.78981773661
0.951385498046875	0.0106109619140625	2480.87831873638
0.955810546875	0.0106597900390625	2480.96681973616
0.960235595703125	0.01070556640625	2481.05532073594
0.96466064453125	0.01075439453125	2481.14382173571
0.969085693359375	0.0108062744140625	2481.23232273549
0.9735107421875	0.010858154296875	2481.32082373527
0.977935791015625	0.010906982421875	2481.40932473504
0.98236083984375	0.0109588623046875	2481.49782573482
0.986785888671875	0.011016845703125	2481.5863267346
0.9912109375	0.011077880859375	2481.67482773437
0.995635986328125	0.0111328125	2481.76332873415
1.00006103515625	0.011199951171875	2481.85182973393
0.995635986328125	0.0105712890625	2481.9403307337
0.9912109375	0.00997314453125	2482.02883173348
0.986785888671875	0.0093994140625	2482.11733273326
0.98236083984375	0.00885009765625	2482.20583373303
0.977935791015625	0.0083221435546875	2482.29433473281
0.9735107421875	0.007818603515625	2482.38283573259
0.969085693359375	0.0073272705078125	2482.47133673236
0.96466064453125	0.006854248046875	2482.55983773214
0.960235595703125	0.0063934326171875	2482.64833873192
0.955810546875	0.005950927734375	2482.73683973169
0.951385498046875	0.0055206298828125	2482.82534073147
0.94696044921875	0.0051025390625	2482.91384173125
0.942535400390625	0.00469573974609375	2483.00234273102
0.9381103515625	0.0042999267578125	2483.0908437308
0.933685302734375	0.0039129638671875	2483.17934473057
0.92926025390625	0.00353851318359375	2483.26784573035
0.924835205078125	0.0031756591796875	2483.35634673013
0.92041015625	0.00282318115234375	2483.4448477299
0.915985107421875	0.00247711181640625	2483.53334872968
0.91156005859375	0.0021392822265625	2483.62184972946
0.907135009765625	0.001810302734375	2483.71035072923
0.9027099609375	0.0014886474609375	2483.79885172901
0.898284912109375	0.0011749267578125	2483.88735272879
0.89385986328125	0.00086883544921875	2483.97585372856
0.889434814453125	0.00056976318359375	2484.06435472834
0.885009765625	0.00027752685546875	2484.15285572812
0.880584716796875	-7.7545166015625E-06	2484.24135672789
0.87615966796875	-0.0002862548828125	2484.32985772767
0.871734619140625	-0.00055816650390625	2484.41835872745
0.8673095703125	-0.000823974609375	2484.50685972722
0.862884521484375	-0.00108306884765625	2484.595360727
0.85845947265625	-0.00133544921875	2484.68386172678
0.854034423828125	-0.001583251953125	2484.77236272655
0.849609375	-0.001824951171875	2484.86086372633
0.845184326171875	-0.00206085205078125	2484.94936472611
0.84075927734375	-0.00229156494140625	2485.03786572588
0.836334228515625	-0.00251708984375	2485.12636672566
0.8319091796875	-0.00273651123046875	2485.21486772544
0.827484130859375	-0.00295196533203125	2485.30336872521
0.82305908203125	-0.00316162109375	2485.39186972499
0.818634033203125	-0.00336639404296875	2485.48037072477
0.814208984375	-0.00356536865234375	2485.56887172454
0.809783935546875	-0.00375946044921875	2485.65737272432
0.80535888671875	-0.00394866943359375	2485.74587372409
0.800933837890625	-0.0041357421875	2485.83437472387
0.7965087890625	-0.00431365966796875	2485.92287572365
0.792083740234375	-0.004490966796875	2486.01137672342
0.78765869140625	-0.0046612548828125	2486.0998777232
0.783233642578125	-0.0048309326171875	2486.18837872298
0.77880859375	-0.00498992919921875	2486.27687972275
0.774383544921875	-0.00514892578125	2486.36538072253
0.76995849609375	-0.0053021240234375	2486.45388172231
0.765533447265625	-0.00545440673828125	2486.54238272208
0.7611083984375	-0.00559814453125	2486.63088372186
0.756683349609375	-0.0057403564453125	2486.71938472164
0.75225830078125	-0.005877685546875	2486.80788572141
0.747833251953125	-0.0060107421875	2486.89638672119
0.743408203125	-0.006121826171875	2486.98488772097
0.738983154296875	-0.006243896484375	2487.07338872074
0.73455810546875	-0.006365966796875	2487.16188972052
0.730133056640625	-0.0064849853515625	2487.2503907203
0.7257080078125	-0.0066009521484375	2487.33889172007
0.721282958984375	-0.0067138671875	2487.42739271985
0.71685791015625	-0.00682373046875	2487.51589371963
0.712432861328125	-0.006927490234375	2487.6043947194
0.7080078125	-0.0070281982421875	2487.69289571918
0.703582763671875	-0.00712890625	2487.78139671896
0.69915771484375	-0.0072235107421875	2487.86989771873
0.694732666015625	-0.0073150634765625	2487.95839871851
0.6903076171875	-0.0074005126953125	2488.04689971829
0.685882568359375	-0.007489013671875	2488.13540071806
0.68145751953125	-0.0075714111328125	2488.22390171784
0.677032470703125	-0.0076568603515625	2488.31240271761
0.672607421875	-0.007733154296875	2488.40090371739
0.668182373046875	-0.0078033447265625	2488.48940471717
0.66375732421875	-0.0078765869140625	2488.57790571694
0.659332275390625	-0.00794677734375	2488.66640671672
0.6549072265625	-0.0080169677734375	2488.7549077165
0.650482177734375	-0.0080810546875	2488.84340871627
0.64605712890625	-0.0081451416015625	2488.93190971605
0.641632080078125	-0.0082061767578125	2489.02041071583
0.63720703125	-0.00826416015625	2489.1089117156
0.632781982421875	-0.008319091796875	2489.19741271538
0.62835693359375	-0.0083740234375	2489.28591371516
0.623931884765625	-0.008428955078125	2489.37441471493
0.6195068359375	-0.008477783203125	2489.46291571471
0.615081787109375	-0.00853271484375	2489.55141671449
0.61065673828125	-0.0085784912109375	2489.63991771426
0.606231689453125	-0.0086212158203125	2489.72841871404
0.601806640625	-0.0086639404296875	2489.81691971382
0.597381591796875	-0.0087066650390625	2489.90542071359
0.59295654296875	-0.0087493896484375	2489.99392171337
0.588531494140625	-0.0087860107421875	2490.08242271315
0.5841064453125	-0.00882568359375	2490.17092371292
0.579681396484375	-0.0088592529296875	2490.2594247127
0.57525634765625	-0.00889892578125	2490.34792571248
0.570831298828125	-0.008935546875	2490.43642671225
0.56640625	-0.0089691162109375	2490.52492771203
0.561981201171875	-0.0089996337890625	2490.61342871181
0.55755615234375	-0.0090301513671875	2490.70192971158
0.553131103515625	-0.009063720703125	2490.79043071136
0.5487060546875	-0.0090911865234375	2490.87893171114
0.544281005859375	-0.00911865234375	2490.96743271091
0.53985595703125	-0.0091461181640625	2491.05593371069
0.535430908203125	-0.009173583984375	2491.14443471046
0.531005859375	-0.0092041015625	2491.23293571024
0.526580810546875	-0.009228515625	2491.32143671002
0.52215576171875	-0.0092559814453125	2491.40993770979
0.517730712890625	-0.009283447265625	2491.49843870957
0.5133056640625	-0.0093109130859375	2491.58693970935
0.508880615234375	-0.009332275390625	2491.67544070912
0.50445556640625	-0.009356689453125	2491.7639417089
0.500030517578125	-0.0093780517578125	2491.85244270868
0.49560546875	-0.0093994140625	2491.94094370845
0.491180419921875	-0.0094268798828125	2492.02944470823
0.48675537109375	-0.0094482421875	2492.11794570801
0.482330322265625	-0.0094696044921875	2492.20644670778
0.4779052734375	-0.0094940185546875	2492.29494770756
0.473480224609375	-0.009515380859375	2492.38344870734
0.46905517578125	-0.0095367431640625	2492.47194970711
0.464630126953125	-0.0095611572265625	2492.56045070689
0.460205078125	-0.0095855712890625	2492.64895170667
0.455780029296875	-0.0096038818359375	2492.73745270644
0.45135498046875	-0.0096282958984375	2492.82595370622
0.446929931640625	-0.009649658203125	2492.914454706
0.4425048828125	-0.0096710205078125	2493.00295570577
0.438079833984375	-0.0096923828125	2493.09145670555
0.43365478515625	-0.009716796875	2493.17995770533
0.429229736328125	-0.0097381591796875	2493.2684587051
0.4248046875	-0.009759521484375	2493.35695970488
0.420379638671875	-0.0097808837890625	2493.44546070466
0.41595458984375	-0.0098052978515625	2493.53396170443
0.411529541015625	-0.0098297119140625	2493.62246270421
0.4071044921875	-0.0098541259765625	2493.71096370398
0.402679443359375	-0.0098724365234375	2493.79946470376
0.39825439453125	-0.00989990234375	2493.88796570354
0.393829345703125	-0.0099212646484375	2493.97646670331
0.389404296875	-0.009942626953125	2494.06496770309
0.384979248046875	-0.0099639892578125	2494.15346870287
0.38055419921875	-0.0099884033203125	2494.24196970264
0.376129150390625	-0.0100128173828125	2494.33047070242
0.3717041015625	-0.0100372314453125	2494.4189717022
0.367279052734375	-0.0100616455078125	2494.50747270197
0.36285400390625	-0.0100860595703125	2494.59597370175
0.358428955078125	-0.0101104736328125	2494.68447470153
0.35400390625	-0.0101348876953125	2494.7729757013
0.349578857421875	-0.0101593017578125	2494.86147670108
0.34515380859375	-0.0101837158203125	2494.94997770086
0.340728759765625	-0.0102081298828125	2495.03847870063
0.3363037109375	-0.0102325439453125	2495.12697970041
0.331878662109375	-0.0102569580078125	2495.21548070019
0.32745361328125	-0.0102813720703125	2495.30398169996
0.323028564453125	-0.0103057861328125	2495.39248269974
0.318603515625	-0.010333251953125	2495.48098369952
0.314178466796875	-0.010357666015625	2495.56948469929
0.30975341796875	-0.01038818359375	2495.65798569907
0.305328369140625	-0.0104095458984375	2495.74648669885
0.3009033203125	-0.0104400634765625	2495.83498769862
0.296478271484375	-0.0104644775390625	2495.9234886984
0.29205322265625	-0.010491943359375	2496.01198969818
0.287628173828125	-0.0105133056640625	2496.10049069795
0.283203125	-0.010540771484375	2496.18899169773
0.278778076171875	-0.010565185546875	2496.27749269751
0.27435302734375	-0.010589599609375	2496.36599369728
0.269927978515625	-0.010614013671875	2496.45449469706
0.2655029296875	-0.0106353759765625	2496.54299569683
0.261077880859375	-0.010662841796875	2496.63149669661
0.25665283203125	-0.01068115234375	2496.71999769639
0.252227783203125	-0.01070556640625	2496.80849869616
0.247802734375	-0.0107269287109375	2496.89699969594
0.243377685546875	-0.0107513427734375	2496.98550069572
0.23895263671875	-0.010772705078125	2497.07400169549
0.234527587890625	-0.0107940673828125	2497.16250269527
0.2301025390625	-0.0108123779296875	2497.25100369505
0.225677490234375	-0.0108367919921875	2497.33950469482
0.22125244140625	-0.0108551025390625	2497.4280056946
0.216827392578125	-0.01087646484375	2497.51650669438
0.21240234375	-0.010894775390625	2497.60500769415
0.207977294921875	-0.010919189453125	2497.69350869393
0.20355224609375	-0.010931396484375	2497.78200969371
0.199127197265625	-0.01094970703125	2497.87051069348
0.1947021484375	-0.0109710693359375	2497.95901169326
0.190277099609375	-0.010986328125	2498.04751269304
0.18585205078125	-0.011004638671875	2498.13601369281
0.181427001953125	-0.0110198974609375	2498.22451469259
0.177001953125	-0.0110382080078125	2498.31301569237
0.172576904296875	-0.0110565185546875	2498.40151669214
0.16815185546875	-0.011077880859375	2498.49001769192
0.163726806640625	-0.01109619140625	2498.5785186917
0.1593017578125	-0.0111114501953125	2498.66701969147
0.154876708984375	-0.0111236572265625	2498.75552069125
0.15045166015625	-0.0111419677734375	2498.84402169103
0.146026611328125	-0.0111572265625	2498.9325226908
0.1416015625	-0.0111724853515625	2499.02102369058
0.137176513671875	-0.0111907958984375	2499.10952469036
0.13275146484375	-0.0112060546875	2499.19802569013
0.128326416015625	-0.011224365234375	2499.28652668991
0.1239013671875	-0.01124267578125	2499.37502768968
0.119476318359375	-0.0112548828125	2499.46352868946
0.11505126953125	-0.0112701416015625	2499.55202968924
0.110626220703125	-0.0112884521484375	2499.64053068901
0.106201171875	-0.0113006591796875	2499.72903168879
0.101776123046875	-0.011322021484375	2499.81753268857
0.09735107421875	-0.0113372802734375	2499.90603368834
0.092926025390625	-0.0113555908203125	2499.99453468812
0.0885009765625	-0.0113739013671875	2500.0830356879
0.084075927734375	-0.01138916015625	2500.17153668767
0.07965087890625	-0.0114044189453125	2500.26003768745
0.075225830078125	-0.011419677734375	2500.34853868723
0.07080078125	-0.01143798828125	2500.437039687
0.066375732421875	-0.011456298828125	2500.52554068678
0.06195068359375	-0.011474609375	2500.61404168656
0.057525634765625	-0.011492919921875	2500.70254268633
0.0531005859375	-0.0115081787109375	2500.79104368611
0.048675537109375	-0.011529541015625	2500.87954468589
0.04425048828125	-0.0115509033203125	2500.96804568566
0.039825439453125	-0.011566162109375	2501.05654668544
0.035400390625	-0.01158447265625	2501.14504768522
0.030975341796875	-0.011602783203125	2501.23354868499
0.02655029296875	-0.01162109375	2501.32204968477
0.022125244140625	-0.0116424560546875	2501.41055068455
0.0177001953125	-0.0116607666015625	2501.49905168432
0.013275146484375	-0.0116790771484375	2501.5875526841
0.00885009765625	-0.011700439453125	2501.67605368388
0.004425048828125	-0.0117218017578125	2501.76455468365
0	-0.0117401123046875	2501.85305568343
0.004425048828125	-0.01107177734375	2501.9415566832
0.00885009765625	-0.0104400634765625	2502.03005768298
0.013275146484375	-0.0098297119140625	2502.11855868276
0.0177001953125	-0.0092437744140625	2502.20705968253
0.022125244140625	-0.0086761474609375	2502.29556068231
0.02655029296875	-0.0081298828125	2502.38406168209
0.030975341796875	-0.0076080322265625	2502.47256268186
0.035400390625	-0.0070953369140625	2502.56106368164
0.039825439453125	-0.00660400390625	2502.64956468142
0.04425048828125	-0.0061279296875	2502.73806568119
0.048675537109375	-0.0056671142578125	2502.82656668097
0.0531005859375	-0.005218505859375	2502.91506768075
0.057525634765625	-0.00478607177734375	2503.00356868052
0.06195068359375	-0.0043658447265625	2503.0920696803
0.066375732421875	-0.00395721435546875	2503.18057068008
0.07080078125	-0.00356109619140625	2503.26907167985
0.075225830078125	-0.003175048828125	2503.35757267963
0.07965087890625	-0.00281280517578125	2503.44607367941
0.084075927734375	-0.00244903564453125	2503.53457467918
0.0885009765625	-0.0020953369140625	2503.62307567896
0.092926025390625	-0.001751708984375	2503.71157667874
0.09735107421875	-0.0014178466796875	2503.80007767851
0.101776123046875	-0.00109344482421875	2503.88857867829
0.106201171875	-0.00077789306640625	2503.97707967807
0.110626220703125	-0.000470855712890625	2504.06558067784
0.11505126953125	-0.00017230224609375	2504.15408167762
0.119476318359375	0.000116241455078125	2504.2425826774
0.1239013671875	0.000398468017578125	2504.33108367717
0.128326416015625	0.00067352294921875	2504.41958467695
0.13275146484375	0.0009405517578125	2504.50808567672
0.137176513671875	0.0012005615234375	2504.5965866765
0.1416015625	0.00145355224609375	2504.68508767628
0.146026611328125	0.00170013427734375	2504.77358867605
0.15045166015625	0.0019384765625	2504.86208967583
0.154876708984375	0.00217193603515625	2504.95059067561
0.1593017578125	0.00239776611328125	2505.03909167538
0.163726806640625	0.002618408203125	2505.12759267516
0.16815185546875	0.0028326416015625	2505.21609367494
0.172576904296875	0.0030401611328125	2505.30459467471
0.177001953125	0.00324371337890625	2505.39309567449
0.181427001953125	0.003441162109375	2505.48159667427
0.18585205078125	0.00363128662109375	2505.57009767404
0.190277099609375	0.0038189697265625	2505.65859867382
0.1947021484375	0.00400146484375	2505.7470996736
0.199127197265625	0.0041778564453125	2505.83560067337
0.20355224609375	0.0043487548828125	2505.92410167315
0.207977294921875	0.00451385498046875	2506.01260267293
0.21240234375	0.0046746826171875	2506.1011036727
0.216827392578125	0.00483306884765625	2506.18960467248
0.22125244140625	0.00498565673828125	2506.27810567226
0.225677490234375	0.00513519287109375	2506.36660667203
0.2301025390625	0.0052801513671875	2506.45510767181
0.234527587890625	0.00541961669921875	2506.54360867159
0.23895263671875	0.00555633544921875	2506.63210967136
0.243377685546875	0.0056884765625	2506.72061067114
0.247802734375	0.00581695556640625	2506.80911167092
0.252227783203125	0.00594329833984375	2506.89761267069
0.25665283203125	0.0060650634765625	2506.98611367047
0.261077880859375	0.0061767578125	2507.07461467024
0.2655029296875	0.006292724609375	2507.16311567002
0.269927978515625	0.006402587890625	2507.2516166698
0.27435302734375	0.0065093994140625	2507.34011766957
0.278778076171875	0.0066162109375	2507.42861866935
0.283203125	0.006719970703125	2507.51711966913
0.287628173828125	0.006817626953125	2507.6056206689
0.29205322265625	0.0069122314453125	2507.69412166868
0.296478271484375	0.0070068359375	2507.78262266846
0.3009033203125	0.0071014404296875	2507.87112366823
0.305328369140625	0.0071868896484375	2507.95962466801
0.30975341796875	0.007275390625	2508.04812566779
0.314178466796875	0.00736083984375	2508.13662666756
0.318603515625	0.0074462890625	2508.22512766734
0.323028564453125	0.0075225830078125	2508.31362866712
0.32745361328125	0.007598876953125	2508.40212966689
0.331878662109375	0.0076751708984375	2508.49063066667
0.3363037109375	0.00775146484375	2508.57913166645
0.340728759765625	0.007818603515625	2508.66763266622
0.34515380859375	0.0078887939453125	2508.756133666
0.349578857421875	0.0079559326171875	2508.84463466578
0.35400390625	0.00802001953125	2508.93313566555
0.358428955078125	0.0080841064453125	2509.02163666533
0.36285400390625	0.0081451416015625	2509.11013766511
0.367279052734375	0.0082061767578125	2509.19863866488
0.3717041015625	0.0082672119140625	2509.28713966466
0.376129150390625	0.0083251953125	2509.37564066444
0.38055419921875	0.008380126953125	2509.46414166421
0.384979248046875	0.00843505859375	2509.55264266399
0.389404296875	0.0084869384765625	2509.64114366377
0.393829345703125	0.0085418701171875	2509.72964466354
0.39825439453125	0.0085906982421875	2509.81814566332
0.402679443359375	0.008636474609375	2509.90664666309
0.4071044921875	0.008685302734375	2509.99514766287
0.411529541015625	0.008734130859375	2510.08364866265
0.41595458984375	0.0087799072265625	2510.17214966242
0.420379638671875	0.00882568359375	2510.2606506622
0.4248046875	0.0088714599609375	2510.34915166198
0.429229736328125	0.0089141845703125	2510.43765266175
0.43365478515625	0.0089569091796875	2510.52615366153
0.438079833984375	0.0089996337890625	2510.61465466131
0.4425048828125	0.009039306640625	2510.70315566108
0.446929931640625	0.0090789794921875	2510.79165666086
0.45135498046875	0.0091217041015625	2510.88015766064
0.455780029296875	0.0091583251953125	2510.96865866041
0.460205078125	0.0091949462890625	2511.05715966019
0.464630126953125	0.0092315673828125	2511.14566065997
0.46905517578125	0.0092681884765625	2511.23416165974
0.473480224609375	0.0093048095703125	2511.32266265952
0.4779052734375	0.00933837890625	2511.4111636593
0.482330322265625	0.0093719482421875	2511.49966465907
0.48675537109375	0.009405517578125	2511.58816565885
0.491180419921875	0.0094390869140625	2511.67666665863
0.49560546875	0.0094696044921875	2511.7651676584
0.500030517578125	0.009503173828125	2511.85366865818
0.50445556640625	0.0095367431640625	2511.94216965796
0.508880615234375	0.0095672607421875	2512.03067065773
0.5133056640625	0.0095947265625	2512.11917165751
0.517730712890625	0.009625244140625	2512.20767265729
0.52215576171875	0.0096527099609375	2512.29617365706
0.526580810546875	0.0096832275390625	2512.38467465684
0.531005859375	0.009710693359375	2512.47317565662
0.535430908203125	0.009735107421875	2512.56167665639
0.53985595703125	0.009765625	2512.65017765617
0.544281005859375	0.0097900390625	2512.73867865594
0.5487060546875	0.0098175048828125	2512.82717965572
0.553131103515625	0.0098388671875	2512.9156806555
0.55755615234375	0.00986328125	2513.00418165527
0.561981201171875	0.0098907470703125	2513.09268265505
0.56640625	0.0099151611328125	2513.18118365483
0.570831298828125	0.0099365234375	2513.2696846546
0.57525634765625	0.0099609375	2513.35818565438
0.579681396484375	0.009979248046875	2513.44668665416
0.5841064453125	0.010003662109375	2513.53518765393
0.588531494140625	0.0100250244140625	2513.62368865371
0.59295654296875	0.0100433349609375	2513.71218965349
0.597381591796875	0.010064697265625	2513.80069065326
0.601806640625	0.0100830078125	2513.88919165304
0.606231689453125	0.0101043701171875	2513.97769265282
0.61065673828125	0.0101226806640625	2514.06619365259
0.615081787109375	0.0101409912109375	2514.15469465237
0.6195068359375	0.0101593017578125	2514.24319565215
0.623931884765625	0.0101776123046875	2514.33169665192
0.62835693359375	0.010198974609375	2514.4201976517
0.632781982421875	0.010211181640625	2514.50869865148
0.63720703125	0.0102294921875	2514.59719965125
0.641632080078125	0.01024169921875	2514.68570065103
0.64605712890625	0.0102569580078125	2514.77420165081
0.650482177734375	0.0102691650390625	2514.86270265058
0.6549072265625	0.010284423828125	2514.95120365036
0.659332275390625	0.010296630859375	2515.03970465014
0.66375732421875	0.01031494140625	2515.12820564991
0.668182373046875	0.010321044921875	2515.21670664969
0.672607421875	0.010333251953125	2515.30520764947
0.677032470703125	0.010345458984375	2515.39370864924
0.68145751953125	0.010357666015625	2515.48220964902
0.685882568359375	0.0103668212890625	2515.57071064879
0.6903076171875	0.0103759765625	2515.65921164857
0.694732666015625	0.01038818359375	2515.74771264835
0.69915771484375	0.010400390625	2515.83621364812
0.703582763671875	0.010406494140625	2515.9247146479
0.7080078125	0.0104156494140625	2516.01321564768
0.712432861328125	0.0104217529296875	2516.10171664745
0.71685791015625	0.010430908203125	2516.19021764723
0.721282958984375	0.0104339599609375	2516.27871864701
0.7257080078125	0.010443115234375	2516.36721964678
0.730133056640625	0.01044921875	2516.45572064656
0.73455810546875	0.0104583740234375	2516.54422164634
0.738983154296875	0.0104644775390625	2516.63272264611
0.743408203125	0.0104705810546875	2516.72122364589
0.747833251953125	0.0104766845703125	2516.80972464567
0.75225830078125	0.0104827880859375	2516.89822564544
0.756683349609375	0.010491943359375	2516.98672664522
0.7611083984375	0.0105010986328125	2517.075227645
0.765533447265625	0.010504150390625	2517.16372864477
0.76995849609375	0.0105133056640625	2517.25222964455
0.774383544921875	0.010516357421875	2517.34073064433
0.77880859375	0.0105255126953125	2517.4292316441
0.783233642578125	0.01053466796875	2517.51773264388
0.78765869140625	0.0105438232421875	2517.60623364366
0.792083740234375	0.010546875	2517.69473464343
0.7965087890625	0.010552978515625	2517.78323564321
0.800933837890625	0.01055908203125	2517.87173664299
0.80535888671875	0.0105682373046875	2517.96023764276
0.809783935546875	0.0105743408203125	2518.04873864254
0.814208984375	0.01058349609375	2518.13723964231
0.818634033203125	0.010589599609375	2518.22574064209
0.82305908203125	0.0105987548828125	2518.31424164187
0.827484130859375	0.01060791015625	2518.40274264164
0.8319091796875	0.0106170654296875	2518.49124364142
0.836334228515625	0.0106292724609375	2518.5797446412
0.84075927734375	0.010638427734375	2518.66824564097
0.845184326171875	0.0106475830078125	2518.75674664075
0.849609375	0.010662841796875	2518.84524764053
0.854034423828125	0.0106719970703125	2518.9337486403
0.85845947265625	0.0106842041015625	2519.02224964008
0.862884521484375	0.010693359375	2519.11075063986
0.8673095703125	0.0107086181640625	2519.19925163963
0.871734619140625	0.010723876953125	2519.28775263941
0.87615966796875	0.0107391357421875	2519.37625363919
0.880584716796875	0.0107574462890625	2519.46475463896
0.885009765625	0.010772705078125	2519.55325563874
0.889434814453125	0.0107940673828125	2519.64175663852
0.89385986328125	0.010809326171875	2519.73025763829
0.898284912109375	0.0108306884765625	2519.81875863807
0.9027099609375	0.0108489990234375	2519.90725963785
0.907135009765625	0.0108734130859375	2519.99576063762
0.91156005859375	0.0108978271484375	2520.0842616374
0.915985107421875	0.0109222412109375	2520.17276263718
0.92041015625	0.0109466552734375	2520.26126363695
0.924835205078125	0.01097412109375	2520.34976463673
0.92926025390625	0.0110015869140625	2520.43826563651
0.933685302734375	0.0110321044921875	2520.52676663628
0.9381103515625	0.011065673828125	2520.61526763606
0.942535400390625	0.0110992431640625	2520.70376863583
0.94696044921875	0.0111328125	2520.79226963561
0.951385498046875	0.0111724853515625	2520.88077063539
0.955810546875	0.0112091064453125	2520.96927163516
0.960235595703125	0.011248779296875	2521.05777263494
0.96466064453125	0.01129150390625	2521.14627363472
0.969085693359375	0.011334228515625	2521.23477463449
0.9735107421875	0.011383056640625	2521.32327563427
0.977935791015625	0.01142578125	2521.41177663405
0.98236083984375	0.011474609375	2521.50027763382
0.986785888671875	0.011529541015625	2521.5887786336
0.9912109375	0.0115814208984375	2521.67727963338
0.995635986328125	0.0116424560546875	2521.76578063315
1.00006103515625	0.011700439453125	2521.85428163293
0.995635986328125	0.0110595703125	2521.94278263271
0.9912109375	0.010455322265625	2522.03128363248
0.986785888671875	0.00987548828125	2522.11978463226
0.98236083984375	0.0093231201171875	2522.20828563204
0.977935791015625	0.0087890625	2522.29678663181
0.9735107421875	0.0082763671875	2522.38528763159
0.969085693359375	0.0077850341796875	2522.47378863137
0.96466064453125	0.007305908203125	2522.56228963114
0.960235595703125	0.006842041015625	2522.65079063092
0.955810546875	0.0063934326171875	2522.7392916307
0.951385498046875	0.00595703125	2522.82779263047
0.94696044921875	0.0055328369140625	2522.91629363025
0.942535400390625	0.0051177978515625	2523.00479463003
0.9381103515625	0.00471832275390625	2523.0932956298
0.933685302734375	0.00432708740234375	2523.18179662958
0.92926025390625	0.0039483642578125	2523.27029762935
0.924835205078125	0.00357879638671875	2523.35879862913
0.92041015625	0.00321868896484375	2523.44729962891
0.915985107421875	0.0028704833984375	2523.53580062868
0.91156005859375	0.00252685546875	2523.62430162846
0.907135009765625	0.00219329833984375	2523.71280262824
0.9027099609375	0.0018670654296875	2523.80130362801
0.898284912109375	0.001549072265625	2523.88980462779
0.89385986328125	0.00123809814453125	2523.97830562757
0.889434814453125	0.00093414306640625	2524.06680662734
0.885009765625	0.00063751220703125	2524.15530762712
0.880584716796875	0.00034735107421875	2524.2438086269
0.87615966796875	6.4208984375E-05	2524.33230962667
0.871734619140625	-0.000212493896484375	2524.42081062645
0.8673095703125	-0.000482635498046875	2524.50931162623
0.862884521484375	-0.00074676513671875	2524.597812626
0.85845947265625	-0.00100372314453125	2524.68631362578
0.854034423828125	-0.00125579833984375	2524.77481462556
0.849609375	-0.001502685546875	2524.86331562533
0.845184326171875	-0.0017431640625	2524.95181662511
0.84075927734375	-0.00197845458984375	2525.04031762489
0.836334228515625	-0.00220794677734375	2525.12881862466
0.8319091796875	-0.00243194580078125	2525.21731962444
0.827484130859375	-0.0026519775390625	2525.30582062422
0.82305908203125	-0.0028656005859375	2525.39432162399
0.818634033203125	-0.00307403564453125	2525.48282262377
0.814208984375	-0.00327728271484375	2525.57132362355
0.809783935546875	-0.00347442626953125	2525.65982462332
0.80535888671875	-0.00366973876953125	2525.7483256231
0.800933837890625	-0.00385894775390625	2525.83682662287
0.7965087890625	-0.00404388427734375	2525.92532762265
0.792083740234375	-0.0042218017578125	2526.01382862243
0.78765869140625	-0.00439727783203125	2526.1023296222
0.783233642578125	-0.00456695556640625	2526.19083062198
0.77880859375	-0.00473175048828125	2526.27933162176
0.774383544921875	-0.0048931884765625	2526.36783262153
0.76995849609375	-0.00505218505859375	2526.45633362131
0.765533447265625	-0.00520416259765625	2526.54483462109
0.7611083984375	-0.005352783203125	2526.63333562086
0.756683349609375	-0.00549835205078125	2526.72183662064
0.75225830078125	-0.0056390380859375	2526.81033762042
0.747833251953125	-0.005775146484375	2526.89883862019
0.743408203125	-0.005908203125	2526.98733961997
0.738983154296875	-0.00603515625	2527.07584061975
0.73455810546875	-0.0061431884765625	2527.16434161952
0.730133056640625	-0.00626220703125	2527.2528426193
0.7257080078125	-0.006378173828125	2527.34134361908
0.721282958984375	-0.006494140625	2527.42984461885
0.71685791015625	-0.0066070556640625	2527.51834561863
0.712432861328125	-0.0067138671875	2527.60684661841
0.7080078125	-0.0068206787109375	2527.69534761818
0.703582763671875	-0.00692138671875	2527.78384861796
0.69915771484375	-0.0070159912109375	2527.87234961774
0.694732666015625	-0.007110595703125	2527.96085061751
0.6903076171875	-0.0072021484375	2528.04935161729
0.685882568359375	-0.0072906494140625	2528.13785261707
0.68145751953125	-0.007379150390625	2528.22635361684
0.677032470703125	-0.0074615478515625	2528.31485461662
0.672607421875	-0.0075439453125	2528.40335561639
0.668182373046875	-0.007623291015625	2528.49185661617
0.66375732421875	-0.007696533203125	2528.58035761595
0.659332275390625	-0.0077667236328125	2528.66885861572
0.6549072265625	-0.0078338623046875	2528.7573596155
0.650482177734375	-0.0079010009765625	2528.84586061528
0.64605712890625	-0.0079681396484375	2528.93436161505
0.641632080078125	-0.0080291748046875	2529.02286261483
0.63720703125	-0.0080902099609375	2529.11136361461
0.632781982421875	-0.0081512451171875	2529.19986461438
0.62835693359375	-0.0082061767578125	2529.28836561416
0.623931884765625	-0.0082672119140625	2529.37686661394
0.6195068359375	-0.0083251953125	2529.46536761371
0.615081787109375	-0.0083740234375	2529.55386861349
0.61065673828125	-0.0084259033203125	2529.64236961327
0.606231689453125	-0.0084747314453125	2529.73087061304
0.601806640625	-0.0085235595703125	2529.81937161282
0.597381591796875	-0.0085662841796875	2529.9078726126
0.59295654296875	-0.0086090087890625	2529.99637361237
0.588531494140625	-0.008648681640625	2530.08487461215
0.5841064453125	-0.0086883544921875	2530.17337561193
0.579681396484375	-0.0087249755859375	2530.2618766117
0.57525634765625	-0.0087646484375	2530.35037761148
0.570831298828125	-0.00880126953125	2530.43887861126
0.56640625	-0.008837890625	2530.52737961103
0.561981201171875	-0.0088775634765625	2530.61588061081
0.55755615234375	-0.0089111328125	2530.70438161059
0.553131103515625	-0.008941650390625	2530.79288261036
0.5487060546875	-0.0089752197265625	2530.88138361014
0.544281005859375	-0.0090057373046875	2530.96988460992
0.53985595703125	-0.0090362548828125	2531.05838560969
0.535430908203125	-0.0090667724609375	2531.14688660947
0.531005859375	-0.00909423828125	2531.23538760924
0.526580810546875	-0.0091217041015625	2531.32388860902
0.52215576171875	-0.009149169921875	2531.4123896088
0.517730712890625	-0.0091796875	2531.50089060857
0.5133056640625	-0.0092071533203125	2531.58939160835
0.508880615234375	-0.009234619140625	2531.67789260813
0.50445556640625	-0.0092620849609375	2531.7663936079
0.500030517578125	-0.0092864990234375	2531.85489460768
0.49560546875	-0.009307861328125	2531.94339560746
0.491180419921875	-0.0093353271484375	2532.03189660723
0.48675537109375	-0.0093597412109375	2532.12039760701
0.482330322265625	-0.00938720703125	2532.20889860679
0.4779052734375	-0.0094085693359375	2532.29739960656
0.473480224609375	-0.0094329833984375	2532.38590060634
0.46905517578125	-0.0094573974609375	2532.47440160612
0.464630126953125	-0.0094818115234375	2532.56290260589
0.460205078125	-0.009503173828125	2532.65140360567
0.455780029296875	-0.009527587890625	2532.73990460545
0.45135498046875	-0.0095489501953125	2532.82840560522
0.446929931640625	-0.0095733642578125	2532.916906605
0.4425048828125	-0.0095977783203125	2533.00540760478
0.438079833984375	-0.0096221923828125	2533.09390860455
0.43365478515625	-0.0096466064453125	2533.18240960433
0.429229736328125	-0.00966796875	2533.27091060411
0.4248046875	-0.0096893310546875	2533.35941160388
0.420379638671875	-0.0097137451171875	2533.44791260366
0.41595458984375	-0.0097381591796875	2533.53641360344
0.411529541015625	-0.0097625732421875	2533.62491460321
0.4071044921875	-0.0097869873046875	2533.71341560299
0.402679443359375	-0.009808349609375	2533.80191660277
0.39825439453125	-0.009832763671875	2533.89041760254
0.393829345703125	-0.009857177734375	2533.97891860232
0.389404296875	-0.009881591796875	2534.06741960209
0.384979248046875	-0.009906005859375	2534.15592060187
0.38055419921875	-0.0099334716796875	2534.24442160165
0.376129150390625	-0.0099609375	2534.33292260142
0.3717041015625	-0.0099853515625	2534.4214236012
0.367279052734375	-0.0100067138671875	2534.50992460098
0.36285400390625	-0.0100341796875	2534.59842560075
0.358428955078125	-0.0100616455078125	2534.68692660053
0.35400390625	-0.0100830078125	2534.77542760031
0.349578857421875	-0.0101104736328125	2534.86392860008
0.34515380859375	-0.010137939453125	2534.95242959986
0.340728759765625	-0.0101654052734375	2535.04093059964
0.3363037109375	-0.010186767578125	2535.12943159941
0.331878662109375	-0.010211181640625	2535.21793259919
0.32745361328125	-0.0102386474609375	2535.30643359897
0.323028564453125	-0.01026611328125	2535.39493459874
0.318603515625	-0.01029052734375	2535.48343559852
0.314178466796875	-0.0103179931640625	2535.5719365983
0.30975341796875	-0.0103515625	2535.66043759807
0.305328369140625	-0.0103759765625	2535.74893859785
0.3009033203125	-0.010400390625	2535.83743959763
0.296478271484375	-0.0104278564453125	2535.9259405974
0.29205322265625	-0.010455322265625	2536.01444159718
0.287628173828125	-0.010479736328125	2536.10294259696
0.283203125	-0.010504150390625	2536.19144359673
0.278778076171875	-0.010528564453125	2536.27994459651
0.27435302734375	-0.0105560302734375	2536.36844559629
0.269927978515625	-0.01058349609375	2536.45694659606
0.2655029296875	-0.0106048583984375	2536.54544759584
0.261077880859375	-0.0106292724609375	2536.63394859562
0.25665283203125	-0.0106536865234375	2536.72244959539
0.252227783203125	-0.010675048828125	2536.81095059517
0.247802734375	-0.0106964111328125	2536.89945159494
0.243377685546875	-0.0107177734375	2536.98795259472
0.23895263671875	-0.0107421875	2537.0764535945
0.234527587890625	-0.010760498046875	2537.16495459427
0.2301025390625	-0.0107818603515625	2537.25345559405
0.225677490234375	-0.01080322265625	2537.34195659383
0.22125244140625	-0.010821533203125	2537.4304575936
0.216827392578125	-0.010845947265625	2537.51895859338
0.21240234375	-0.0108612060546875	2537.60745959316
0.207977294921875	-0.010882568359375	2537.69596059293
0.20355224609375	-0.01090087890625	2537.78446159271
0.199127197265625	-0.0109161376953125	2537.87296259249
0.1947021484375	-0.0109344482421875	2537.96146359226
0.190277099609375	-0.0109527587890625	2538.04996459204
0.18585205078125	-0.010968017578125	2538.13846559182
0.181427001953125	-0.0109832763671875	2538.22696659159
0.177001953125	-0.0110015869140625	2538.31546759137
0.172576904296875	-0.011016845703125	2538.40396859115
0.16815185546875	-0.01103515625	2538.49246959092
0.163726806640625	-0.0110504150390625	2538.5809705907
0.1593017578125	-0.0110687255859375	2538.66947159048
0.154876708984375	-0.011083984375	2538.75797259025
0.15045166015625	-0.0110992431640625	2538.84647359003
0.146026611328125	-0.011114501953125	2538.93497458981
0.1416015625	-0.0111297607421875	2539.02347558958
0.137176513671875	-0.01114501953125	2539.11197658936
0.13275146484375	-0.0111602783203125	2539.20047758914
0.128326416015625	-0.011175537109375	2539.28897858891
0.1239013671875	-0.011187744140625	2539.37747958869
0.119476318359375	-0.0112030029296875	2539.46598058846
0.11505126953125	-0.01121826171875	2539.55448158824
0.110626220703125	-0.01123046875	2539.64298258802
0.106201171875	-0.0112457275390625	2539.73148358779
0.101776123046875	-0.011260986328125	2539.81998458757
0.09735107421875	-0.0112762451171875	2539.90848558735
0.092926025390625	-0.0112884521484375	2539.99698658712
0.0885009765625	-0.0113006591796875	2540.0854875869
0.084075927734375	-0.0113189697265625	2540.17398858668
0.07965087890625	-0.011334228515625	2540.26248958645
0.075225830078125	-0.0113494873046875	2540.35099058623
0.07080078125	-0.0113616943359375	2540.43949158601
0.066375732421875	-0.011376953125	2540.52799258578
0.06195068359375	-0.0113922119140625	2540.61649358556
0.057525634765625	-0.011407470703125	2540.70499458534
0.0531005859375	-0.0114227294921875	2540.79349558511
0.048675537109375	-0.0114410400390625	2540.88199658489
0.04425048828125	-0.0114532470703125	2540.97049758467
0.039825439453125	-0.0114715576171875	2541.05899858444
0.035400390625	-0.0114898681640625	2541.14749958422
0.030975341796875	-0.011505126953125	2541.236000584
0.02655029296875	-0.0115234375	2541.32450158377
0.022125244140625	-0.0115386962890625	2541.41300258355
0.0177001953125	-0.011553955078125	2541.50150358333
0.013275146484375	-0.0115753173828125	2541.5900045831
0.00885009765625	-0.0115966796875	2541.67850558288
0.004425048828125	-0.01160888671875	2541.76700658266
0	-0.0116302490234375	2541.85550758243
0.004425048828125	-0.0109649658203125	2541.94400858221
0.00885009765625	-0.010333251953125	2542.03250958198
0.013275146484375	-0.009716796875	2542.12101058176
0.0177001953125	-0.0091339111328125	2542.20951158154
0.022125244140625	-0.0085693359375	2542.29801258131
0.02655029296875	-0.0080230712890625	2542.38651358109
0.030975341796875	-0.0074981689453125	2542.47501458087
0.035400390625	-0.0069915771484375	2542.56351558064
0.039825439453125	-0.0064971923828125	2542.65201658042
0.04425048828125	-0.0060211181640625	2542.7405175802
0.048675537109375	-0.0055572509765625	2542.82901857997
0.0531005859375	-0.0051116943359375	2542.91751957975
0.057525634765625	-0.00468017578125	2543.00602057953
0.06195068359375	-0.00426055908203125	2543.0945215793
0.066375732421875	-0.0038531494140625	2543.18302257908
0.07080078125	-0.0034588623046875	2543.27152357886
0.075225830078125	-0.00307464599609375	2543.36002457863
0.07965087890625	-0.00271270751953125	2543.44852557841
0.084075927734375	-0.00235076904296875	2543.53702657819
0.0885009765625	-0.0019989013671875	2543.62552757796
0.092926025390625	-0.001656494140625	2543.71402857774
0.09735107421875	-0.001324462890625	2543.80252957752
0.101776123046875	-0.0010015869140625	2543.89103057729
0.106201171875	-0.00068756103515625	2543.97953157707
0.110626220703125	-0.000382171630859375	2544.06803257685
0.11505126953125	-8.551025390625E-05	2544.15653357662
0.119476318359375	0.000201324462890625	2544.2450345764
0.1239013671875	0.000481964111328125	2544.33353557618
0.128326416015625	0.000755615234375	2544.42203657595
0.13275146484375	0.00102081298828125	2544.51053757573
0.137176513671875	0.001279296875	2544.5990385755
0.1416015625	0.00153076171875	2544.68753957528
0.146026611328125	0.00177490234375	2544.77604057506
0.15045166015625	0.0020123291015625	2544.86454157483
0.154876708984375	0.00224365234375	2544.95304257461
0.1593017578125	0.00246795654296875	2545.04154357439
0.163726806640625	0.0026861572265625	2545.13004457416
0.16815185546875	0.0028997802734375	2545.21854557394
0.172576904296875	0.00310699462890625	2545.30704657372
0.177001953125	0.00330810546875	2545.39554757349
0.181427001953125	0.003504638671875	2545.48404857327
0.18585205078125	0.003695068359375	2545.57254957305
0.190277099609375	0.0038800048828125	2545.66105057282
0.1947021484375	0.00405975341796875	2545.7495515726
0.199127197265625	0.0042340087890625	2545.83805257238
0.20355224609375	0.00440277099609375	2545.92655357215
0.207977294921875	0.00456756591796875	2546.01505457193
0.21240234375	0.00472930908203125	2546.10355557171
0.216827392578125	0.00488433837890625	2546.19205657148
0.22125244140625	0.00503631591796875	2546.28055757126
0.225677490234375	0.0051824951171875	2546.36905857104
0.2301025390625	0.00532623291015625	2546.45755957081
0.234527587890625	0.00546478271484375	2546.54606057059
0.23895263671875	0.0055999755859375	2546.63456157037
0.243377685546875	0.00573272705078125	2546.72306257014
0.247802734375	0.00585845947265625	2546.81156356992
0.252227783203125	0.00598480224609375	2546.9000645697
0.25665283203125	0.00610443115234375	2546.98856556947
0.261077880859375	0.00621337890625	2547.07706656925
0.2655029296875	0.0063262939453125	2547.16556756903
0.269927978515625	0.0064361572265625	2547.2540685688
0.27435302734375	0.0065399169921875	2547.34256956858
0.278778076171875	0.006646728515625	2547.43107056835
0.283203125	0.0067474365234375	2547.51957156813
0.287628173828125	0.0068450927734375	2547.60807256791
0.29205322265625	0.0069427490234375	2547.69657356768
0.296478271484375	0.007037353515625	2547.78507456746
0.3009033203125	0.0071258544921875	2547.87357556724
0.305328369140625	0.00721435546875	2547.96207656701
0.30975341796875	0.0072998046875	2548.05057756679
0.314178466796875	0.00738525390625	2548.13907856657
0.318603515625	0.007470703125	2548.22757956634
0.323028564453125	0.0075469970703125	2548.31608056612
0.32745361328125	0.007623291015625	2548.4045815659
0.331878662109375	0.0076995849609375	2548.49308256567
0.3363037109375	0.0077728271484375	2548.58158356545
0.340728759765625	0.0078399658203125	2548.67008456523
0.34515380859375	0.0079071044921875	2548.758585565
0.349578857421875	0.0079742431640625	2548.84708656478
0.35400390625	0.0080352783203125	2548.93558756456
0.358428955078125	0.008099365234375	2549.02408856433
0.36285400390625	0.008160400390625	2549.11258956411
0.367279052734375	0.008221435546875	2549.20109056389
0.3717041015625	0.0082794189453125	2549.28959156366
0.376129150390625	0.00833740234375	2549.37809256344
0.38055419921875	0.008392333984375	2549.46659356322
0.384979248046875	0.0084442138671875	2549.55509456299
0.389404296875	0.0084991455078125	2549.64359556277
0.393829345703125	0.008551025390625	2549.73209656255
0.39825439453125	0.008599853515625	2549.82059756232
0.402679443359375	0.008648681640625	2549.9090985621
0.4071044921875	0.008697509765625	2549.99759956188
0.411529541015625	0.0087432861328125	2550.08610056165
0.41595458984375	0.0087921142578125	2550.17460156143
0.420379638671875	0.0088348388671875	2550.2631025612
0.4248046875	0.008880615234375	2550.35160356098
0.429229736328125	0.00892333984375	2550.44010456076
0.43365478515625	0.008966064453125	2550.52860556053
0.438079833984375	0.0090057373046875	2550.61710656031
0.4425048828125	0.00904541015625	2550.70560756009
0.446929931640625	0.009088134765625	2550.79410855986
0.45135498046875	0.009124755859375	2550.88260955964
0.455780029296875	0.0091644287109375	2550.97111055942
0.460205078125	0.0092041015625	2551.05961155919
0.464630126953125	0.00924072265625	2551.14811255897
0.46905517578125	0.00927734375	2551.23661355875
0.473480224609375	0.009307861328125	2551.32511455852
0.4779052734375	0.009344482421875	2551.4136155583
0.482330322265625	0.009375	2551.50211655808
0.48675537109375	0.0094085693359375	2551.59061755785
0.491180419921875	0.009442138671875	2551.67911855763
0.49560546875	0.00947265625	2551.76761955741
0.500030517578125	0.009503173828125	2551.85612055718
0.50445556640625	0.00953369140625	2551.94462155696
0.508880615234375	0.0095672607421875	2552.03312255674
0.5133056640625	0.0095977783203125	2552.12162355651
0.517730712890625	0.009625244140625	2552.21012455629
0.52215576171875	0.0096527099609375	2552.29862555607
0.526580810546875	0.0096832275390625	2552.38712655584
0.531005859375	0.0097137451171875	2552.47562755562
0.535430908203125	0.0097381591796875	2552.5641285554
0.53985595703125	0.009765625	2552.65262955517
0.544281005859375	0.0097900390625	2552.74113055495
0.5487060546875	0.009814453125	2552.82963155472
0.553131103515625	0.0098419189453125	2552.9181325545
0.55755615234375	0.00986328125	2553.00663355428
0.561981201171875	0.0098876953125	2553.09513455405
0.56640625	0.0099090576171875	2553.18363555383
0.570831298828125	0.0099334716796875	2553.27213655361
0.57525634765625	0.0099609375	2553.36063755338
0.579681396484375	0.009979248046875	2553.44913855316
0.5841064453125	0.0100006103515625	2553.53763955294
0.588531494140625	0.01002197265625	2553.62614055271
0.59295654296875	0.0100433349609375	2553.71464155249
0.597381591796875	0.010064697265625	2553.80314255227
0.601806640625	0.0100860595703125	2553.89164355204
0.606231689453125	0.010101318359375	2553.98014455182
0.61065673828125	0.0101226806640625	2554.0686455516
0.615081787109375	0.0101409912109375	2554.15714655137
0.6195068359375	0.01015625	2554.24564755115
0.623931884765625	0.010174560546875	2554.33414855093
0.62835693359375	0.01019287109375	2554.4226495507
0.632781982421875	0.010211181640625	2554.51115055048
0.63720703125	0.010223388671875	2554.59965155026
0.641632080078125	0.0102386474609375	2554.68815255003
0.64605712890625	0.01025390625	2554.77665354981
0.650482177734375	0.01026611328125	2554.86515454959
0.6549072265625	0.0102783203125	2554.95365554936
0.659332275390625	0.0102935791015625	2555.04215654914
0.66375732421875	0.0103057861328125	2555.13065754892
0.668182373046875	0.0103179931640625	2555.21915854869
0.672607421875	0.0103302001953125	2555.30765954847
0.677032470703125	0.01033935546875	2555.39616054825
0.68145751953125	0.0103546142578125	2555.48466154802
0.685882568359375	0.01036376953125	2555.5731625478
0.6903076171875	0.0103729248046875	2555.66166354757
0.694732666015625	0.0103790283203125	2555.75016454735
0.69915771484375	0.01038818359375	2555.83866554713
0.703582763671875	0.0103973388671875	2555.9271665469
0.7080078125	0.0104034423828125	2556.01566754668
0.712432861328125	0.0104156494140625	2556.10416854646
0.71685791015625	0.0104217529296875	2556.19266954623
0.721282958984375	0.010430908203125	2556.28117054601
0.7257080078125	0.01043701171875	2556.36967154579
0.730133056640625	0.010443115234375	2556.45817254556
0.73455810546875	0.0104522705078125	2556.54667354534
0.738983154296875	0.010455322265625	2556.63517454512
0.743408203125	0.0104644775390625	2556.72367554489
0.747833251953125	0.0104705810546875	2556.81217654467
0.75225830078125	0.010479736328125	2556.90067754445
0.756683349609375	0.0104827880859375	2556.98917854422
0.7611083984375	0.0104888916015625	2557.077679544
0.765533447265625	0.010491943359375	2557.16618054378
0.76995849609375	0.0105010986328125	2557.25468154355
0.774383544921875	0.010504150390625	2557.34318254333
0.77880859375	0.0105133056640625	2557.43168354311
0.783233642578125	0.0105194091796875	2557.52018454288
0.78765869140625	0.010528564453125	2557.60868554266
0.792083740234375	0.01053466796875	2557.69718654244
0.7965087890625	0.010540771484375	2557.78568754221
0.800933837890625	0.010546875	2557.87418854199
0.80535888671875	0.0105560302734375	2557.96268954177
0.809783935546875	0.010565185546875	2558.05119054154
0.814208984375	0.0105712890625	2558.13969154132
0.818634033203125	0.010577392578125	2558.22819254109
0.82305908203125	0.010589599609375	2558.31669354087
0.827484130859375	0.0105926513671875	2558.40519454065
0.8319091796875	0.010601806640625	2558.49369554042
0.836334228515625	0.010614013671875	2558.5821965402
0.84075927734375	0.0106231689453125	2558.67069753998
0.845184326171875	0.0106353759765625	2558.75919853975
0.849609375	0.0106475830078125	2558.84769953953
0.854034423828125	0.01065673828125	2558.93620053931
0.85845947265625	0.0106689453125	2559.02470153908
0.862884521484375	0.0106842041015625	2559.11320253886
0.8673095703125	0.010699462890625	2559.20170353864
0.871734619140625	0.010711669921875	2559.29020453841
0.87615966796875	0.0107269287109375	2559.37870553819
0.880584716796875	0.0107452392578125	2559.46720653797
0.885009765625	0.010760498046875	2559.55570753774
0.889434814453125	0.0107818603515625	2559.64420853752
0.89385986328125	0.01080322265625	2559.7327095373
0.898284912109375	0.010821533203125	2559.82121053707
0.9027099609375	0.010845947265625	2559.90971153685
0.907135009765625	0.0108642578125	2559.99821253663
0.91156005859375	0.010888671875	2560.0867135364
0.915985107421875	0.0109130859375	2560.17521453618
0.92041015625	0.0109375	2560.26371553596
0.924835205078125	0.0109649658203125	2560.35221653573
0.92926025390625	0.0109893798828125	2560.44071753551
0.933685302734375	0.0110198974609375	2560.52921853529
0.9381103515625	0.0110504150390625	2560.61771953506
0.942535400390625	0.011083984375	2560.70622053484
0.94696044921875	0.01112060546875	2560.79472153461
0.951385498046875	0.0111572265625	2560.88322253439
0.955810546875	0.0111968994140625	2560.97172353417
0.960235595703125	0.0112396240234375	2561.06022453394
0.96466064453125	0.0112823486328125	2561.14872553372
0.969085693359375	0.0113250732421875	2561.2372265335
0.9735107421875	0.0113677978515625	2561.32572753327
0.977935791015625	0.01141357421875	2561.41422853305
0.98236083984375	0.0114654541015625	2561.50272953283
0.986785888671875	0.0115203857421875	2561.5912305326
0.9912109375	0.0115753173828125	2561.67973153238
0.995635986328125	0.0116302490234375	2561.76823253216
1.00006103515625	0.011688232421875	2561.85673353193
0.995635986328125	0.0110504150390625	2561.94523453171
0.9912109375	0.01044921875	2562.03373553149
0.986785888671875	0.00987548828125	2562.12223653126
0.98236083984375	0.009320068359375	2562.21073753104
0.977935791015625	0.0087860107421875	2562.29923853082
0.9735107421875	0.0082763671875	2562.38773953059
0.969085693359375	0.007781982421875	2562.47624053037
0.96466064453125	0.0073028564453125	2562.56474153015
0.960235595703125	0.0068389892578125	2562.65324252992
0.955810546875	0.0063873291015625	2562.7417435297
0.951385498046875	0.0059539794921875	2562.83024452948
0.94696044921875	0.00552978515625	2562.91874552925
0.942535400390625	0.0051177978515625	2563.00724652903
0.9381103515625	0.00471893310546875	2563.09574752881
0.933685302734375	0.00432830810546875	2563.18424852858
0.92926025390625	0.00394866943359375	2563.27274952836
0.924835205078125	0.00358062744140625	2563.36125052813
0.92041015625	0.00322235107421875	2563.44975152791
0.915985107421875	0.00287445068359375	2563.53825252769
0.91156005859375	0.0025323486328125	2563.62675352746
0.907135009765625	0.002198486328125	2563.71525452724
0.9027099609375	0.0018731689453125	2563.80375552702
0.898284912109375	0.00155548095703125	2563.89225652679
0.89385986328125	0.0012451171875	2563.98075752657
0.889434814453125	0.0009417724609375	2564.06925852635
0.885009765625	0.000645751953125	2564.15775952612
0.880584716796875	0.0003563232421875	2564.2462605259
0.87615966796875	7.36083984375E-05	2564.33476152568
0.871734619140625	-0.00020245361328125	2564.42326252545
0.8673095703125	-0.000471954345703125	2564.51176352523
0.862884521484375	-0.0007354736328125	2564.60026452501
0.85845947265625	-0.00099212646484375	2564.68876552478
0.854034423828125	-0.0012445068359375	2564.77726652456
0.849609375	-0.0014898681640625	2564.86576752434
0.845184326171875	-0.00172943115234375	2564.95426852411
0.84075927734375	-0.00196380615234375	2565.04276952389
0.836334228515625	-0.00219390869140625	2565.13127052367
0.8319091796875	-0.00241790771484375	2565.21977152344
0.827484130859375	-0.00263702392578125	2565.30827252322
0.82305908203125	-0.00285003662109375	2565.396773523
0.818634033203125	-0.00305816650390625	2565.48527452277
0.814208984375	-0.00326141357421875	2565.57377552255
0.809783935546875	-0.00345916748046875	2565.66227652233
0.80535888671875	-0.00365386962890625	2565.7507775221
0.800933837890625	-0.00384185791015625	2565.83927852188
0.7965087890625	-0.00402557373046875	2565.92777952165
0.792083740234375	-0.00420501708984375	2566.01628052143
0.78765869140625	-0.0043798828125	2566.10478152121
0.783233642578125	-0.00454986572265625	2566.19328252098
0.77880859375	-0.00471588134765625	2566.28178352076
0.774383544921875	-0.00487640380859375	2566.37028452054
0.76995849609375	-0.0050347900390625	2566.45878552031
0.765533447265625	-0.0051873779296875	2566.54728652009
0.7611083984375	-0.0053363037109375	2566.63578751987
0.756683349609375	-0.0054803466796875	2566.72428851964
0.75225830078125	-0.0056195068359375	2566.81278951942
0.747833251953125	-0.00575653076171875	2566.9012905192
0.743408203125	-0.00589019775390625	2566.98979151897
0.738983154296875	-0.0060162353515625	2567.07829251875
0.73455810546875	-0.0061248779296875	2567.16679351853
0.730133056640625	-0.006243896484375	2567.2552945183
0.7257080078125	-0.0063629150390625	2567.34379551808
0.721282958984375	-0.006475830078125	2567.43229651786
0.71685791015625	-0.0065887451171875	2567.52079751763
0.712432861328125	-0.006695556640625	2567.60929851741
0.7080078125	-0.00679931640625	2567.69779951719
0.703582763671875	-0.0069000244140625	2567.78630051696
0.69915771484375	-0.0069976806640625	2567.87480151674
0.694732666015625	-0.0070892333984375	2567.96330251652
0.6903076171875	-0.0071807861328125	2568.05180351629
0.685882568359375	-0.0072723388671875	2568.14030451607
0.68145751953125	-0.007354736328125	2568.22880551585
0.677032470703125	-0.007440185546875	2568.31730651562
0.672607421875	-0.00751953125	2568.4058075154
0.668182373046875	-0.0075958251953125	2568.49430851518
0.66375732421875	-0.0076751708984375	2568.58280951495
0.659332275390625	-0.007745361328125	2568.67131051473
0.6549072265625	-0.0078155517578125	2568.7598115145
0.650482177734375	-0.0078826904296875	2568.84831251428
0.64605712890625	-0.00794677734375	2568.93681351406
0.641632080078125	-0.0080108642578125	2569.02531451383
0.63720703125	-0.008074951171875	2569.11381551361
0.632781982421875	-0.0081298828125	2569.20231651339
0.62835693359375	-0.0081878662109375	2569.29081751316
0.623931884765625	-0.008245849609375	2569.37931851294
0.6195068359375	-0.00830078125	2569.46781951272
0.615081787109375	-0.0083526611328125	2569.55632051249
0.61065673828125	-0.008404541015625	2569.64482151227
0.606231689453125	-0.008453369140625	2569.73332251205
0.601806640625	-0.0084991455078125	2569.82182351182
0.597381591796875	-0.008544921875	2569.9103245116
0.59295654296875	-0.0085845947265625	2569.99882551138
0.588531494140625	-0.008624267578125	2570.08732651115
0.5841064453125	-0.0086669921875	2570.17582751093
0.579681396484375	-0.00870361328125	2570.26432851071
0.57525634765625	-0.008746337890625	2570.35282951048
0.570831298828125	-0.0087799072265625	2570.44133051026
0.56640625	-0.0088165283203125	2570.52983151004
0.561981201171875	-0.00885009765625	2570.61833250981
0.55755615234375	-0.00888671875	2570.70683350959
0.553131103515625	-0.0089202880859375	2570.79533450937
0.5487060546875	-0.008953857421875	2570.88383550914
0.544281005859375	-0.0089813232421875	2570.97233650892
0.53985595703125	-0.0090118408203125	2571.0608375087
0.535430908203125	-0.00904541015625	2571.14933850847
0.531005859375	-0.009075927734375	2571.23783950825
0.526580810546875	-0.0091064453125	2571.32634050803
0.52215576171875	-0.0091339111328125	2571.4148415078
0.517730712890625	-0.0091583251953125	2571.50334250758
0.5133056640625	-0.0091888427734375	2571.59184350735
0.508880615234375	-0.00921630859375	2571.68034450713
0.50445556640625	-0.0092437744140625	2571.76884550691
0.500030517578125	-0.0092681884765625	2571.85734650668
0.49560546875	-0.0092926025390625	2571.94584750646
0.491180419921875	-0.0093170166015625	2572.03434850624
0.48675537109375	-0.0093414306640625	2572.12284950601
0.482330322265625	-0.0093658447265625	2572.21135050579
0.4779052734375	-0.00938720703125	2572.29985150557
0.473480224609375	-0.0094146728515625	2572.38835250534
0.46905517578125	-0.00943603515625	2572.47685350512
0.464630126953125	-0.00946044921875	2572.5653545049
0.460205078125	-0.00948486328125	2572.65385550467
0.455780029296875	-0.00950927734375	2572.74235650445
0.45135498046875	-0.00953369140625	2572.83085750423
0.446929931640625	-0.0095550537109375	2572.919358504
0.4425048828125	-0.0095794677734375	2573.00785950378
0.438079833984375	-0.009600830078125	2573.09636050356
0.43365478515625	-0.009625244140625	2573.18486150333
0.429229736328125	-0.009649658203125	2573.27336250311
0.4248046875	-0.009674072265625	2573.36186350289
0.420379638671875	-0.009698486328125	2573.45036450266
0.41595458984375	-0.009722900390625	2573.53886550244
0.411529541015625	-0.009747314453125	2573.62736650222
0.4071044921875	-0.0097686767578125	2573.71586750199
0.402679443359375	-0.009796142578125	2573.80436850177
0.39825439453125	-0.009820556640625	2573.89286950155
0.393829345703125	-0.009844970703125	2573.98137050132
0.389404296875	-0.0098724365234375	2574.0698715011
0.384979248046875	-0.009893798828125	2574.15837250087
0.38055419921875	-0.0099212646484375	2574.24687350065
0.376129150390625	-0.0099456787109375	2574.33537450043
0.3717041015625	-0.0099700927734375	2574.4238755002
0.367279052734375	-0.0099945068359375	2574.51237649998
0.36285400390625	-0.01002197265625	2574.60087749976
0.358428955078125	-0.0100494384765625	2574.68937849953
0.35400390625	-0.0100738525390625	2574.77787949931
0.349578857421875	-0.0100982666015625	2574.86638049909
0.34515380859375	-0.0101287841796875	2574.95488149886
0.340728759765625	-0.0101531982421875	2575.04338249864
0.3363037109375	-0.010174560546875	2575.13188349842
0.331878662109375	-0.0102020263671875	2575.22038449819
0.32745361328125	-0.0102325439453125	2575.30888549797
0.323028564453125	-0.0102569580078125	2575.39738649775
0.318603515625	-0.010284423828125	2575.48588749752
0.314178466796875	-0.0103118896484375	2575.5743884973
0.30975341796875	-0.01033935546875	2575.66288949708
0.305328369140625	-0.0103668212890625	2575.75139049685
0.3009033203125	-0.0103912353515625	2575.83989149663
0.296478271484375	-0.010418701171875	2575.92839249641
0.29205322265625	-0.010443115234375	2576.01689349618
0.287628173828125	-0.010467529296875	2576.10539449596
0.283203125	-0.010491943359375	2576.19389549574
0.278778076171875	-0.010516357421875	2576.28239649551
0.27435302734375	-0.010540771484375	2576.37089749529
0.269927978515625	-0.010565185546875	2576.45939849507
0.2655029296875	-0.010589599609375	2576.54789949484
0.261077880859375	-0.010614013671875	2576.63640049462
0.25665283203125	-0.010638427734375	2576.72490149439
0.252227783203125	-0.0106597900390625	2576.81340249417
0.247802734375	-0.0106842041015625	2576.90190349395
0.243377685546875	-0.01070556640625	2576.99040449372
0.23895263671875	-0.0107269287109375	2577.0789054935
0.234527587890625	-0.0107513427734375	2577.16740649328
0.2301025390625	-0.0107696533203125	2577.25590749305
0.225677490234375	-0.010791015625	2577.34440849283
0.22125244140625	-0.0108123779296875	2577.43290949261
0.216827392578125	-0.0108306884765625	2577.52141049238
0.21240234375	-0.0108489990234375	2577.60991149216
0.207977294921875	-0.010870361328125	2577.69841249194
0.20355224609375	-0.010888671875	2577.78691349171
0.199127197265625	-0.010906982421875	2577.87541449149
0.1947021484375	-0.01092529296875	2577.96391549127
0.190277099609375	-0.0109405517578125	2578.05241649104
0.18585205078125	-0.0109588623046875	2578.14091749082
0.181427001953125	-0.01097412109375	2578.2294184906
0.177001953125	-0.010992431640625	2578.31791949037
0.172576904296875	-0.0110076904296875	2578.40642049015
0.16815185546875	-0.01102294921875	2578.49492148993
0.163726806640625	-0.0110382080078125	2578.5834224897
0.1593017578125	-0.011053466796875	2578.67192348948
0.154876708984375	-0.0110687255859375	2578.76042448926
0.15045166015625	-0.011083984375	2578.84892548903
0.146026611328125	-0.0110992431640625	2578.93742648881
0.1416015625	-0.011114501953125	2579.02592748859
0.137176513671875	-0.011126708984375	2579.11442848836
0.13275146484375	-0.0111419677734375	2579.20292948814
0.128326416015625	-0.0111602783203125	2579.29143048792
0.1239013671875	-0.0111724853515625	2579.37993148769
0.119476318359375	-0.011187744140625	2579.46843248747
0.11505126953125	-0.0111968994140625	2579.55693348724
0.110626220703125	-0.011212158203125	2579.64543448702
0.106201171875	-0.0112274169921875	2579.7339354868
0.101776123046875	-0.0112396240234375	2579.82243648657
0.09735107421875	-0.0112548828125	2579.91093748635
0.092926025390625	-0.0112701416015625	2579.99943848613
0.0885009765625	-0.011285400390625	2580.0879394859
0.084075927734375	-0.0113006591796875	2580.17644048568
0.07965087890625	-0.0113128662109375	2580.26494148546
0.075225830078125	-0.011328125	2580.35344248523
0.07080078125	-0.0113433837890625	2580.44194348501
0.066375732421875	-0.011358642578125	2580.53044448479
0.06195068359375	-0.011370849609375	2580.61894548456
0.057525634765625	-0.0113861083984375	2580.70744648434
0.0531005859375	-0.0114044189453125	2580.79594748412
0.048675537109375	-0.011419677734375	2580.88444848389
0.04425048828125	-0.0114349365234375	2580.97294948367
0.039825439453125	-0.0114471435546875	2581.06145048345
0.035400390625	-0.01146240234375	2581.14995148322
0.030975341796875	-0.011480712890625	2581.238452483
0.02655029296875	-0.0114959716796875	2581.32695348278
0.022125244140625	-0.011517333984375	2581.41545448255
0.0177001953125	-0.01153564453125	2581.50395548233
0.013275146484375	-0.0115509033203125	2581.59245648211
0.00885009765625	-0.0115692138671875	2581.68095748188
0.004425048828125	-0.011590576171875	2581.76945848166
0	-0.01160888671875	2581.85795948144
0.004425048828125	-0.0109405517578125	2581.94646048121
0.00885009765625	-0.0103057861328125	2582.03496148099
0.013275146484375	-0.0096954345703125	2582.12346248076
0.0177001953125	-0.0091094970703125	2582.21196348054
0.022125244140625	-0.008544921875	2582.30046448032
0.02655029296875	-0.00799560546875	2582.38896548009
0.030975341796875	-0.007470703125	2582.47746647987
0.035400390625	-0.006964111328125	2582.56596747965
0.039825439453125	-0.0064697265625	2582.65446847942
0.04425048828125	-0.0059967041015625	2582.7429694792
0.048675537109375	-0.0055328369140625	2582.83147047898
0.0531005859375	-0.0050872802734375	2582.91997147875
0.057525634765625	-0.0046551513671875	2583.00847247853
0.06195068359375	-0.00423675537109375	2583.09697347831
0.066375732421875	-0.0038299560546875	2583.18547447808
0.07080078125	-0.0034356689453125	2583.27397547786
0.075225830078125	-0.0030523681640625	2583.36247647764
0.07965087890625	-0.00269195556640625	2583.45097747741
0.084075927734375	-0.00233001708984375	2583.53947847719
0.0885009765625	-0.00197784423828125	2583.62797947697
0.092926025390625	-0.0016363525390625	2583.71648047674
0.09735107421875	-0.0013043212890625	2583.80498147652
0.101776123046875	-0.00098114013671875	2583.8934824763
0.106201171875	-0.000667724609375	2583.98198347607
0.110626220703125	-0.000362640380859375	2584.07048447585
0.11505126953125	-6.634521484375E-05	2584.15898547563
0.119476318359375	0.0002203369140625	2584.2474864754
0.1239013671875	0.00050079345703125	2584.33598747518
0.128326416015625	0.0007745361328125	2584.42448847496
0.13275146484375	0.0010394287109375	2584.51298947473
0.137176513671875	0.001297607421875	2584.60149047451
0.1416015625	0.00154876708984375	2584.68999147429
0.146026611328125	0.00179229736328125	2584.77849247406
0.15045166015625	0.00202911376953125	2584.86699347384
0.154876708984375	0.00226043701171875	2584.95549447361
0.1593017578125	0.00248443603515625	2585.04399547339
0.163726806640625	0.002703857421875	2585.13249647317
0.16815185546875	0.0029156494140625	2585.22099747294
0.172576904296875	0.00312255859375	2585.30949847272
0.177001953125	0.0033233642578125	2585.3979994725
0.181427001953125	0.00351959228515625	2585.48650047227
0.18585205078125	0.00370941162109375	2585.57500147205
0.190277099609375	0.00389495849609375	2585.66350247183
0.1947021484375	0.00407379150390625	2585.7520034716
0.199127197265625	0.00424774169921875	2585.84050447138
0.20355224609375	0.00441558837890625	2585.92900547116
0.207977294921875	0.004580078125	2586.01750647093
0.21240234375	0.0047412109375	2586.10600747071
0.216827392578125	0.00489593505859375	2586.19450847049
0.22125244140625	0.005048828125	2586.28300947026
0.225677490234375	0.00519622802734375	2586.37151047004
0.2301025390625	0.0053399658203125	2586.46001146982
0.234527587890625	0.0054779052734375	2586.54851246959
0.23895263671875	0.00561370849609375	2586.63701346937
0.243377685546875	0.00574249267578125	2586.72551446915
0.247802734375	0.00587127685546875	2586.81401546892
0.252227783203125	0.0059967041015625	2586.9025164687
0.25665283203125	0.00611572265625	2586.99101746848
0.261077880859375	0.0062225341796875	2587.07951846825
0.2655029296875	0.00633544921875	2587.16801946803
0.269927978515625	0.0064453125	2587.25652046781
0.27435302734375	0.0065521240234375	2587.34502146758
0.278778076171875	0.0066558837890625	2587.43352246736
0.283203125	0.006756591796875	2587.52202346714
0.287628173828125	0.006854248046875	2587.61052446691
0.29205322265625	0.006951904296875	2587.69902546669
0.296478271484375	0.00704345703125	2587.78752646646
0.3009033203125	0.0071319580078125	2587.87602746624
0.305328369140625	0.0072235107421875	2587.96452846602
0.30975341796875	0.0073089599609375	2588.05302946579
0.314178466796875	0.0073944091796875	2588.14153046557
0.318603515625	0.0074737548828125	2588.23003146535
0.323028564453125	0.0075531005859375	2588.31853246512
0.32745361328125	0.0076324462890625	2588.4070334649
0.331878662109375	0.0077056884765625	2588.49553446468
0.3363037109375	0.00777587890625	2588.58403546445
0.340728759765625	0.007843017578125	2588.67253646423
0.34515380859375	0.0079071044921875	2588.76103746401
0.349578857421875	0.00797119140625	2588.84953846378
0.35400390625	0.0080352783203125	2588.93803946356
0.358428955078125	0.008099365234375	2589.02654046334
0.36285400390625	0.008160400390625	2589.11504146311
0.367279052734375	0.0082244873046875	2589.20354246289
0.3717041015625	0.008282470703125	2589.29204346267
0.376129150390625	0.00833740234375	2589.38054446244
0.38055419921875	0.0083953857421875	2589.46904546222
0.384979248046875	0.0084503173828125	2589.557546462
0.389404296875	0.008502197265625	2589.64604746177
0.393829345703125	0.008551025390625	2589.73454846155
0.39825439453125	0.0086029052734375	2589.82304946133
0.402679443359375	0.0086517333984375	2589.9115504611
0.4071044921875	0.0087005615234375	2590.00005146088
0.411529541015625	0.0087432861328125	2590.08855246066
0.41595458984375	0.0087921142578125	2590.17705346043
0.420379638671875	0.008837890625	2590.26555446021
0.4248046875	0.008880615234375	2590.35405545998
0.429229736328125	0.00892333984375	2590.44255645976
0.43365478515625	0.0089630126953125	2590.53105745954
0.438079833984375	0.009002685546875	2590.61955845931
0.4425048828125	0.00904541015625	2590.70805945909
0.446929931640625	0.0090850830078125	2590.79656045887
0.45135498046875	0.0091217041015625	2590.88506145864
0.455780029296875	0.009161376953125	2590.97356245842
0.460205078125	0.009197998046875	2591.0620634582
0.464630126953125	0.009234619140625	2591.15056445797
0.46905517578125	0.0092681884765625	2591.23906545775
0.473480224609375	0.0093048095703125	2591.32756645753
0.4779052734375	0.0093414306640625	2591.4160674573
0.482330322265625	0.009375	2591.50456845708
0.48675537109375	0.009405517578125	2591.59306945686
0.491180419921875	0.00943603515625	2591.68157045663
0.49560546875	0.0094696044921875	2591.77007145641
0.500030517578125	0.009503173828125	2591.85857245619
0.50445556640625	0.00953369140625	2591.94707345596
0.508880615234375	0.009564208984375	2592.03557445574
0.5133056640625	0.0095947265625	2592.12407545552
0.517730712890625	0.009619140625	2592.21257645529
0.52215576171875	0.009649658203125	2592.30107745507
0.526580810546875	0.00968017578125	2592.38957845485
0.531005859375	0.00970458984375	2592.47807945462
0.535430908203125	0.0097320556640625	2592.5665804544
0.53985595703125	0.009759521484375	2592.65508145418
0.544281005859375	0.0097869873046875	2592.74358245395
0.5487060546875	0.0098114013671875	2592.83208345373
0.553131103515625	0.0098388671875	2592.9205844535
0.55755615234375	0.0098602294921875	2593.00908545328
0.561981201171875	0.009881591796875	2593.09758645306
0.56640625	0.009906005859375	2593.18608745283
0.570831298828125	0.0099273681640625	2593.27458845261
0.57525634765625	0.0099517822265625	2593.36308945239
0.579681396484375	0.00997314453125	2593.45159045216
0.5841064453125	0.009991455078125	2593.54009145194
0.588531494140625	0.0100128173828125	2593.62859245172
0.59295654296875	0.0100372314453125	2593.71709345149
0.597381591796875	0.01005859375	2593.80559445127
0.601806640625	0.010076904296875	2593.89409545105
0.606231689453125	0.01009521484375	2593.98259645082
0.61065673828125	0.0101104736328125	2594.0710974506
0.615081787109375	0.0101287841796875	2594.15959845038
0.6195068359375	0.01014404296875	2594.24809945015
0.623931884765625	0.010162353515625	2594.33660044993
0.62835693359375	0.0101837158203125	2594.42510144971
0.632781982421875	0.010198974609375	2594.51360244948
0.63720703125	0.010211181640625	2594.60210344926
0.641632080078125	0.010223388671875	2594.69060444904
0.64605712890625	0.0102386474609375	2594.77910544881
0.650482177734375	0.0102508544921875	2594.86760644859
0.6549072265625	0.01026611328125	2594.95610744837
0.659332275390625	0.0102783203125	2595.04460844814
0.66375732421875	0.010296630859375	2595.13310944792
0.668182373046875	0.010308837890625	2595.2216104477
0.672607421875	0.0103179931640625	2595.31011144747
0.677032470703125	0.0103302001953125	2595.39861244725
0.68145751953125	0.010345458984375	2595.48711344702
0.685882568359375	0.0103515625	2595.5756144468
0.6903076171875	0.0103607177734375	2595.66411544658
0.694732666015625	0.010369873046875	2595.75261644635
0.69915771484375	0.0103790283203125	2595.84111744613
0.703582763671875	0.01038818359375	2595.92961844591
0.7080078125	0.0103973388671875	2596.01811944568
0.712432861328125	0.0104034423828125	2596.10662044546
0.71685791015625	0.01041259765625	2596.19512144524
0.721282958984375	0.0104217529296875	2596.28362244501
0.7257080078125	0.0104278564453125	2596.37212344479
0.730133056640625	0.01043701171875	2596.46062444457
0.73455810546875	0.010443115234375	2596.54912544434
0.738983154296875	0.01044921875	2596.63762644412
0.743408203125	0.0104522705078125	2596.7261274439
0.747833251953125	0.0104583740234375	2596.81462844367
0.75225830078125	0.01046142578125	2596.90312944345
0.756683349609375	0.0104705810546875	2596.99163044323
0.7611083984375	0.0104766845703125	2597.080131443
0.765533447265625	0.0104827880859375	2597.16863244278
0.76995849609375	0.0104888916015625	2597.25713344256
0.774383544921875	0.0104949951171875	2597.34563444233
0.77880859375	0.010504150390625	2597.43413544211
0.783233642578125	0.01051025390625	2597.52263644189
0.78765869140625	0.010516357421875	2597.61113744166
0.792083740234375	0.0105194091796875	2597.69963844144
0.7965087890625	0.010528564453125	2597.78813944122
0.800933837890625	0.0105377197265625	2597.87664044099
0.80535888671875	0.0105438232421875	2597.96514144077
0.809783935546875	0.0105499267578125	2598.05364244054
0.814208984375	0.01055908203125	2598.14214344032
0.818634033203125	0.0105682373046875	2598.2306444401
0.82305908203125	0.0105743408203125	2598.31914543987
0.827484130859375	0.01058349609375	2598.40764643965
0.8319091796875	0.0105926513671875	2598.49614743943
0.836334228515625	0.010601806640625	2598.5846484392
0.84075927734375	0.0106109619140625	2598.67314943898
0.845184326171875	0.0106231689453125	2598.76165043876
0.849609375	0.0106353759765625	2598.85015143853
0.854034423828125	0.01064453125	2598.93865243831
0.85845947265625	0.0106597900390625	2599.02715343809
0.862884521484375	0.0106689453125	2599.11565443786
0.8673095703125	0.01068115234375	2599.20415543764
0.871734619140625	0.0106964111328125	2599.29265643742
0.87615966796875	0.010711669921875	2599.38115743719
0.880584716796875	0.01072998046875	2599.46965843697
0.885009765625	0.0107452392578125	2599.55815943675
0.889434814453125	0.010760498046875	2599.64666043652
0.89385986328125	0.0107818603515625	2599.7351614363
0.898284912109375	0.01080322265625	2599.82366243608
0.9027099609375	0.0108245849609375	2599.91216343585
0.907135009765625	0.010845947265625	2600.00066443563
0.91156005859375	0.0108673095703125	2600.08916543541
0.915985107421875	0.0108917236328125	2600.17766643518
0.92041015625	0.0109222412109375	2600.26616743496
0.924835205078125	0.0109466552734375	2600.35466843474
0.92926025390625	0.0109710693359375	2600.44316943451
0.933685302734375	0.0110015869140625	2600.53167043429
0.9381103515625	0.01103515625	2600.62017143407
0.942535400390625	0.0110687255859375	2600.70867243384
0.94696044921875	0.0111053466796875	2600.79717343362
0.951385498046875	0.0111419677734375	2600.88567443339
0.955810546875	0.011175537109375	2600.97417543317
0.960235595703125	0.0112213134765625	2601.06267643295
0.96466064453125	0.011260986328125	2601.15117743272
0.969085693359375	0.0113037109375	2601.2396784325
0.9735107421875	0.0113494873046875	2601.32817943228
0.977935791015625	0.011395263671875	2601.41668043205
0.98236083984375	0.011444091796875	2601.50518143183
0.986785888671875	0.0114959716796875	2601.59368243161
0.9912109375	0.0115509033203125	2601.68218343138
