Potential applied (V)	WE(1).Current (A)	Time (s)
0.004425048828125	-0.0718994140625	2110.69466867101
0.00885009765625	-0.0640289306640625	2110.91592067045
0.013275146484375	-0.057440185546875	2111.13717266989
0.0177001953125	-0.0517242431640625	2111.35842466933
0.022125244140625	-0.0466949462890625	2111.57967666877
0.02655029296875	-0.042291259765625	2111.80092866822
0.030975341796875	-0.0384185791015625	2112.02218066766
0.035400390625	-0.0349945068359375	2112.2434326671
0.039825439453125	-0.0319610595703125	2112.46468466654
0.04425048828125	-0.029248046875	2112.68593666598
0.048675537109375	-0.026800537109375	2112.90718866542
0.0531005859375	-0.0245941162109375	2113.12844066486
0.057525634765625	-0.022576904296875	2113.3496926643
0.06195068359375	-0.020733642578125	2113.57094466375
0.066375732421875	-0.0190460205078125	2113.79219666319
0.07080078125	-0.0174957275390625	2114.01344866263
0.075225830078125	-0.016070556640625	2114.23470066207
0.07965087890625	-0.014752197265625	2114.45595266151
0.084075927734375	-0.0135284423828125	2114.67720466095
0.0885009765625	-0.01240234375	2114.89845666039
0.092926025390625	-0.0113616943359375	2115.11970865984
0.09735107421875	-0.010394287109375	2115.34096065928
0.101776123046875	-0.00948486328125	2115.56221265872
0.106201171875	-0.008648681640625	2115.78346465816
0.110626220703125	-0.00787353515625	2116.0047166576
0.11505126953125	-0.007147216796875	2116.22596865704
0.119476318359375	-0.0064727783203125	2116.44722065648
0.1239013671875	-0.005841064453125	2116.66847265593
0.128326416015625	-0.0052520751953125	2116.88972465537
0.13275146484375	-0.00470184326171875	2117.11097665481
0.137176513671875	-0.0041876220703125	2117.33222865425
0.1416015625	-0.0037066650390625	2117.55348065369
0.146026611328125	-0.00325714111328125	2117.77473265313
0.15045166015625	-0.00283355712890625	2117.99598465257
0.154876708984375	-0.00244873046875	2118.21723665202
0.1593017578125	-0.00207794189453125	2118.43848865146
0.163726806640625	-0.0017291259765625	2118.6597406509
0.16815185546875	-0.00140228271484375	2118.88099265034
0.172576904296875	-0.00109466552734375	2119.10224464978
0.177001953125	-0.000806884765625	2119.32349664922
0.181427001953125	-0.00053558349609375	2119.54474864866
0.18585205078125	-0.000281463623046875	2119.76600064811
0.190277099609375	-4.1998291015625E-05	2119.98725264755
0.1947021484375	0.000182952880859375	2120.20850464699
0.199127197265625	0.00039410400390625	2120.42975664643
0.20355224609375	0.00059326171875	2120.65100864587
0.207977294921875	0.00077972412109375	2120.87226064531
0.21240234375	0.0009552001953125	2121.09351264475
0.216827392578125	0.00112060546875	2121.31476464419
0.22125244140625	0.0012762451171875	2121.53601664364
0.225677490234375	0.0014227294921875	2121.75726864308
0.2301025390625	0.00156097412109375	2121.97852064252
0.234527587890625	0.001690673828125	2122.19977264196
0.23895263671875	0.00181304931640625	2122.4210246414
0.243377685546875	0.00192718505859375	2122.64227664084
0.247802734375	0.00203582763671875	2122.86352864029
0.252227783203125	0.00213836669921875	2123.08478063973
0.25665283203125	0.00223480224609375	2123.30603263917
0.261077880859375	0.00232635498046875	2123.52728463861
0.2655029296875	0.00241119384765625	2123.74853663805
0.269927978515625	0.00249267578125	2123.96978863749
0.27435302734375	0.00256866455078125	2124.19104063693
0.278778076171875	0.00264068603515625	2124.41229263637
0.283203125	0.00270904541015625	2124.63354463582
0.287628173828125	0.00277374267578125	2124.85479663526
0.29205322265625	0.0028350830078125	2125.0760486347
0.296478271484375	0.00289337158203125	2125.29730063414
0.3009033203125	0.00294891357421875	2125.51855263358
0.305328369140625	0.00300018310546875	2125.73980463302
0.30975341796875	0.0030499267578125	2125.96105663246
0.314178466796875	0.00309967041015625	2126.18230863191
0.318603515625	0.00314361572265625	2126.40356063135
0.323028564453125	0.00318634033203125	2126.62481263079
0.32745361328125	0.0032269287109375	2126.84606463023
0.331878662109375	0.00326690673828125	2127.06731662967
0.3363037109375	0.00330230712890625	2127.28856862911
0.340728759765625	0.00333770751953125	2127.50982062855
0.34515380859375	0.00337127685546875	2127.731072628
0.349578857421875	0.0034051513671875	2127.95232462744
0.35400390625	0.00343170166015625	2128.17357662688
0.358428955078125	0.00346099853515625	2128.39482862632
0.36285400390625	0.00348846435546875	2128.61608062576
0.367279052734375	0.0035162353515625	2128.8373326252
0.3717041015625	0.00354400634765625	2129.05858462464
0.376129150390625	0.00357025146484375	2129.27983662408
0.38055419921875	0.0035931396484375	2129.50108862353
0.384979248046875	0.0036151123046875	2129.72234062297
0.389404296875	0.00363677978515625	2129.94359262241
0.393829345703125	0.0036566162109375	2130.16484462185
0.39825439453125	0.0036785888671875	2130.38609662129
0.402679443359375	0.00369781494140625	2130.60734862073
0.4071044921875	0.00372039794921875	2130.82860062018
0.411529541015625	0.00374176025390625	2131.04985261962
0.41595458984375	0.00376007080078125	2131.27110461906
0.420379638671875	0.00378082275390625	2131.4923566185
0.4248046875	0.00379547119140625	2131.71360861794
0.429229736328125	0.0038116455078125	2131.93486061738
0.43365478515625	0.0038275146484375	2132.15611261682
0.438079833984375	0.003841552734375	2132.37736461626
0.4425048828125	0.00385650634765625	2132.59861661571
0.446929931640625	0.00387115478515625	2132.81986861515
0.45135498046875	0.003885498046875	2133.04112061459
0.455780029296875	0.00389923095703125	2133.26237261403
0.460205078125	0.0039141845703125	2133.48362461347
0.464630126953125	0.0039288330078125	2133.70487661291
0.46905517578125	0.00394073486328125	2133.92612861235
0.473480224609375	0.00395233154296875	2134.1473806118
0.4779052734375	0.00396636962890625	2134.36863261124
0.482330322265625	0.0039794921875	2134.58988461068
0.48675537109375	0.00399017333984375	2134.81113661012
0.491180419921875	0.00400299072265625	2135.03238860956
0.49560546875	0.00401336669921875	2135.253640609
0.500030517578125	0.00402374267578125	2135.47489260844
0.50445556640625	0.00403564453125	2135.69614460789
0.508880615234375	0.00404510498046875	2135.91739660733
0.5133056640625	0.00405303955078125	2136.13864860677
0.517730712890625	0.004061279296875	2136.35990060621
0.52215576171875	0.0040704345703125	2136.58115260565
0.526580810546875	0.00407806396484375	2136.80240460509
0.531005859375	0.00408782958984375	2137.02365660453
0.535430908203125	0.0040948486328125	2137.24490860398
0.53985595703125	0.00410369873046875	2137.46616060342
0.544281005859375	0.00410980224609375	2137.68741260286
0.5487060546875	0.004114990234375	2137.9086646023
0.553131103515625	0.00412139892578125	2138.12991660174
0.55755615234375	0.0041302490234375	2138.35116860118
0.561981201171875	0.004136962890625	2138.57242060062
0.56640625	0.0041424560546875	2138.79367260007
0.570831298828125	0.0041473388671875	2139.01492459951
0.57525634765625	0.00415313720703125	2139.23617659895
0.579681396484375	0.0041571044921875	2139.45742859839
0.5841064453125	0.0041619873046875	2139.67868059783
0.588531494140625	0.00416473388671875	2139.89993259727
0.59295654296875	0.00416748046875	2140.12118459671
0.597381591796875	0.00417236328125	2140.34243659615
0.601806640625	0.004176025390625	2140.5636885956
0.606231689453125	0.0041790771484375	2140.78494059504
0.61065673828125	0.00418182373046875	2141.00619259448
0.615081787109375	0.0041845703125	2141.22744459392
0.6195068359375	0.00418792724609375	2141.44869659336
0.623931884765625	0.0041925048828125	2141.6699485928
0.62835693359375	0.00419921875	2141.89120059224
0.632781982421875	0.00420166015625	2142.11245259169
0.63720703125	0.004205322265625	2142.33370459113
0.641632080078125	0.00420928955078125	2142.55495659057
0.64605712890625	0.00421051025390625	2142.77620859001
0.650482177734375	0.004212646484375	2142.99746058945
0.6549072265625	0.00421356201171875	2143.21871258889
0.659332275390625	0.00421478271484375	2143.43996458833
0.66375732421875	0.004217529296875	2143.66121658778
0.668182373046875	0.00421966552734375	2143.88246858722
0.672607421875	0.00422119140625	2144.10372058666
0.677032470703125	0.0042236328125	2144.3249725861
0.68145751953125	0.00422607421875	2144.54622458554
0.685882568359375	0.00422821044921875	2144.76747658498
0.6903076171875	0.00423126220703125	2144.98872858442
0.694732666015625	0.00423370361328125	2145.20998058387
0.69915771484375	0.0042376708984375	2145.43123258331
0.703582763671875	0.00424041748046875	2145.65248458275
0.7080078125	0.0042449951171875	2145.87373658219
0.712432861328125	0.0042498779296875	2146.09498858163
0.71685791015625	0.004254150390625	2146.31624058107
0.721282958984375	0.00425933837890625	2146.53749258051
0.7257080078125	0.00426361083984375	2146.75874457996
0.730133056640625	0.0042694091796875	2146.9799965794
0.73455810546875	0.00427276611328125	2147.20124857884
0.738983154296875	0.00427825927734375	2147.42250057828
0.743408203125	0.00428192138671875	2147.64375257772
0.747833251953125	0.00428863525390625	2147.86500457716
0.75225830078125	0.00429595947265625	2148.0862565766
0.756683349609375	0.00430511474609375	2148.30750857604
0.7611083984375	0.00431304931640625	2148.52876057549
0.765533447265625	0.0043218994140625	2148.75001257493
0.76995849609375	0.004329833984375	2148.97126457437
0.774383544921875	0.00433929443359375	2149.19251657381
0.77880859375	0.00435089111328125	2149.41376857325
0.783233642578125	0.00436126708984375	2149.63502057269
0.78765869140625	0.00437255859375	2149.85627257213
0.792083740234375	0.00438232421875	2150.07752457158
0.7965087890625	0.00439666748046875	2150.29877657102
0.800933837890625	0.004407958984375	2150.52002857046
0.80535888671875	0.004423828125	2150.7412805699
0.809783935546875	0.00443939208984375	2150.96253256934
0.814208984375	0.0044561767578125	2151.18378456878
0.818634033203125	0.00447265625	2151.40503656822
0.82305908203125	0.0044915771484375	2151.62628856767
0.827484130859375	0.00451080322265625	2151.84754056711
0.8319091796875	0.004530029296875	2152.06879256655
0.836334228515625	0.0045526123046875	2152.29004456599
0.84075927734375	0.00457489013671875	2152.51129656543
0.845184326171875	0.00459747314453125	2152.73254856487
0.849609375	0.004622802734375	2152.95380056431
0.854034423828125	0.00464935302734375	2153.17505256376
0.85845947265625	0.00467620849609375	2153.3963045632
0.862884521484375	0.00470611572265625	2153.61755656264
0.8673095703125	0.00473785400390625	2153.83880856208
0.871734619140625	0.0047705078125	2154.06006056152
0.87615966796875	0.00480499267578125	2154.28131256096
0.880584716796875	0.0048406982421875	2154.5025645604
0.885009765625	0.00487884521484375	2154.72381655985
0.889434814453125	0.00491668701171875	2154.94506855929
0.89385986328125	0.00495819091796875	2155.16632055873
0.898284912109375	0.00500030517578125	2155.38757255817
0.9027099609375	0.00504425048828125	2155.60882455761
0.907135009765625	0.0050909423828125	2155.83007655705
0.91156005859375	0.00513885498046875	2156.05132855649
0.915985107421875	0.00518585205078125	2156.27258055593
0.92041015625	0.005235595703125	2156.49383255538
0.924835205078125	0.0052886962890625	2156.71508455482
0.92926025390625	0.005345458984375	2156.93633655426
0.933685302734375	0.0054022216796875	2157.1575885537
0.9381103515625	0.0054620361328125	2157.37884055314
0.942535400390625	0.005521240234375	2157.60009255258
0.94696044921875	0.00558349609375	2157.82134455203
0.951385498046875	0.00564544677734375	2158.04259655147
0.955810546875	0.00571197509765625	2158.26384855091
0.960235595703125	0.0057781982421875	2158.48510055035
0.96466064453125	0.00584503173828125	2158.70635254979
0.969085693359375	0.00591278076171875	2158.92760454923
0.9735107421875	0.0059814453125	2159.14885654867
0.977935791015625	0.0060528564453125	2159.37010854811
0.98236083984375	0.006121826171875	2159.59136054756
0.986785888671875	0.006195068359375	2159.812612547
0.9912109375	0.00626220703125	2160.03386454644
0.995635986328125	0.0063385009765625	2160.25511654588
1.00006103515625	0.006414794921875	2160.47636854532
0.995635986328125	0.0058563232421875	2160.69762054476
0.9912109375	0.0053436279296875	2160.9188725442
0.986785888671875	0.00486602783203125	2161.14012454365
0.98236083984375	0.0044158935546875	2161.36137654309
0.977935791015625	0.00399078369140625	2161.58262854253
0.9735107421875	0.0035931396484375	2161.80388054197
0.969085693359375	0.00321380615234375	2162.02513254141
0.96466064453125	0.00285430908203125	2162.24638454085
0.960235595703125	0.00250946044921875	2162.46763654029
0.955810546875	0.002181396484375	2162.68888853974
0.951385498046875	0.00186767578125	2162.91014053918
0.94696044921875	0.00156646728515625	2163.13139253862
0.942535400390625	0.00127899169921875	2163.35264453806
0.9381103515625	0.00100433349609375	2163.5738965375
0.933685302734375	0.00073822021484375	2163.79514853694
0.92926025390625	0.00048516845703125	2164.01640053638
0.924835205078125	0.000242828369140625	2164.23765253582
0.92041015625	1.01348876953125E-05	2164.45890453527
0.915985107421875	-0.000213043212890625	2164.68015653471
0.91156005859375	-0.000427337646484375	2164.90140853415
0.907135009765625	-0.000633697509765625	2165.12266053359
0.9027099609375	-0.00083099365234375	2165.34391253303
0.898284912109375	-0.0010205078125	2165.56516453247
0.89385986328125	-0.00120269775390625	2165.78641653192
0.889434814453125	-0.0013775634765625	2166.00766853136
0.885009765625	-0.00154510498046875	2166.2289205308
0.880584716796875	-0.00170654296875	2166.45017253024
0.87615966796875	-0.00186065673828125	2166.67142452968
0.871734619140625	-0.00200836181640625	2166.89267652912
0.8673095703125	-0.00214996337890625	2167.11392852856
0.862884521484375	-0.00228515625	2167.335180528
0.85845947265625	-0.0024139404296875	2167.55643252745
0.854034423828125	-0.0025384521484375	2167.77768452689
0.849609375	-0.0026568603515625	2167.99893652633
0.845184326171875	-0.0027703857421875	2168.22018852577
0.84075927734375	-0.00287933349609375	2168.44144052521
0.836334228515625	-0.0029815673828125	2168.66269252465
0.8319091796875	-0.00308013916015625	2168.88394452409
0.827484130859375	-0.00317474365234375	2169.10519652354
0.82305908203125	-0.00326324462890625	2169.32644852298
0.818634033203125	-0.00334686279296875	2169.54770052242
0.814208984375	-0.00342742919921875	2169.76895252186
0.809783935546875	-0.00350372314453125	2169.9902045213
0.80535888671875	-0.00357452392578125	2170.21145652074
0.800933837890625	-0.003642578125	2170.43270852018
0.7965087890625	-0.0037078857421875	2170.65396051963
0.792083740234375	-0.00376922607421875	2170.87521251907
0.78765869140625	-0.003824462890625	2171.09646451851
0.783233642578125	-0.00388092041015625	2171.31771651795
0.77880859375	-0.00392791748046875	2171.53896851739
0.774383544921875	-0.00397430419921875	2171.76022051683
0.76995849609375	-0.00401885986328125	2171.98147251627
0.765533447265625	-0.00406097412109375	2172.20272451572
0.7611083984375	-0.0040997314453125	2172.42397651516
0.756683349609375	-0.0041326904296875	2172.6452285146
0.75225830078125	-0.00416473388671875	2172.86648051404
0.747833251953125	-0.0041949462890625	2173.08773251348
0.743408203125	-0.00422119140625	2173.30898451292
0.738983154296875	-0.00424407958984375	2173.53023651236
0.73455810546875	-0.0042669677734375	2173.75148851181
0.730133056640625	-0.0042877197265625	2173.97274051125
0.7257080078125	-0.004306640625	2174.19399251069
0.721282958984375	-0.0043231201171875	2174.41524451013
0.71685791015625	-0.00433685302734375	2174.63649650957
0.712432861328125	-0.00434967041015625	2174.85774850901
0.7080078125	-0.00436126708984375	2175.07900050845
0.703582763671875	-0.00436981201171875	2175.30025250789
0.69915771484375	-0.0043768310546875	2175.52150450734
0.694732666015625	-0.00438568115234375	2175.74275650678
0.6903076171875	-0.0043914794921875	2175.96400850622
0.685882568359375	-0.00439788818359375	2176.18526050566
0.68145751953125	-0.00440093994140625	2176.4065125051
0.677032470703125	-0.004403076171875	2176.62776450454
0.672607421875	-0.004403076171875	2176.84901650398
0.668182373046875	-0.00440216064453125	2177.07026850343
0.66375732421875	-0.004403076171875	2177.29152050287
0.659332275390625	-0.00439971923828125	2177.51277250231
0.6549072265625	-0.00439788818359375	2177.73402450175
0.650482177734375	-0.00439544677734375	2177.95527650119
0.64605712890625	-0.004393310546875	2178.17652850063
0.641632080078125	-0.00439178466796875	2178.39778050007
0.63720703125	-0.0043902587890625	2178.61903249952
0.632781982421875	-0.0043878173828125	2178.84028449896
0.62835693359375	-0.004384765625	2179.0615364984
0.623931884765625	-0.004383544921875	2179.28278849784
0.6195068359375	-0.00438201904296875	2179.50404049728
0.615081787109375	-0.004376220703125	2179.72529249672
0.61065673828125	-0.00437347412109375	2179.94654449616
0.606231689453125	-0.00437164306640625	2180.16779649561
0.601806640625	-0.0043670654296875	2180.38904849505
0.597381591796875	-0.00436309814453125	2180.61030049449
0.59295654296875	-0.00435760498046875	2180.83155249393
0.588531494140625	-0.0043560791015625	2181.05280449337
0.5841064453125	-0.00435089111328125	2181.27405649281
0.579681396484375	-0.004346923828125	2181.49530849225
0.57525634765625	-0.00434661865234375	2181.7165604917
0.570831298828125	-0.00434600830078125	2181.93781249114
0.56640625	-0.00434326171875	2182.15906449058
0.561981201171875	-0.00434234619140625	2182.38031649002
0.55755615234375	-0.00434326171875	2182.60156848946
0.553131103515625	-0.0043414306640625	2182.8228204889
0.5487060546875	-0.0043438720703125	2183.04407248834
0.544281005859375	-0.00434326171875	2183.26532448778
0.53985595703125	-0.0043426513671875	2183.48657648723
0.535430908203125	-0.00434326171875	2183.70782848667
0.531005859375	-0.00434356689453125	2183.92908048611
0.526580810546875	-0.00434661865234375	2184.15033248555
0.52215576171875	-0.00434967041015625	2184.37158448499
0.517730712890625	-0.00435150146484375	2184.59283648443
0.5133056640625	-0.00435455322265625	2184.81408848387
0.508880615234375	-0.00435760498046875	2185.03534048332
0.50445556640625	-0.004361572265625	2185.25659248276
0.500030517578125	-0.0043658447265625	2185.4778444822
0.49560546875	-0.00437255859375	2185.69909648164
0.491180419921875	-0.00437835693359375	2185.92034848108
0.48675537109375	-0.004383544921875	2186.14160048052
0.482330322265625	-0.0043878173828125	2186.36285247996
0.4779052734375	-0.00439300537109375	2186.58410447941
0.473480224609375	-0.00439971923828125	2186.80535647885
0.46905517578125	-0.00440643310546875	2187.02660847829
0.464630126953125	-0.0044122314453125	2187.24786047773
0.460205078125	-0.00442138671875	2187.46911247717
0.455780029296875	-0.00442901611328125	2187.69036447661
0.45135498046875	-0.004437255859375	2187.91161647605
0.446929931640625	-0.004447021484375	2188.1328684755
0.4425048828125	-0.004454345703125	2188.35412047494
0.438079833984375	-0.00446319580078125	2188.57537247438
0.43365478515625	-0.0044732666015625	2188.79662447382
0.429229736328125	-0.004482421875	2189.01787647326
0.4248046875	-0.0044927978515625	2189.2391284727
0.420379638671875	-0.00450439453125	2189.46038047214
0.41595458984375	-0.00451507568359375	2189.68163247159
0.411529541015625	-0.00452545166015625	2189.90288447103
0.4071044921875	-0.004537353515625	2190.12413647047
0.402679443359375	-0.0045465087890625	2190.34538846991
0.39825439453125	-0.00455841064453125	2190.56664046935
0.393829345703125	-0.00456695556640625	2190.78789246879
0.389404296875	-0.0045758056640625	2191.00914446823
0.384979248046875	-0.00458709716796875	2191.23039646767
0.38055419921875	-0.00459686279296875	2191.45164846712
0.376129150390625	-0.004608154296875	2191.67290046656
0.3717041015625	-0.00461761474609375	2191.894152466
0.367279052734375	-0.0046270751953125	2192.11540446544
0.36285400390625	-0.00463592529296875	2192.33665646488
0.358428955078125	-0.004644775390625	2192.55790846432
0.35400390625	-0.00465423583984375	2192.77916046377
0.349578857421875	-0.00466156005859375	2193.00041246321
0.34515380859375	-0.00467010498046875	2193.22166446265
0.340728759765625	-0.00467742919921875	2193.44291646209
0.3363037109375	-0.00468353271484375	2193.66416846153
0.331878662109375	-0.00469085693359375	2193.88542046097
0.32745361328125	-0.00469940185546875	2194.10667246041
0.323028564453125	-0.00470672607421875	2194.32792445985
0.318603515625	-0.00471221923828125	2194.5491764593
0.314178466796875	-0.0047198486328125	2194.77042845874
0.30975341796875	-0.004727783203125	2194.99168045818
0.305328369140625	-0.0047332763671875	2195.21293245762
0.3009033203125	-0.0047381591796875	2195.43418445706
0.296478271484375	-0.00474273681640625	2195.6554364565
0.29205322265625	-0.0047467041015625	2195.87668845594
0.287628173828125	-0.00475067138671875	2196.09794045539
0.283203125	-0.0047552490234375	2196.31919245483
0.278778076171875	-0.004759521484375	2196.54044445427
0.27435302734375	-0.00476348876953125	2196.76169645371
0.269927978515625	-0.00476776123046875	2196.98294845315
0.2655029296875	-0.00477081298828125	2197.20420045259
0.261077880859375	-0.0047747802734375	2197.42545245203
0.25665283203125	-0.004779052734375	2197.64670445148
0.252227783203125	-0.00478302001953125	2197.86795645092
0.247802734375	-0.00478729248046875	2198.08920845036
0.243377685546875	-0.00479156494140625	2198.3104604498
0.23895263671875	-0.00479461669921875	2198.53171244924
0.234527587890625	-0.00479827880859375	2198.75296444868
0.2301025390625	-0.0047998046875	2198.97421644812
0.225677490234375	-0.00480377197265625	2199.19546844756
0.22125244140625	-0.00480621337890625	2199.41672044701
0.216827392578125	-0.00481109619140625	2199.63797244645
0.21240234375	-0.00481475830078125	2199.85922444589
0.207977294921875	-0.0048193359375	2200.08047644533
0.20355224609375	-0.00482208251953125	2200.30172844477
0.199127197265625	-0.0048248291015625	2200.52298044421
0.1947021484375	-0.00482879638671875	2200.74423244366
0.190277099609375	-0.00483154296875	2200.9654844431
0.18585205078125	-0.00483642578125	2201.18673644254
0.181427001953125	-0.00484222412109375	2201.40798844198
0.177001953125	-0.004847412109375	2201.62924044142
0.172576904296875	-0.004852294921875	2201.85049244086
0.16815185546875	-0.0048577880859375	2202.0717444403
0.163726806640625	-0.00486358642578125	2202.29299643974
0.1593017578125	-0.00486846923828125	2202.51424843919
0.154876708984375	-0.004873046875	2202.73550043863
0.15045166015625	-0.0048809814453125	2202.95675243807
0.146026611328125	-0.00488494873046875	2203.17800443751
0.1416015625	-0.0048907470703125	2203.39925643695
0.137176513671875	-0.00489654541015625	2203.62050843639
0.13275146484375	-0.00490264892578125	2203.84176043583
0.128326416015625	-0.00490936279296875	2204.06301243528
0.1239013671875	-0.0049163818359375	2204.28426443472
0.119476318359375	-0.00492431640625	2204.50551643416
0.11505126953125	-0.00493133544921875	2204.7267684336
0.110626220703125	-0.00493988037109375	2204.94802043304
0.106201171875	-0.00494842529296875	2205.16927243248
0.101776123046875	-0.00495849609375	2205.39052443192
0.09735107421875	-0.0049688720703125	2205.61177643137
0.092926025390625	-0.0049786376953125	2205.83302843081
0.0885009765625	-0.00498992919921875	2206.05428043025
0.084075927734375	-0.00500030517578125	2206.27553242969
0.07965087890625	-0.005010986328125	2206.49678442913
0.075225830078125	-0.0050225830078125	2206.71803642857
0.07080078125	-0.00503662109375	2206.93928842801
0.066375732421875	-0.005050048828125	2207.16054042746
0.06195068359375	-0.0050628662109375	2207.3817924269
0.057525634765625	-0.00507843017578125	2207.60304442634
0.0531005859375	-0.0050927734375	2207.82429642578
0.048675537109375	-0.0051068115234375	2208.04554842522
0.04425048828125	-0.00512298583984375	2208.26680042466
0.039825439453125	-0.005140380859375	2208.4880524241
0.035400390625	-0.005157470703125	2208.70930442355
0.030975341796875	-0.00517486572265625	2208.93055642299
0.02655029296875	-0.00519256591796875	2209.15180842243
0.022125244140625	-0.005211181640625	2209.37306042187
0.0177001953125	-0.00523223876953125	2209.59431242131
0.013275146484375	-0.0052508544921875	2209.81556442075
0.00885009765625	-0.0052716064453125	2210.03681642019
0.004425048828125	-0.00529541015625	2210.25806841963
0	-0.005318603515625	2210.47932041908
0.004425048828125	-0.0047186279296875	2210.70057241852
0.00885009765625	-0.00416961669921875	2210.92182441796
0.013275146484375	-0.00366363525390625	2211.1430764174
0.0177001953125	-0.003194580078125	2211.36432841684
0.022125244140625	-0.0027569580078125	2211.58558041628
0.02655029296875	-0.00235015869140625	2211.80683241572
0.030975341796875	-0.00197052001953125	2212.02808441517
0.035400390625	-0.00161407470703125	2212.24933641461
0.039825439453125	-0.00128021240234375	2212.47058841405
0.04425048828125	-0.00096710205078125	2212.69184041349
0.048675537109375	-0.00067291259765625	2212.91309241293
0.0531005859375	-0.000396392822265625	2213.13434441237
0.057525634765625	-0.000135986328125	2213.35559641181
0.06195068359375	0.000108978271484375	2213.57684841126
0.066375732421875	0.000339691162109375	2213.7981004107
0.07080078125	0.00055694580078125	2214.01935241014
0.075225830078125	0.0007623291015625	2214.24060440958
0.07965087890625	0.00095458984375	2214.46185640902
0.084075927734375	0.001136474609375	2214.68310840846
0.0885009765625	0.00130767822265625	2214.9043604079
0.092926025390625	0.00147003173828125	2215.12561240735
0.09735107421875	0.00162200927734375	2215.34686440679
0.101776123046875	0.001766357421875	2215.56811640623
0.106201171875	0.00190216064453125	2215.78936840567
0.110626220703125	0.00202911376953125	2216.01062040511
0.11505126953125	0.0021478271484375	2216.23187240455
0.119476318359375	0.0022589111328125	2216.45312440399
0.1239013671875	0.00236480712890625	2216.67437640344
0.128326416015625	0.0024652099609375	2216.89562840288
0.13275146484375	0.002559814453125	2217.11688040232
0.137176513671875	0.00265045166015625	2217.33813240176
0.1416015625	0.00273468017578125	2217.5593844012
0.146026611328125	0.00281402587890625	2217.78063640064
0.15045166015625	0.002889404296875	2218.00188840008
0.154876708984375	0.00296051025390625	2218.22314039952
0.1593017578125	0.00302642822265625	2218.44439239897
0.163726806640625	0.00308929443359375	2218.66564439841
0.16815185546875	0.00314788818359375	2218.88689639785
0.172576904296875	0.0032037353515625	2219.10814839729
0.177001953125	0.0032550048828125	2219.32940039673
0.181427001953125	0.00330413818359375	2219.55065239617
0.18585205078125	0.003349609375	2219.77190439561
0.190277099609375	0.0033929443359375	2219.99315639506
0.1947021484375	0.00343475341796875	2220.2144083945
0.199127197265625	0.00347412109375	2220.43566039394
0.20355224609375	0.0035113525390625	2220.65691239338
0.207977294921875	0.00354522705078125	2220.87816439282
0.21240234375	0.00357818603515625	2221.09941639226
0.216827392578125	0.0036090087890625	2221.3206683917
0.22125244140625	0.00363861083984375	2221.54192039115
0.225677490234375	0.00366485595703125	2221.76317239059
0.2301025390625	0.00369171142578125	2221.98442439003
0.234527587890625	0.00371673583984375	2222.20567638947
0.23895263671875	0.00374114990234375	2222.42692838891
0.243377685546875	0.0037640380859375	2222.64818038835
0.247802734375	0.00378509521484375	2222.86943238779
0.252227783203125	0.003804931640625	2223.09068438724
0.25665283203125	0.0038238525390625	2223.31193638668
0.261077880859375	0.00384307861328125	2223.53318838612
0.2655029296875	0.00386077880859375	2223.75444038556
0.269927978515625	0.0038775634765625	2223.975692385
0.27435302734375	0.003892822265625	2224.19694438444
0.278778076171875	0.00390869140625	2224.41819638388
0.283203125	0.0039251708984375	2224.63944838333
0.287628173828125	0.003936767578125	2224.86070038277
0.29205322265625	0.0039508056640625	2225.08195238221
0.296478271484375	0.00396331787109375	2225.30320438165
0.3009033203125	0.003975830078125	2225.52445638109
0.305328369140625	0.003990478515625	2225.74570838053
0.30975341796875	0.00400238037109375	2225.96696037997
0.314178466796875	0.0040155029296875	2226.18821237941
0.318603515625	0.0040264892578125	2226.40946437886
0.323028564453125	0.004039306640625	2226.6307163783
0.32745361328125	0.00404998779296875	2226.85196837774
0.331878662109375	0.00406005859375	2227.07322037718
0.3363037109375	0.004071044921875	2227.29447237662
0.340728759765625	0.00408233642578125	2227.51572437606
0.34515380859375	0.0040924072265625	2227.73697637551
0.349578857421875	0.00410308837890625	2227.95822837495
0.35400390625	0.00411163330078125	2228.17948037439
0.358428955078125	0.00412261962890625	2228.40073237383
0.36285400390625	0.0041314697265625	2228.62198437327
0.367279052734375	0.00414276123046875	2228.84323637271
0.3717041015625	0.00415313720703125	2229.06448837215
0.376129150390625	0.00416259765625	2229.28574037159
0.38055419921875	0.00417236328125	2229.50699237104
0.384979248046875	0.00418243408203125	2229.72824437048
0.389404296875	0.0041937255859375	2229.94949636992
0.393829345703125	0.00420318603515625	2230.17074836936
0.39825439453125	0.0042138671875	2230.3920003688
0.402679443359375	0.00422393798828125	2230.61325236824
0.4071044921875	0.00423370361328125	2230.83450436768
0.411529541015625	0.00424407958984375	2231.05575636713
0.41595458984375	0.00425262451171875	2231.27700836657
0.420379638671875	0.00426300048828125	2231.49826036601
0.4248046875	0.0042730712890625	2231.71951236545
0.429229736328125	0.00428253173828125	2231.94076436489
0.43365478515625	0.0042926025390625	2232.16201636433
0.438079833984375	0.0043023681640625	2232.38326836377
0.4425048828125	0.004310302734375	2232.60452036322
0.446929931640625	0.0043194580078125	2232.82577236266
0.45135498046875	0.0043267822265625	2233.0470243621
0.455780029296875	0.00433502197265625	2233.26827636154
0.460205078125	0.00434417724609375	2233.48952836098
0.464630126953125	0.0043505859375	2233.71078036042
0.46905517578125	0.00435943603515625	2233.93203235986
0.473480224609375	0.004366455078125	2234.1532843593
0.4779052734375	0.00437469482421875	2234.37453635875
0.482330322265625	0.00438079833984375	2234.59578835819
0.48675537109375	0.00438751220703125	2234.81704035763
0.491180419921875	0.00439544677734375	2235.03829235707
0.49560546875	0.00440155029296875	2235.25954435651
0.500030517578125	0.00440887451171875	2235.48079635595
0.50445556640625	0.00441314697265625	2235.7020483554
0.508880615234375	0.00442138671875	2235.92330035484
0.5133056640625	0.0044268798828125	2236.14455235428
0.517730712890625	0.00443328857421875	2236.36580435372
0.52215576171875	0.004439697265625	2236.58705635316
0.526580810546875	0.00444305419921875	2236.8083083526
0.531005859375	0.00444854736328125	2237.02956035204
0.535430908203125	0.00445465087890625	2237.25081235148
0.53985595703125	0.00445953369140625	2237.47206435093
0.544281005859375	0.0044622802734375	2237.69331635037
0.5487060546875	0.004466552734375	2237.91456834981
0.553131103515625	0.0044708251953125	2238.13582034925
0.55755615234375	0.004473876953125	2238.35707234869
0.561981201171875	0.00447845458984375	2238.57832434813
0.56640625	0.0044818115234375	2238.79957634757
0.570831298828125	0.00448516845703125	2239.02082834702
0.57525634765625	0.004488525390625	2239.24208034646
0.579681396484375	0.0044921875	2239.4633323459
0.5841064453125	0.00449432373046875	2239.68458434534
0.588531494140625	0.00449462890625	2239.90583634478
0.59295654296875	0.0044964599609375	2240.12708834422
0.597381591796875	0.00449920654296875	2240.34834034366
0.601806640625	0.00450103759765625	2240.56959234311
0.606231689453125	0.004503173828125	2240.79084434255
0.61065673828125	0.0045068359375	2241.01209634199
0.615081787109375	0.0045074462890625	2241.23334834143
0.6195068359375	0.00450836181640625	2241.45460034087
0.623931884765625	0.00451019287109375	2241.67585234031
0.62835693359375	0.0045147705078125	2241.89710433975
0.632781982421875	0.00451629638671875	2242.1183563392
0.63720703125	0.00451690673828125	2242.33960833864
0.641632080078125	0.0045184326171875	2242.56086033808
0.64605712890625	0.00451873779296875	2242.78211233752
0.650482177734375	0.00452056884765625	2243.00336433696
0.6549072265625	0.004522705078125	2243.2246163364
0.659332275390625	0.00452362060546875	2243.44586833584
0.66375732421875	0.0045263671875	2243.66712033529
0.668182373046875	0.00452667236328125	2243.88837233473
0.672607421875	0.00452667236328125	2244.10962433417
0.677032470703125	0.004527587890625	2244.33087633361
0.68145751953125	0.00452880859375	2244.55212833305
0.685882568359375	0.00453033447265625	2244.77338033249
0.6903076171875	0.00453338623046875	2244.99463233193
0.694732666015625	0.00453369140625	2245.21588433137
0.69915771484375	0.00453643798828125	2245.43713633082
0.703582763671875	0.00453765869140625	2245.65838833026
0.7080078125	0.004541015625	2245.8796403297
0.712432861328125	0.0045428466796875	2246.10089232914
0.71685791015625	0.0045465087890625	2246.32214432858
0.721282958984375	0.004549560546875	2246.54339632802
0.7257080078125	0.004554443359375	2246.76464832746
0.730133056640625	0.00455902099609375	2246.98590032691
0.73455810546875	0.00456329345703125	2247.20715232635
0.738983154296875	0.004569091796875	2247.42840432579
0.743408203125	0.00457427978515625	2247.64965632523
0.747833251953125	0.00457855224609375	2247.87090832467
0.75225830078125	0.0045849609375	2248.09216032411
0.756683349609375	0.00459136962890625	2248.31341232355
0.7611083984375	0.00459869384765625	2248.534664323
0.765533447265625	0.0046063232421875	2248.75591632244
0.76995849609375	0.004615478515625	2248.97716832188
0.774383544921875	0.004622802734375	2249.19842032132
0.77880859375	0.00463348388671875	2249.41967232076
0.783233642578125	0.00464141845703125	2249.6409243202
0.78765869140625	0.00465301513671875	2249.86217631964
0.792083740234375	0.0046630859375	2250.08342831909
0.7965087890625	0.00467437744140625	2250.30468031853
0.800933837890625	0.0046868896484375	2250.52593231797
0.80535888671875	0.004700927734375	2250.74718431741
0.809783935546875	0.0047161865234375	2250.96843631685
0.814208984375	0.0047332763671875	2251.18968831629
0.818634033203125	0.00474822998046875	2251.41094031573
0.82305908203125	0.00476318359375	2251.63219231518
0.827484130859375	0.00478363037109375	2251.85344431462
0.8319091796875	0.0048004150390625	2252.07469631406
0.836334228515625	0.0048193359375	2252.2959483135
0.84075927734375	0.00483917236328125	2252.51720031294
0.845184326171875	0.0048626708984375	2252.73845231238
0.849609375	0.00488525390625	2252.95970431182
0.854034423828125	0.0049102783203125	2253.18095631126
0.85845947265625	0.0049371337890625	2253.40220831071
0.862884521484375	0.0049639892578125	2253.62346031015
0.8673095703125	0.00499053955078125	2253.84471230959
0.871734619140625	0.00502166748046875	2254.06596430903
0.87615966796875	0.00505462646484375	2254.28721630847
0.880584716796875	0.00508636474609375	2254.50846830791
0.885009765625	0.00511993408203125	2254.72972030735
0.889434814453125	0.00515655517578125	2254.9509723068
0.89385986328125	0.00519500732421875	2255.17222430624
0.898284912109375	0.00523162841796875	2255.39347630568
0.9027099609375	0.005272216796875	2255.61472830512
0.907135009765625	0.00531585693359375	2255.83598030456
0.91156005859375	0.00536163330078125	2256.057232304
0.915985107421875	0.00540863037109375	2256.27848430344
0.92041015625	0.0054559326171875	2256.49973630289
0.924835205078125	0.00550506591796875	2256.72098830233
0.92926025390625	0.005556640625	2256.94224030177
0.933685302734375	0.0056109619140625	2257.16349230121
0.9381103515625	0.0056646728515625	2257.38474430065
0.942535400390625	0.00572021484375	2257.60599630009
0.94696044921875	0.0057781982421875	2257.82724829953
0.951385498046875	0.00583953857421875	2258.04850029898
0.955810546875	0.00589935302734375	2258.26975229842
0.960235595703125	0.00596435546875	2258.49100429786
0.96466064453125	0.006026611328125	2258.7122562973
0.969085693359375	0.0060821533203125	2258.93350829674
0.9735107421875	0.006146240234375	2259.15476029618
0.977935791015625	0.0062103271484375	2259.37601229562
0.98236083984375	0.0062774658203125	2259.59726429507
0.986785888671875	0.0063446044921875	2259.81851629451
0.9912109375	0.0064178466796875	2260.03976829395
0.995635986328125	0.0064910888671875	2260.26102029339
1.00006103515625	0.006561279296875	2260.48227229283
0.995635986328125	0.005999755859375	2260.70352429227
0.9912109375	0.0054840087890625	2260.92477629171
0.986785888671875	0.0050018310546875	2261.14602829115
0.98236083984375	0.00455169677734375	2261.3672802906
0.977935791015625	0.00412689208984375	2261.58853229004
0.9735107421875	0.003724365234375	2261.80978428948
0.969085693359375	0.00334197998046875	2262.03103628892
0.96466064453125	0.00297821044921875	2262.25228828836
0.960235595703125	0.00263458251953125	2262.4735402878
0.955810546875	0.00230438232421875	2262.69479228725
0.951385498046875	0.001988525390625	2262.91604428669
0.94696044921875	0.00168548583984375	2263.13729628613
0.942535400390625	0.00139556884765625	2263.35854828557
0.9381103515625	0.00111785888671875	2263.57980028501
0.933685302734375	0.000849609375	2263.80105228445
0.92926025390625	0.00059478759765625	2264.02230428389
0.924835205078125	0.00035003662109375	2264.24355628333
0.92041015625	0.000115020751953125	2264.46480828278
0.915985107421875	-0.000110443115234375	2264.68606028222
0.91156005859375	-0.000326904296875	2264.90731228166
0.907135009765625	-0.0005340576171875	2265.1285642811
0.9027099609375	-0.000733642578125	2265.34981628054
0.898284912109375	-0.00092559814453125	2265.57106827998
0.89385986328125	-0.0011090087890625	2265.79232027942
0.889434814453125	-0.00128509521484375	2266.01357227887
0.885009765625	-0.00145416259765625	2266.23482427831
0.880584716796875	-0.0016162109375	2266.45607627775
0.87615966796875	-0.0017724609375	2266.67732827719
0.871734619140625	-0.00192108154296875	2266.89858027663
0.8673095703125	-0.00206268310546875	2267.11983227607
0.862884521484375	-0.00219940185546875	2267.34108427551
0.85845947265625	-0.00232940673828125	2267.56233627496
0.854034423828125	-0.00245513916015625	2267.7835882744
0.849609375	-0.002574462890625	2268.00484027384
0.845184326171875	-0.00268951416015625	2268.22609227328
0.84075927734375	-0.00279876708984375	2268.44734427272
0.836334228515625	-0.0029022216796875	2268.66859627216
0.8319091796875	-0.0029998779296875	2268.8898482716
0.827484130859375	-0.003094482421875	2269.11110027104
0.82305908203125	-0.0031854248046875	2269.33235227049
0.818634033203125	-0.00327056884765625	2269.55360426993
0.814208984375	-0.00335174560546875	2269.77485626937
0.809783935546875	-0.00342803955078125	2269.99610826881
0.80535888671875	-0.00350006103515625	2270.21736026825
0.800933837890625	-0.00356964111328125	2270.43861226769
0.7965087890625	-0.00363311767578125	2270.65986426714
0.792083740234375	-0.00369415283203125	2270.88111626658
0.78765869140625	-0.00375213623046875	2271.10236826602
0.783233642578125	-0.00380584716796875	2271.32362026546
0.77880859375	-0.00385589599609375	2271.5448722649
0.774383544921875	-0.003902587890625	2271.76612426434
0.76995849609375	-0.00394775390625	2271.98737626378
0.765533447265625	-0.003988037109375	2272.20862826322
0.7611083984375	-0.00402679443359375	2272.42988026267
0.756683349609375	-0.00406341552734375	2272.65113226211
0.75225830078125	-0.004095458984375	2272.87238426155
0.747833251953125	-0.00412567138671875	2273.09363626099
0.743408203125	-0.00415252685546875	2273.31488826043
0.738983154296875	-0.00417633056640625	2273.53614025987
0.73455810546875	-0.004200439453125	2273.75739225931
0.730133056640625	-0.00422119140625	2273.97864425876
0.7257080078125	-0.0042401123046875	2274.1998962582
0.721282958984375	-0.00425872802734375	2274.42114825764
0.71685791015625	-0.0042724609375	2274.64240025708
0.712432861328125	-0.004285888671875	2274.86365225652
0.7080078125	-0.004298095703125	2275.08490425596
0.703582763671875	-0.0043084716796875	2275.3061562554
0.69915771484375	-0.0043170166015625	2275.52740825485
0.694732666015625	-0.00432464599609375	2275.74866025429
0.6903076171875	-0.0043316650390625	2275.96991225373
0.685882568359375	-0.0043365478515625	2276.19116425317
0.68145751953125	-0.0043408203125	2276.41241625261
0.677032470703125	-0.00434417724609375	2276.63366825205
0.672607421875	-0.00434600830078125	2276.85492025149
0.668182373046875	-0.00434844970703125	2277.07617225094
0.66375732421875	-0.00434722900390625	2277.29742425038
0.659332275390625	-0.0043463134765625	2277.51867624982
0.6549072265625	-0.00434661865234375	2277.73992824926
0.650482177734375	-0.00434600830078125	2277.9611802487
0.64605712890625	-0.0043450927734375	2278.18243224814
0.641632080078125	-0.00434295654296875	2278.40368424758
0.63720703125	-0.00434051513671875	2278.62493624703
0.632781982421875	-0.00433807373046875	2278.84618824647
0.62835693359375	-0.0043359375	2279.06744024591
0.623931884765625	-0.00433624267578125	2279.28869224535
0.6195068359375	-0.00433349609375	2279.50994424479
0.615081787109375	-0.0043304443359375	2279.73119624423
0.61065673828125	-0.00432861328125	2279.95244824367
0.606231689453125	-0.00432647705078125	2280.17370024311
0.601806640625	-0.00432373046875	2280.39495224256
0.597381591796875	-0.0043218994140625	2280.616204242
0.59295654296875	-0.00432098388671875	2280.83745624144
0.588531494140625	-0.0043194580078125	2281.05870824088
0.5841064453125	-0.00431427001953125	2281.27996024032
0.579681396484375	-0.0043133544921875	2281.50121223976
0.57525634765625	-0.00430999755859375	2281.7224642392
0.570831298828125	-0.00431182861328125	2281.94371623865
0.56640625	-0.00430999755859375	2282.16496823809
0.561981201171875	-0.0043096923828125	2282.38622023753
0.55755615234375	-0.004307861328125	2282.60747223697
0.553131103515625	-0.00430755615234375	2282.82872423641
0.5487060546875	-0.0043084716796875	2283.04997623585
0.544281005859375	-0.00430938720703125	2283.27122823529
0.53985595703125	-0.0043084716796875	2283.49248023474
0.535430908203125	-0.00431121826171875	2283.71373223418
0.531005859375	-0.00431365966796875	2283.93498423362
0.526580810546875	-0.00431488037109375	2284.15623623306
0.52215576171875	-0.00431793212890625	2284.3774882325
0.517730712890625	-0.0043212890625	2284.59874023194
0.5133056640625	-0.00432403564453125	2284.81999223138
0.508880615234375	-0.00432769775390625	2285.04124423083
0.50445556640625	-0.0043328857421875	2285.26249623027
0.500030517578125	-0.004337158203125	2285.48374822971
0.49560546875	-0.004342041015625	2285.70500022915
0.491180419921875	-0.00434783935546875	2285.92625222859
0.48675537109375	-0.00435516357421875	2286.14750422803
0.482330322265625	-0.004361572265625	2286.36875622747
0.4779052734375	-0.004368896484375	2286.59000822692
0.473480224609375	-0.00437591552734375	2286.81126022636
0.46905517578125	-0.0043853759765625	2287.0325122258
0.464630126953125	-0.00439208984375	2287.25376422524
0.460205078125	-0.00439971923828125	2287.47501622468
0.455780029296875	-0.0044097900390625	2287.69626822412
0.45135498046875	-0.004417724609375	2287.91752022356
0.446929931640625	-0.00442840576171875	2288.138772223
0.4425048828125	-0.00443572998046875	2288.36002422245
0.438079833984375	-0.00444549560546875	2288.58127622189
0.43365478515625	-0.0044561767578125	2288.80252822133
0.429229736328125	-0.00446624755859375	2289.02378022077
0.4248046875	-0.00447540283203125	2289.24503222021
0.420379638671875	-0.0044866943359375	2289.46628421965
0.41595458984375	-0.0044976806640625	2289.68753621909
0.411529541015625	-0.00450958251953125	2289.90878821854
0.4071044921875	-0.00452056884765625	2290.13004021798
0.402679443359375	-0.00453094482421875	2290.35129221742
0.39825439453125	-0.0045404052734375	2290.57254421686
0.393829345703125	-0.0045513916015625	2290.7937962163
0.389404296875	-0.00456207275390625	2291.01504821574
0.384979248046875	-0.0045721435546875	2291.23630021518
0.38055419921875	-0.00458282470703125	2291.45755221463
0.376129150390625	-0.00459320068359375	2291.67880421407
0.3717041015625	-0.00460296630859375	2291.90005621351
0.367279052734375	-0.0046136474609375	2292.12130821295
0.36285400390625	-0.00462066650390625	2292.34256021239
0.358428955078125	-0.0046307373046875	2292.56381221183
0.35400390625	-0.004639892578125	2292.78506421127
0.349578857421875	-0.004647216796875	2293.00631621072
0.34515380859375	-0.00465606689453125	2293.22756821016
0.340728759765625	-0.0046624755859375	2293.4488202096
0.3363037109375	-0.0046697998046875	2293.67007220904
0.331878662109375	-0.00467803955078125	2293.89132420848
0.32745361328125	-0.00468536376953125	2294.11257620792
0.323028564453125	-0.00469268798828125	2294.33382820736
0.318603515625	-0.00469818115234375	2294.55508020681
0.314178466796875	-0.00470428466796875	2294.77633220625
0.30975341796875	-0.004713134765625	2294.99758420569
0.305328369140625	-0.00471710205078125	2295.21883620513
0.3009033203125	-0.0047210693359375	2295.44008820457
0.296478271484375	-0.0047271728515625	2295.66134020401
0.29205322265625	-0.00473052978515625	2295.88259220345
0.287628173828125	-0.0047344970703125	2296.10384420289
0.283203125	-0.00473968505859375	2296.32509620234
0.278778076171875	-0.0047454833984375	2296.54634820178
0.27435302734375	-0.00475006103515625	2296.76760020122
0.269927978515625	-0.00475128173828125	2296.98885220066
0.2655029296875	-0.00475555419921875	2297.2101042001
0.261077880859375	-0.004759521484375	2297.43135619954
0.25665283203125	-0.004761962890625	2297.65260819899
0.252227783203125	-0.00476531982421875	2297.87386019843
0.247802734375	-0.0047705078125	2298.09511219787
0.243377685546875	-0.0047747802734375	2298.31636419731
0.23895263671875	-0.00477630615234375	2298.53761619675
0.234527587890625	-0.00477996826171875	2298.75886819619
0.2301025390625	-0.00478240966796875	2298.98012019563
0.225677490234375	-0.00478515625	2299.20137219507
0.22125244140625	-0.00478851318359375	2299.42262419452
0.216827392578125	-0.00479278564453125	2299.64387619396
0.21240234375	-0.0047943115234375	2299.8651281934
0.207977294921875	-0.00479949951171875	2300.08638019284
0.20355224609375	-0.0048028564453125	2300.30763219228
0.199127197265625	-0.0048065185546875	2300.52888419172
0.1947021484375	-0.00481109619140625	2300.75013619116
0.190277099609375	-0.00481597900390625	2300.97138819061
0.18585205078125	-0.00482147216796875	2301.19264019005
0.181427001953125	-0.00482452392578125	2301.41389218949
0.177001953125	-0.00482818603515625	2301.63514418893
0.172576904296875	-0.00483123779296875	2301.85639618837
0.16815185546875	-0.00483612060546875	2302.07764818781
0.163726806640625	-0.00484039306640625	2302.29890018725
0.1593017578125	-0.0048455810546875	2302.5201521867
0.154876708984375	-0.0048492431640625	2302.74140418614
0.15045166015625	-0.0048541259765625	2302.96265618558
0.146026611328125	-0.0048602294921875	2303.18390818502
0.1416015625	-0.004866943359375	2303.40516018446
0.137176513671875	-0.0048724365234375	2303.6264121839
0.13275146484375	-0.00487762451171875	2303.84766418334
0.128326416015625	-0.0048834228515625	2304.06891618278
0.1239013671875	-0.00488983154296875	2304.29016818223
0.119476318359375	-0.00489715576171875	2304.51142018167
0.11505126953125	-0.00490325927734375	2304.73267218111
0.110626220703125	-0.00491058349609375	2304.95392418055
0.106201171875	-0.00491729736328125	2305.17517617999
0.101776123046875	-0.00492645263671875	2305.39642817943
0.09735107421875	-0.00493377685546875	2305.61768017888
0.092926025390625	-0.00494415283203125	2305.83893217832
0.0885009765625	-0.00495391845703125	2306.06018417776
0.084075927734375	-0.00496307373046875	2306.2814361772
0.07965087890625	-0.0049737548828125	2306.50268817664
0.075225830078125	-0.00498626708984375	2306.72394017608
0.07080078125	-0.00499542236328125	2306.94519217552
0.066375732421875	-0.0050067138671875	2307.16644417496
0.06195068359375	-0.0050201416015625	2307.38769617441
0.057525634765625	-0.00503204345703125	2307.60894817385
0.0531005859375	-0.00504486083984375	2307.83020017329
0.048675537109375	-0.005059814453125	2308.05145217273
0.04425048828125	-0.00507568359375	2308.27270417217
0.039825439453125	-0.0050909423828125	2308.49395617161
0.035400390625	-0.00510498046875	2308.71520817105
0.030975341796875	-0.0051226806640625	2308.9364601705
0.02655029296875	-0.00514007568359375	2309.15771216994
0.022125244140625	-0.0051605224609375	2309.37896416938
0.0177001953125	-0.005179443359375	2309.60021616882
0.013275146484375	-0.00519866943359375	2309.82146816826
0.00885009765625	-0.00521820068359375	2310.0427201677
0.004425048828125	-0.00523895263671875	2310.26397216714
0	-0.00525909423828125	2310.48522416659
0.004425048828125	-0.0046612548828125	2310.70647616603
0.00885009765625	-0.0041131591796875	2310.92772816547
0.013275146484375	-0.00360748291015625	2311.14898016491
0.0177001953125	-0.00313812255859375	2311.37023216435
0.022125244140625	-0.00270355224609375	2311.59148416379
0.02655029296875	-0.00229827880859375	2311.81273616323
0.030975341796875	-0.00191986083984375	2312.03398816268
0.035400390625	-0.0015643310546875	2312.25524016212
0.039825439453125	-0.00123260498046875	2312.47649216156
0.04425048828125	-0.00092132568359375	2312.697744161
0.048675537109375	-0.00062774658203125	2312.91899616044
0.0531005859375	-0.00035296630859375	2313.14024815988
0.057525634765625	-9.375E-05	2313.36150015932
0.06195068359375	0.000150054931640625	2313.58275215877
0.066375732421875	0.000379547119140625	2313.80400415821
0.07080078125	0.00059539794921875	2314.02525615765
0.075225830078125	0.00079925537109375	2314.24650815709
0.07965087890625	0.0009906005859375	2314.46776015653
0.084075927734375	0.00117156982421875	2314.68901215597
0.0885009765625	0.00134246826171875	2314.91026415541
0.092926025390625	0.00150360107421875	2315.13151615485
0.09735107421875	0.0016546630859375	2315.3527681543
0.101776123046875	0.0017974853515625	2315.57402015374
0.106201171875	0.0019317626953125	2315.79527215318
0.110626220703125	0.00205841064453125	2316.01652415262
0.11505126953125	0.00217620849609375	2316.23777615206
0.119476318359375	0.0022857666015625	2316.4590281515
0.1239013671875	0.002391357421875	2316.68028015094
0.128326416015625	0.00249176025390625	2316.90153215039
0.13275146484375	0.0025860595703125	2317.12278414983
0.137176513671875	0.00267364501953125	2317.34403614927
0.1416015625	0.0027587890625	2317.56528814871
0.146026611328125	0.00283721923828125	2317.78654014815
0.15045166015625	0.00291229248046875	2318.00779214759
0.154876708984375	0.00298187255859375	2318.22904414703
0.1593017578125	0.00304840087890625	2318.45029614648
0.163726806640625	0.0031097412109375	2318.67154814592
0.16815185546875	0.0031689453125	2318.89280014536
0.172576904296875	0.0032244873046875	2319.1140521448
0.177001953125	0.003275146484375	2319.33530414424
0.181427001953125	0.0033233642578125	2319.55655614368
0.18585205078125	0.0033697509765625	2319.77780814312
0.190277099609375	0.0034124755859375	2319.99906014257
0.1947021484375	0.003453369140625	2320.22031214201
0.199127197265625	0.0034912109375	2320.44156414145
0.20355224609375	0.00352752685546875	2320.66281614089
0.207977294921875	0.00356048583984375	2320.88406814033
0.21240234375	0.00359375	2321.10532013977
0.216827392578125	0.003624267578125	2321.32657213921
0.22125244140625	0.003653564453125	2321.54782413866
0.225677490234375	0.0036798095703125	2321.7690761381
0.2301025390625	0.00370574951171875	2321.99032813754
0.234527587890625	0.00372955322265625	2322.21158013698
0.23895263671875	0.00375274658203125	2322.43283213642
0.243377685546875	0.003775634765625	2322.65408413586
0.247802734375	0.003795166015625	2322.8753361353
0.252227783203125	0.00381591796875	2323.09658813474
0.25665283203125	0.00383392333984375	2323.31784013419
0.261077880859375	0.00385223388671875	2323.53909213363
0.2655029296875	0.00386993408203125	2323.76034413307
0.269927978515625	0.00388580322265625	2323.98159613251
0.27435302734375	0.00390167236328125	2324.20284813195
0.278778076171875	0.00391571044921875	2324.42410013139
0.283203125	0.0039300537109375	2324.64535213083
0.287628173828125	0.0039453125	2324.86660413028
0.29205322265625	0.0039593505859375	2325.08785612972
0.296478271484375	0.00397216796875	2325.30910812916
0.3009033203125	0.003985595703125	2325.5303601286
0.305328369140625	0.00399810791015625	2325.75161212804
0.30975341796875	0.00401092529296875	2325.97286412748
0.314178466796875	0.00402374267578125	2326.19411612692
0.318603515625	0.00403533935546875	2326.41536812637
0.323028564453125	0.004046630859375	2326.63662012581
0.32745361328125	0.00405670166015625	2326.85787212525
0.331878662109375	0.00406829833984375	2327.07912412469
0.3363037109375	0.00407745361328125	2327.30037612413
0.340728759765625	0.00408721923828125	2327.52162812357
0.34515380859375	0.0040997314453125	2327.74288012301
0.349578857421875	0.00410919189453125	2327.96413212246
0.35400390625	0.0041168212890625	2328.1853841219
0.358428955078125	0.0041278076171875	2328.40663612134
0.36285400390625	0.00413726806640625	2328.62788812078
0.367279052734375	0.0041473388671875	2328.84914012022
0.3717041015625	0.004156494140625	2329.07039211966
0.376129150390625	0.0041668701171875	2329.2916441191
0.38055419921875	0.00417572021484375	2329.51289611855
0.384979248046875	0.0041845703125	2329.73414811799
0.389404296875	0.0041943359375	2329.95540011743
0.393829345703125	0.00420501708984375	2330.17665211687
0.39825439453125	0.0042138671875	2330.39790411631
0.402679443359375	0.00422332763671875	2330.61915611575
0.4071044921875	0.00423370361328125	2330.84040811519
0.411529541015625	0.0042431640625	2331.06166011463
0.41595458984375	0.00425445556640625	2331.28291211408
0.420379638671875	0.0042608642578125	2331.50416411352
0.4248046875	0.004271240234375	2331.72541611296
0.429229736328125	0.0042803955078125	2331.9466681124
0.43365478515625	0.00429168701171875	2332.16792011184
0.438079833984375	0.00429931640625	2332.38917211128
0.4425048828125	0.00430877685546875	2332.61042411073
0.446929931640625	0.0043157958984375	2332.83167611017
0.45135498046875	0.0043243408203125	2333.05292810961
0.455780029296875	0.0043328857421875	2333.27418010905
0.460205078125	0.00433990478515625	2333.49543210849
0.464630126953125	0.0043487548828125	2333.71668410793
0.46905517578125	0.00435516357421875	2333.93793610737
0.473480224609375	0.0043621826171875	2334.15918810681
0.4779052734375	0.0043682861328125	2334.38044010626
0.482330322265625	0.0043768310546875	2334.6016921057
0.48675537109375	0.00438323974609375	2334.82294410514
0.491180419921875	0.00439178466796875	2335.04419610458
0.49560546875	0.00439727783203125	2335.26544810402
0.500030517578125	0.00440338134765625	2335.48670010346
0.50445556640625	0.0044110107421875	2335.7079521029
0.508880615234375	0.00441650390625	2335.92920410235
0.5133056640625	0.0044232177734375	2336.15045610179
0.517730712890625	0.0044281005859375	2336.37170810123
0.52215576171875	0.004434814453125	2336.59296010067
0.526580810546875	0.00444000244140625	2336.81421210011
0.531005859375	0.00444549560546875	2337.03546409955
0.535430908203125	0.00445068359375	2337.25671609899
0.53985595703125	0.00445281982421875	2337.47796809844
0.544281005859375	0.00445648193359375	2337.69922009788
0.5487060546875	0.00446014404296875	2337.92047209732
0.553131103515625	0.0044647216796875	2338.14172409676
0.55755615234375	0.0044683837890625	2338.3629760962
0.561981201171875	0.00447235107421875	2338.58422809564
0.56640625	0.004476318359375	2338.80548009508
0.570831298828125	0.0044769287109375	2339.02673209452
0.57525634765625	0.00447967529296875	2339.24798409397
0.579681396484375	0.0044830322265625	2339.46923609341
0.5841064453125	0.0044854736328125	2339.69048809285
0.588531494140625	0.00448455810546875	2339.91174009229
0.59295654296875	0.00448760986328125	2340.13299209173
0.597381591796875	0.00448944091796875	2340.35424409117
0.601806640625	0.0044940185546875	2340.57549609062
0.606231689453125	0.00449554443359375	2340.79674809006
0.61065673828125	0.004495849609375	2341.0180000895
0.615081787109375	0.0044989013671875	2341.23925208894
0.6195068359375	0.00449981689453125	2341.46050408838
0.623931884765625	0.0045013427734375	2341.68175608782
0.62835693359375	0.00450592041015625	2341.90300808726
0.632781982421875	0.0045074462890625	2342.1242600867
0.63720703125	0.0045086669921875	2342.34551208615
0.641632080078125	0.00450927734375	2342.56676408559
0.64605712890625	0.00451080322265625	2342.78801608503
0.650482177734375	0.00451080322265625	2343.00926808447
0.6549072265625	0.00451141357421875	2343.23052008391
0.659332275390625	0.00451202392578125	2343.45177208335
0.66375732421875	0.004515380859375	2343.67302408279
0.668182373046875	0.004515380859375	2343.89427608224
0.672607421875	0.00451568603515625	2344.11552808168
0.677032470703125	0.00451751708984375	2344.33678008112
0.68145751953125	0.00451904296875	2344.55803208056
0.685882568359375	0.00452056884765625	2344.77928408
0.6903076171875	0.0045233154296875	2345.00053607944
0.694732666015625	0.004525146484375	2345.22178807888
0.69915771484375	0.004527587890625	2345.44304007833
0.703582763671875	0.00452880859375	2345.66429207777
0.7080078125	0.0045306396484375	2345.88554407721
0.712432861328125	0.00453460693359375	2346.10679607665
0.71685791015625	0.00453887939453125	2346.32804807609
0.721282958984375	0.0045416259765625	2346.54930007553
0.7257080078125	0.00454437255859375	2346.77055207497
0.730133056640625	0.00454925537109375	2346.99180407442
0.73455810546875	0.0045550537109375	2347.21305607386
0.738983154296875	0.0045574951171875	2347.4343080733
0.743408203125	0.00456207275390625	2347.65556007274
0.747833251953125	0.00456756591796875	2347.87681207218
0.75225830078125	0.0045745849609375	2348.09806407162
0.756683349609375	0.004580078125	2348.31931607106
0.7611083984375	0.00458587646484375	2348.54056807051
0.765533447265625	0.00459381103515625	2348.76182006995
0.76995849609375	0.0046014404296875	2348.98307206939
0.774383544921875	0.0046112060546875	2349.20432406883
0.77880859375	0.00461883544921875	2349.42557606827
0.783233642578125	0.00462799072265625	2349.64682806771
0.78765869140625	0.00463775634765625	2349.86808006715
0.792083740234375	0.00464935302734375	2350.08933206659
0.7965087890625	0.00465972900390625	2350.31058406604
0.800933837890625	0.00467254638671875	2350.53183606548
0.80535888671875	0.0046844482421875	2350.75308806492
0.809783935546875	0.004697265625	2350.97434006436
0.814208984375	0.00471038818359375	2351.1955920638
0.818634033203125	0.0047265625	2351.41684406324
0.82305908203125	0.00474334716796875	2351.63809606268
0.827484130859375	0.0047625732421875	2351.85934806213
0.8319091796875	0.004779052734375	2352.08060006157
0.836334228515625	0.0047979736328125	2352.30185206101
0.84075927734375	0.00481842041015625	2352.52310406045
0.845184326171875	0.00484100341796875	2352.74435605989
0.849609375	0.00486328125	2352.96560805933
0.854034423828125	0.00488739013671875	2353.18686005877
0.85845947265625	0.00491241455078125	2353.40811205822
0.862884521484375	0.0049371337890625	2353.62936405766
0.8673095703125	0.0049652099609375	2353.8506160571
0.871734619140625	0.00499542236328125	2354.07186805654
0.87615966796875	0.0050262451171875	2354.29312005598
0.880584716796875	0.00505859375	2354.51437205542
0.885009765625	0.00509307861328125	2354.73562405486
0.889434814453125	0.00512725830078125	2354.95687605431
0.89385986328125	0.00516326904296875	2355.17812805375
0.898284912109375	0.00520233154296875	2355.39938005319
0.9027099609375	0.00524200439453125	2355.62063205263
0.907135009765625	0.00528411865234375	2355.84188405207
0.91156005859375	0.0053271484375	2356.06313605151
0.915985107421875	0.00537109375	2356.28438805095
0.92041015625	0.00541748046875	2356.5056400504
0.924835205078125	0.00546478271484375	2356.72689204984
0.92926025390625	0.0055169677734375	2356.94814404928
0.933685302734375	0.00556793212890625	2357.16939604872
0.9381103515625	0.00562469482421875	2357.39064804816
0.942535400390625	0.00567962646484375	2357.6119000476
0.94696044921875	0.00573699951171875	2357.83315204704
0.951385498046875	0.005794677734375	2358.05440404648
0.955810546875	0.0058551025390625	2358.27565604593
0.960235595703125	0.00591583251953125	2358.49690804537
0.96466064453125	0.0059783935546875	2358.71816004481
0.969085693359375	0.00604278564453125	2358.93941204425
0.9735107421875	0.0061004638671875	2359.16066404369
0.977935791015625	0.00616455078125	2359.38191604313
0.98236083984375	0.0062286376953125	2359.60316804257
0.986785888671875	0.006292724609375	2359.82442004202
0.9912109375	0.0063629150390625	2360.04567204146
0.995635986328125	0.0064361572265625	2360.2669240409
1.00006103515625	0.00650634765625	2360.48817604034
0.995635986328125	0.00594482421875	2360.70942803978
0.9912109375	0.0054290771484375	2360.93068003922
0.986785888671875	0.00495025634765625	2361.15193203866
0.98236083984375	0.00449920654296875	2361.37318403811
0.977935791015625	0.004075927734375	2361.59443603755
0.9735107421875	0.0036761474609375	2361.81568803699
0.969085693359375	0.00329559326171875	2362.03694003643
0.96466064453125	0.00293548583984375	2362.25819203587
0.960235595703125	0.00259063720703125	2362.47944403531
0.955810546875	0.00226104736328125	2362.70069603475
0.951385498046875	0.00194732666015625	2362.9219480342
0.94696044921875	0.001646728515625	2363.14320003364
0.942535400390625	0.0013592529296875	2363.36445203308
0.9381103515625	0.0010833740234375	2363.58570403252
0.933685302734375	0.000816650390625	2363.80695603196
0.92926025390625	0.00056365966796875	2364.0282080314
0.924835205078125	0.00032086181640625	2364.24946003084
0.92041015625	8.8104248046875E-05	2364.47071203029
0.915985107421875	-0.000135406494140625	2364.69196402973
0.91156005859375	-0.000349853515625	2364.91321602917
0.907135009765625	-0.00055511474609375	2365.13446802861
0.9027099609375	-0.000753173828125	2365.35572002805
0.898284912109375	-0.00094207763671875	2365.57697202749
0.89385986328125	-0.00112396240234375	2365.79822402693
0.889434814453125	-0.0012982177734375	2366.01947602637
0.885009765625	-0.00146575927734375	2366.24072802582
0.880584716796875	-0.00162567138671875	2366.46198002526
0.87615966796875	-0.00178009033203125	2366.6832320247
0.871734619140625	-0.001927490234375	2366.90448402414
0.8673095703125	-0.00206817626953125	2367.12573602358
0.862884521484375	-0.00220306396484375	2367.34698802302
0.85845947265625	-0.0023309326171875	2367.56824002247
0.854034423828125	-0.00245513916015625	2367.78949202191
0.849609375	-0.0025738525390625	2368.01074402135
0.845184326171875	-0.002685546875	2368.23199602079
0.84075927734375	-0.0027935791015625	2368.45324802023
0.836334228515625	-0.00289520263671875	2368.67450001967
0.8319091796875	-0.0029925537109375	2368.89575201911
0.827484130859375	-0.00308563232421875	2369.11700401855
0.82305908203125	-0.00317352294921875	2369.338256018
0.818634033203125	-0.00325653076171875	2369.55950801744
0.814208984375	-0.0033367919921875	2369.78076001688
0.809783935546875	-0.00341156005859375	2370.00201201632
0.80535888671875	-0.00348297119140625	2370.22326401576
0.800933837890625	-0.0035504150390625	2370.4445160152
0.7965087890625	-0.00361297607421875	2370.66576801464
0.792083740234375	-0.003673095703125	2370.88702001409
0.78765869140625	-0.00372894287109375	2371.10827201353
0.783233642578125	-0.00378204345703125	2371.32952401297
0.77880859375	-0.00383087158203125	2371.55077601241
0.774383544921875	-0.00387664794921875	2371.77202801185
0.76995849609375	-0.00391998291015625	2371.99328001129
0.765533447265625	-0.0039593505859375	2372.21453201073
0.7611083984375	-0.00399749755859375	2372.43578401018
0.756683349609375	-0.004031982421875	2372.65703600962
0.75225830078125	-0.00406280517578125	2372.87828800906
0.747833251953125	-0.0040936279296875	2373.0995400085
0.743408203125	-0.00412139892578125	2373.32079200794
0.738983154296875	-0.004144287109375	2373.54204400738
0.73455810546875	-0.00416534423828125	2373.76329600682
0.730133056640625	-0.00418670654296875	2373.98454800626
0.7257080078125	-0.00420562744140625	2374.20580000571
0.721282958984375	-0.00422210693359375	2374.42705200515
0.71685791015625	-0.0042364501953125	2374.64830400459
0.712432861328125	-0.00425140380859375	2374.86955600403
0.7080078125	-0.0042620849609375	2375.09080800347
0.703582763671875	-0.0042730712890625	2375.31206000291
0.69915771484375	-0.004281005859375	2375.53331200236
0.694732666015625	-0.0042877197265625	2375.7545640018
0.6903076171875	-0.004295654296875	2375.97581600124
0.685882568359375	-0.00430023193359375	2376.19706800068
0.68145751953125	-0.0043035888671875	2376.41832000012
0.677032470703125	-0.00430816650390625	2376.63957199956
0.672607421875	-0.0043096923828125	2376.860823999
0.668182373046875	-0.00431243896484375	2377.08207599844
0.66375732421875	-0.0043133544921875	2377.30332799789
0.659332275390625	-0.0043133544921875	2377.52457999733
0.6549072265625	-0.0043121337890625	2377.74583199677
0.650482177734375	-0.00431182861328125	2377.96708399621
0.64605712890625	-0.0043096923828125	2378.18833599565
0.641632080078125	-0.004307861328125	2378.40958799509
0.63720703125	-0.00430511474609375	2378.63083999453
0.632781982421875	-0.00430511474609375	2378.85209199398
0.62835693359375	-0.004302978515625	2379.07334399342
0.623931884765625	-0.0043035888671875	2379.29459599286
0.6195068359375	-0.00430084228515625	2379.5158479923
0.615081787109375	-0.00429779052734375	2379.73709999174
0.61065673828125	-0.00429595947265625	2379.95835199118
0.606231689453125	-0.0042938232421875	2380.17960399062
0.601806640625	-0.0042913818359375	2380.40085599007
0.597381591796875	-0.00428985595703125	2380.62210798951
0.59295654296875	-0.004288330078125	2380.84335998895
0.588531494140625	-0.00428680419921875	2381.06461198839
0.5841064453125	-0.00428497314453125	2381.28586398783
0.579681396484375	-0.0042828369140625	2381.50711598727
0.57525634765625	-0.00428131103515625	2381.72836798671
0.570831298828125	-0.00428009033203125	2381.94961998616
0.56640625	-0.0042822265625	2382.1708719856
0.561981201171875	-0.00428009033203125	2382.39212398504
0.55755615234375	-0.0042822265625	2382.61337598448
0.553131103515625	-0.00428070068359375	2382.83462798392
0.5487060546875	-0.0042816162109375	2383.05587998336
0.544281005859375	-0.00428466796875	2383.2771319828
0.53985595703125	-0.00428436279296875	2383.49838398225
0.535430908203125	-0.004288330078125	2383.71963598169
0.531005859375	-0.00428985595703125	2383.94088798113
0.526580810546875	-0.0042926025390625	2384.16213998057
0.52215576171875	-0.00429412841796875	2384.38339198001
0.517730712890625	-0.004298095703125	2384.60464397945
0.5133056640625	-0.00430267333984375	2384.82589597889
0.508880615234375	-0.0043060302734375	2385.04714797833
0.50445556640625	-0.00430999755859375	2385.26839997778
0.500030517578125	-0.004315185546875	2385.48965197722
0.49560546875	-0.0043218994140625	2385.71090397666
0.491180419921875	-0.004327392578125	2385.9321559761
0.48675537109375	-0.0043341064453125	2386.15340797554
0.482330322265625	-0.00434173583984375	2386.37465997498
0.4779052734375	-0.00434814453125	2386.59591197442
0.473480224609375	-0.0043560791015625	2386.81716397387
0.46905517578125	-0.0043634033203125	2387.03841597331
0.464630126953125	-0.0043707275390625	2387.25966797275
0.460205078125	-0.0043792724609375	2387.48091997219
0.455780029296875	-0.004388427734375	2387.70217197163
0.45135498046875	-0.00439788818359375	2387.92342397107
0.446929931640625	-0.0044061279296875	2388.14467597051
0.4425048828125	-0.00441436767578125	2388.36592796996
0.438079833984375	-0.004425048828125	2388.5871799694
0.43365478515625	-0.0044366455078125	2388.80843196884
0.429229736328125	-0.0044476318359375	2389.02968396828
0.4248046875	-0.00445892333984375	2389.25093596772
0.420379638671875	-0.0044671630859375	2389.47218796716
0.41595458984375	-0.00447784423828125	2389.6934399666
0.411529541015625	-0.004490966796875	2389.91469196605
0.4071044921875	-0.00450286865234375	2390.13594396549
0.402679443359375	-0.00451385498046875	2390.35719596493
0.39825439453125	-0.0045245361328125	2390.57844796437
0.393829345703125	-0.00453521728515625	2390.79969996381
0.389404296875	-0.00454620361328125	2391.02095196325
0.384979248046875	-0.00455718994140625	2391.24220396269
0.38055419921875	-0.00456878662109375	2391.46345596214
0.376129150390625	-0.00457794189453125	2391.68470796158
0.3717041015625	-0.00458740234375	2391.90595996102
0.367279052734375	-0.00459747314453125	2392.12721196046
0.36285400390625	-0.00460723876953125	2392.3484639599
0.358428955078125	-0.0046160888671875	2392.56971595934
0.35400390625	-0.0046258544921875	2392.79096795878
0.349578857421875	-0.0046319580078125	2393.01221995822
0.34515380859375	-0.00464019775390625	2393.23347195767
0.340728759765625	-0.00464691162109375	2393.45472395711
0.3363037109375	-0.0046575927734375	2393.67597595655
0.331878662109375	-0.0046649169921875	2393.89722795599
0.32745361328125	-0.00467193603515625	2394.11847995543
0.323028564453125	-0.00468017578125	2394.33973195487
0.318603515625	-0.0046844482421875	2394.56098395431
0.314178466796875	-0.0046905517578125	2394.78223595376
0.30975341796875	-0.004697265625	2395.0034879532
0.305328369140625	-0.004703369140625	2395.22473995264
0.3009033203125	-0.0047088623046875	2395.44599195208
0.296478271484375	-0.0047137451171875	2395.66724395152
0.29205322265625	-0.00471771240234375	2395.88849595096
0.287628173828125	-0.00472381591796875	2396.1097479504
0.283203125	-0.0047283935546875	2396.33099994985
0.278778076171875	-0.0047332763671875	2396.55225194929
0.27435302734375	-0.004737548828125	2396.77350394873
0.269927978515625	-0.00474090576171875	2396.99475594817
0.2655029296875	-0.00474395751953125	2397.21600794761
0.261077880859375	-0.00474884033203125	2397.43725994705
0.25665283203125	-0.00475189208984375	2397.65851194649
0.252227783203125	-0.004754638671875	2397.87976394594
0.247802734375	-0.00475830078125	2398.10101594538
0.243377685546875	-0.004761962890625	2398.32226794482
0.23895263671875	-0.00476470947265625	2398.54351994426
0.234527587890625	-0.00476776123046875	2398.7647719437
0.2301025390625	-0.00476898193359375	2398.98602394314
0.225677490234375	-0.00477294921875	2399.20727594258
0.22125244140625	-0.0047760009765625	2399.42852794203
0.216827392578125	-0.00477996826171875	2399.64977994147
0.21240234375	-0.00478271484375	2399.87103194091
0.207977294921875	-0.00478759765625	2400.09228394035
0.20355224609375	-0.00479156494140625	2400.31353593979
0.199127197265625	-0.0047955322265625	2400.53478793923
0.1947021484375	-0.0047979736328125	2400.75603993867
0.190277099609375	-0.004801025390625	2400.97729193811
0.18585205078125	-0.0048052978515625	2401.19854393756
0.181427001953125	-0.00480987548828125	2401.419795937
0.177001953125	-0.00481353759765625	2401.64104793644
0.172576904296875	-0.0048187255859375	2401.86229993588
0.16815185546875	-0.00482269287109375	2402.08355193532
0.163726806640625	-0.0048248291015625	2402.30480393476
0.1593017578125	-0.00483062744140625	2402.52605593421
0.154876708984375	-0.00483428955078125	2402.74730793365
0.15045166015625	-0.0048388671875	2402.96855993309
0.146026611328125	-0.00484375	2403.18981193253
0.1416015625	-0.00484954833984375	2403.41106393197
0.137176513671875	-0.00485687255859375	2403.63231593141
0.13275146484375	-0.004862060546875	2403.85356793085
0.128326416015625	-0.004866943359375	2404.07481993029
0.1239013671875	-0.004873046875	2404.29607192974
0.119476318359375	-0.00488037109375	2404.51732392918
0.11505126953125	-0.0048858642578125	2404.73857592862
0.110626220703125	-0.00489166259765625	2404.95982792806
0.106201171875	-0.0049017333984375	2405.1810799275
0.101776123046875	-0.00490997314453125	2405.40233192694
0.09735107421875	-0.00491851806640625	2405.62358392638
0.092926025390625	-0.00492767333984375	2405.84483592583
0.0885009765625	-0.0049383544921875	2406.06608792527
0.084075927734375	-0.00494781494140625	2406.28733992471
0.07965087890625	-0.0049578857421875	2406.50859192415
0.075225830078125	-0.0049688720703125	2406.72984392359
0.07080078125	-0.0049786376953125	2406.95109592303
0.066375732421875	-0.00498931884765625	2407.17234792247
0.06195068359375	-0.0050030517578125	2407.39359992192
0.057525634765625	-0.00501556396484375	2407.61485192136
0.0531005859375	-0.0050286865234375	2407.8361039208
0.048675537109375	-0.005042724609375	2408.05735592024
0.04425048828125	-0.00505767822265625	2408.27860791968
0.039825439453125	-0.00507232666015625	2408.49985991912
0.035400390625	-0.0050872802734375	2408.72111191856
0.030975341796875	-0.0051031494140625	2408.942363918
0.02655029296875	-0.00512237548828125	2409.16361591745
0.022125244140625	-0.0051397705078125	2409.38486791689
0.0177001953125	-0.00515777587890625	2409.60611991633
0.013275146484375	-0.00517852783203125	2409.82737191577
0.00885009765625	-0.00519744873046875	2410.04862391521
0.004425048828125	-0.00522003173828125	2410.26987591465
0	-0.00524078369140625	2410.4911279141
0.004425048828125	-0.00464385986328125	2410.71237991354
0.00885009765625	-0.0040966796875	2410.93363191298
0.013275146484375	-0.003592529296875	2411.15488391242
0.0177001953125	-0.003125	2411.37613591186
0.022125244140625	-0.0026904296875	2411.5973879113
0.02655029296875	-0.00228546142578125	2411.81863991074
0.030975341796875	-0.00190704345703125	2412.03989191018
0.035400390625	-0.001552734375	2412.26114390963
0.039825439453125	-0.0012213134765625	2412.48239590907
0.04425048828125	-0.00090972900390625	2412.70364790851
0.048675537109375	-0.00061767578125	2412.92489990795
0.0531005859375	-0.000342681884765625	2413.14615190739
0.057525634765625	-8.4197998046875E-05	2413.36740390683
0.06195068359375	0.00015911865234375	2413.58865590627
0.066375732421875	0.00038818359375	2413.80990790572
0.07080078125	0.00060394287109375	2414.03115990516
0.075225830078125	0.00080718994140625	2414.2524119046
0.07965087890625	0.0009979248046875	2414.47366390404
0.084075927734375	0.0011785888671875	2414.69491590348
0.0885009765625	0.0013494873046875	2414.91616790292
0.092926025390625	0.001510009765625	2415.13741990236
0.09735107421875	0.0016619873046875	2415.35867190181
0.101776123046875	0.0018035888671875	2415.57992390125
0.106201171875	0.0019384765625	2415.80117590069
0.110626220703125	0.00206451416015625	2416.02242790013
0.11505126953125	0.0021826171875	2416.24367989957
0.119476318359375	0.00229278564453125	2416.46493189901
0.1239013671875	0.002398681640625	2416.68618389845
0.128326416015625	0.00249847412109375	2416.9074358979
0.13275146484375	0.00259185791015625	2417.12868789734
0.137176513671875	0.0026806640625	2417.34993989678
0.1416015625	0.00276458740234375	2417.57119189622
0.146026611328125	0.0028436279296875	2417.79244389566
0.15045166015625	0.0029180908203125	2418.0136958951
0.154876708984375	0.0029888916015625	2418.23494789454
0.1593017578125	0.00305450439453125	2418.45619989399
0.163726806640625	0.00311737060546875	2418.67745189343
0.16815185546875	0.00317535400390625	2418.89870389287
0.172576904296875	0.00323028564453125	2419.11995589231
0.177001953125	0.0032818603515625	2419.34120789175
0.181427001953125	0.00332977294921875	2419.56245989119
0.18585205078125	0.00337646484375	2419.78371189063
0.190277099609375	0.003419189453125	2420.00496389007
0.1947021484375	0.00346099853515625	2420.22621588952
0.199127197265625	0.00349853515625	2420.44746788896
0.20355224609375	0.00353546142578125	2420.6687198884
0.207977294921875	0.0035687255859375	2420.88997188784
0.21240234375	0.00360137939453125	2421.11122388728
0.216827392578125	0.00363037109375	2421.33247588672
0.22125244140625	0.0036590576171875	2421.55372788616
0.225677490234375	0.00368682861328125	2421.77497988561
0.2301025390625	0.00371337890625	2421.99623188505
0.234527587890625	0.00373626708984375	2422.21748388449
0.23895263671875	0.0037591552734375	2422.43873588393
0.243377685546875	0.003782958984375	2422.65998788337
0.247802734375	0.00380126953125	2422.88123988281
0.252227783203125	0.0038214111328125	2423.10249188225
0.25665283203125	0.0038397216796875	2423.3237438817
0.261077880859375	0.0038580322265625	2423.54499588114
0.2655029296875	0.0038751220703125	2423.76624788058
0.269927978515625	0.003892822265625	2423.98749988002
0.27435302734375	0.00390716552734375	2424.20875187946
0.278778076171875	0.00392120361328125	2424.4300038789
0.283203125	0.00393646240234375	2424.65125587834
0.287628173828125	0.0039501953125	2424.87250787779
0.29205322265625	0.00396514892578125	2425.09375987723
0.296478271484375	0.00397705078125	2425.31501187667
0.3009033203125	0.00398956298828125	2425.53626387611
0.305328369140625	0.004002685546875	2425.75751587555
0.30975341796875	0.00401397705078125	2425.97876787499
0.314178466796875	0.00402618408203125	2426.20001987443
0.318603515625	0.00403656005859375	2426.42127187388
0.323028564453125	0.0040484619140625	2426.64252387332
0.32745361328125	0.00405914306640625	2426.86377587276
0.331878662109375	0.00406829833984375	2427.0850278722
0.3363037109375	0.0040789794921875	2427.30627987164
0.340728759765625	0.00408966064453125	2427.52753187108
0.34515380859375	0.00409912109375	2427.74878387052
0.349578857421875	0.00410888671875	2427.97003586996
0.35400390625	0.0041168212890625	2428.19128786941
0.358428955078125	0.0041259765625	2428.41253986885
0.36285400390625	0.0041357421875	2428.63379186829
0.367279052734375	0.0041455078125	2428.85504386773
0.3717041015625	0.004154052734375	2429.07629586717
0.376129150390625	0.004163818359375	2429.29754786661
0.38055419921875	0.00417449951171875	2429.51879986605
0.384979248046875	0.00418243408203125	2429.7400518655
0.389404296875	0.0041900634765625	2429.96130386494
0.393829345703125	0.004200439453125	2430.18255586438
0.39825439453125	0.0042095947265625	2430.40380786382
0.402679443359375	0.00421875	2430.62505986326
0.4071044921875	0.004227294921875	2430.8463118627
0.411529541015625	0.00423675537109375	2431.06756386214
0.41595458984375	0.004244384765625	2431.28881586159
0.420379638671875	0.004254150390625	2431.51006786103
0.4248046875	0.004263916015625	2431.73131986047
0.429229736328125	0.00427276611328125	2431.95257185991
0.43365478515625	0.00428192138671875	2432.17382385935
0.438079833984375	0.0042901611328125	2432.39507585879
0.4425048828125	0.00429931640625	2432.61632785823
0.446929931640625	0.0043072509765625	2432.83757985768
0.45135498046875	0.0043145751953125	2433.05883185712
0.455780029296875	0.00432220458984375	2433.28008385656
0.460205078125	0.00433074951171875	2433.501335856
0.464630126953125	0.00433807373046875	2433.72258785544
0.46905517578125	0.0043450927734375	2433.94383985488
0.473480224609375	0.00435150146484375	2434.16509185432
0.4779052734375	0.00435821533203125	2434.38634385377
0.482330322265625	0.00436492919921875	2434.60759585321
0.48675537109375	0.0043707275390625	2434.82884785265
0.491180419921875	0.00437896728515625	2435.05009985209
0.49560546875	0.0043841552734375	2435.27135185153
0.500030517578125	0.00439056396484375	2435.49260385097
0.50445556640625	0.00439788818359375	2435.71385585041
0.508880615234375	0.0044049072265625	2435.93510784985
0.5133056640625	0.0044097900390625	2436.1563598493
0.517730712890625	0.004415283203125	2436.37761184874
0.52215576171875	0.00442138671875	2436.59886384818
0.526580810546875	0.0044268798828125	2436.82011584762
0.531005859375	0.0044317626953125	2437.04136784706
0.535430908203125	0.00443695068359375	2437.2626198465
0.53985595703125	0.0044403076171875	2437.48387184595
0.544281005859375	0.00444427490234375	2437.70512384539
0.5487060546875	0.0044476318359375	2437.92637584483
0.553131103515625	0.00445159912109375	2438.14762784427
0.55755615234375	0.00445465087890625	2438.36887984371
0.561981201171875	0.0044586181640625	2438.59013184315
0.56640625	0.00446197509765625	2438.81138384259
0.570831298828125	0.00446563720703125	2439.03263584203
0.57525634765625	0.00446929931640625	2439.25388784148
0.579681396484375	0.0044720458984375	2439.47513984092
0.5841064453125	0.004473876953125	2439.69639184036
0.588531494140625	0.0044744873046875	2439.9176438398
0.59295654296875	0.00447845458984375	2440.13889583924
0.597381591796875	0.00447906494140625	2440.36014783868
0.601806640625	0.0044818115234375	2440.58139983812
0.606231689453125	0.0044830322265625	2440.80265183757
0.61065673828125	0.00448516845703125	2441.02390383701
0.615081787109375	0.00448638916015625	2441.24515583645
0.6195068359375	0.00448974609375	2441.46640783589
0.623931884765625	0.004490966796875	2441.68765983533
0.62835693359375	0.00449371337890625	2441.90891183477
0.632781982421875	0.00449554443359375	2442.13016383421
0.63720703125	0.0044976806640625	2442.35141583366
0.641632080078125	0.00449737548828125	2442.5726678331
0.64605712890625	0.004498291015625	2442.79391983254
0.650482177734375	0.0044989013671875	2443.01517183198
0.6549072265625	0.0045013427734375	2443.23642383142
0.659332275390625	0.00450103759765625	2443.45767583086
0.66375732421875	0.00450286865234375	2443.6789278303
0.668182373046875	0.00450225830078125	2443.90017982974
0.672607421875	0.00450225830078125	2444.12143182919
0.677032470703125	0.00450408935546875	2444.34268382863
0.68145751953125	0.00450714111328125	2444.56393582807
0.685882568359375	0.0045074462890625	2444.78518782751
0.6903076171875	0.00451019287109375	2445.00643982695
0.694732666015625	0.0045135498046875	2445.22769182639
0.69915771484375	0.00451507568359375	2445.44894382584
0.703582763671875	0.00451446533203125	2445.67019582528
0.7080078125	0.00451812744140625	2445.89144782472
0.712432861328125	0.00452056884765625	2446.11269982416
0.71685791015625	0.00452423095703125	2446.3339518236
0.721282958984375	0.00452606201171875	2446.55520382304
0.7257080078125	0.00453094482421875	2446.77645582248
0.730133056640625	0.004534912109375	2446.99770782192
0.73455810546875	0.00454010009765625	2447.21895982137
0.738983154296875	0.00454315185546875	2447.44021182081
0.743408203125	0.00454681396484375	2447.66146382025
0.747833251953125	0.0045513916015625	2447.88271581969
0.75225830078125	0.00455780029296875	2448.10396781913
0.756683349609375	0.00456146240234375	2448.32521981857
0.7611083984375	0.00456817626953125	2448.54647181801
0.765533447265625	0.00457489013671875	2448.76772381746
0.76995849609375	0.00458282470703125	2448.9889758169
0.774383544921875	0.00459014892578125	2449.21022781634
0.77880859375	0.00459930419921875	2449.43147981578
0.783233642578125	0.00460968017578125	2449.65273181522
0.78765869140625	0.00461700439453125	2449.87398381466
0.792083740234375	0.0046295166015625	2450.0952358141
0.7965087890625	0.00463958740234375	2450.31648781355
0.800933837890625	0.0046502685546875	2450.53773981299
0.80535888671875	0.00466278076171875	2450.75899181243
0.809783935546875	0.00467681884765625	2450.98024381187
0.814208984375	0.004691162109375	2451.20149581131
0.818634033203125	0.004705810546875	2451.42274781075
0.82305908203125	0.00472198486328125	2451.64399981019
0.827484130859375	0.00473907470703125	2451.86525180964
0.8319091796875	0.0047576904296875	2452.08650380908
0.836334228515625	0.0047747802734375	2452.30775580852
0.84075927734375	0.00479583740234375	2452.52900780796
0.845184326171875	0.00481719970703125	2452.7502598074
0.849609375	0.00483734130859375	2452.97151180684
0.854034423828125	0.00486114501953125	2453.19276380628
0.85845947265625	0.004886474609375	2453.41401580573
0.862884521484375	0.00491363525390625	2453.63526780517
0.8673095703125	0.00493804931640625	2453.85651980461
0.871734619140625	0.00496673583984375	2454.07777180405
0.87615966796875	0.0049969482421875	2454.29902380349
0.880584716796875	0.00502899169921875	2454.52027580293
0.885009765625	0.00506317138671875	2454.74152780237
0.889434814453125	0.005096435546875	2454.96277980181
0.89385986328125	0.00513153076171875	2455.18403180126
0.898284912109375	0.00516876220703125	2455.4052838007
0.9027099609375	0.0052069091796875	2455.62653580014
0.907135009765625	0.00524932861328125	2455.84778779958
0.91156005859375	0.00529266357421875	2456.06903979902
0.915985107421875	0.0053350830078125	2456.29029179846
0.92041015625	0.00538330078125	2456.5115437979
0.924835205078125	0.00542999267578125	2456.73279579735
0.92926025390625	0.0054791259765625	2456.95404779679
0.933685302734375	0.00553009033203125	2457.17529979623
0.9381103515625	0.0055853271484375	2457.39655179567
0.942535400390625	0.00563934326171875	2457.61780379511
0.94696044921875	0.0056939697265625	2457.83905579455
0.951385498046875	0.00575042724609375	2458.06030779399
0.955810546875	0.005809326171875	2458.28155979344
0.960235595703125	0.005867919921875	2458.50281179288
0.96466064453125	0.00593109130859375	2458.72406379232
0.969085693359375	0.0059912109375	2458.94531579176
0.9735107421875	0.00605682373046875	2459.1665677912
0.977935791015625	0.0061126708984375	2459.38781979064
0.98236083984375	0.0061767578125	2459.60907179008
0.986785888671875	0.006243896484375	2459.83032378953
0.9912109375	0.00631103515625	2460.05157578897
