Potential applied (V)	WE(1).Current (A)	Time (s)
0.004425048828125	-0.061993408203125	1409.77832044065
0.00885009765625	-0.0511962890625	1410.22082543953
0.013275146484375	-0.042730712890625	1410.66333043842
0.0177001953125	-0.036053466796875	1411.1058354373
0.022125244140625	-0.0307342529296875	1411.54834043618
0.02655029296875	-0.0263763427734375	1411.99084543507
0.030975341796875	-0.022760009765625	1412.43335043395
0.035400390625	-0.0196990966796875	1412.87585543283
0.039825439453125	-0.0171051025390625	1413.31836043171
0.04425048828125	-0.0148773193359375	1413.7608654306
0.048675537109375	-0.0129669189453125	1414.20337042948
0.0531005859375	-0.0113037109375	1414.64587542836
0.057525634765625	-0.0098541259765625	1415.08838042725
0.06195068359375	-0.0085968017578125	1415.53088542613
0.066375732421875	-0.0074920654296875	1415.97339042501
0.07080078125	-0.0065155029296875	1416.41589542389
0.075225830078125	-0.0056610107421875	1416.85840042278
0.07965087890625	-0.0049072265625	1417.30090542166
0.084075927734375	-0.0042413330078125	1417.74341042054
0.0885009765625	-0.00364166259765625	1418.18591541942
0.092926025390625	-0.00311248779296875	1418.62842041831
0.09735107421875	-0.00264007568359375	1419.07092541719
0.101776123046875	-0.0022283935546875	1419.51343041607
0.106201171875	-0.00184967041015625	1419.95593541496
0.110626220703125	-0.00151336669921875	1420.39844041384
0.11505126953125	-0.00120880126953125	1420.84094541272
0.119476318359375	-0.000936279296875	1421.2834504116
0.1239013671875	-0.0006890869140625	1421.72595541049
0.128326416015625	-0.000467742919921875	1422.16846040937
0.13275146484375	-0.00026898193359375	1422.61096540825
0.137176513671875	-8.7677001953125E-05	1423.05347040714
0.1416015625	7.5775146484375E-05	1423.49597540602
0.146026611328125	0.0002244873046875	1423.9384804049
0.15045166015625	0.000359100341796875	1424.38098540378
0.154876708984375	0.000481201171875	1424.82349040267
0.1593017578125	0.000591949462890625	1425.26599540155
0.163726806640625	0.000693695068359375	1425.70850040043
0.16815185546875	0.0007855224609375	1426.15100539931
0.172576904296875	0.0008709716796875	1426.5935103982
0.177001953125	0.0009478759765625	1427.03601539708
0.181427001953125	0.00101776123046875	1427.47852039596
0.18585205078125	0.00108245849609375	1427.92102539485
0.190277099609375	0.00114105224609375	1428.36353039373
0.1947021484375	0.001195068359375	1428.80603539261
0.199127197265625	0.001243896484375	1429.24854039149
0.20355224609375	0.001290283203125	1429.69104539038
0.207977294921875	0.00133331298828125	1430.13355038926
0.21240234375	0.00137359619140625	1430.57605538814
0.216827392578125	0.0014105224609375	1431.01856038703
0.22125244140625	0.0014447021484375	1431.46106538591
0.225677490234375	0.001475830078125	1431.90357038479
0.2301025390625	0.00150604248046875	1432.34607538367
0.234527587890625	0.00153411865234375	1432.78858038256
0.23895263671875	0.0015594482421875	1433.23108538144
0.243377685546875	0.0015826416015625	1433.67359038032
0.247802734375	0.00160552978515625	1434.11609537921
0.252227783203125	0.00162689208984375	1434.55860037809
0.25665283203125	0.00164642333984375	1435.00110537697
0.261077880859375	0.0016668701171875	1435.44361037585
0.2655029296875	0.0016845703125	1435.88611537474
0.269927978515625	0.00170135498046875	1436.32862037362
0.27435302734375	0.0017169189453125	1436.7711253725
0.278778076171875	0.0017315673828125	1437.21363037138
0.283203125	0.00174713134765625	1437.65613537027
0.287628173828125	0.00176177978515625	1438.09864036915
0.29205322265625	0.0017755126953125	1438.54114536803
0.296478271484375	0.00178802490234375	1438.98365036692
0.3009033203125	0.0018017578125	1439.4261553658
0.305328369140625	0.00181396484375	1439.86866036468
0.30975341796875	0.0018267822265625	1440.31116536356
0.314178466796875	0.00184051513671875	1440.75367036245
0.318603515625	0.00185089111328125	1441.19617536133
0.323028564453125	0.001861572265625	1441.63868036021
0.32745361328125	0.00187255859375	1442.08118535909
0.331878662109375	0.00188262939453125	1442.52369035798
0.3363037109375	0.0018927001953125	1442.96619535686
0.340728759765625	0.001903076171875	1443.40870035574
0.34515380859375	0.001912841796875	1443.85120535463
0.349578857421875	0.00192291259765625	1444.29371035351
0.35400390625	0.00193023681640625	1444.73621535239
0.358428955078125	0.00194000244140625	1445.17872035127
0.36285400390625	0.00195037841796875	1445.62122535016
0.367279052734375	0.00195953369140625	1446.06373034904
0.3717041015625	0.001968994140625	1446.50623534792
0.376129150390625	0.00197662353515625	1446.94874034681
0.38055419921875	0.00198455810546875	1447.39124534569
0.384979248046875	0.0019927978515625	1447.83375034457
0.389404296875	0.00200042724609375	1448.27625534345
0.393829345703125	0.0020074462890625	1448.71876034234
0.39825439453125	0.00201690673828125	1449.16126534122
0.402679443359375	0.00202484130859375	1449.6037703401
0.4071044921875	0.00203125	1450.04627533899
0.411529541015625	0.00203948974609375	1450.48878033787
0.41595458984375	0.00204833984375	1450.93128533675
0.420379638671875	0.00205413818359375	1451.37379033563
0.4248046875	0.002060546875	1451.81629533452
0.429229736328125	0.00206787109375	1452.2588003334
0.43365478515625	0.0020745849609375	1452.70130533228
0.438079833984375	0.00207977294921875	1453.14381033116
0.4425048828125	0.00208587646484375	1453.58631533005
0.446929931640625	0.00209136962890625	1454.02882032893
0.45135498046875	0.00209686279296875	1454.47132532781
0.455780029296875	0.00210235595703125	1454.9138303267
0.460205078125	0.00210723876953125	1455.35633532558
0.464630126953125	0.00211181640625	1455.79884032446
0.46905517578125	0.00211700439453125	1456.24134532334
0.473480224609375	0.00212127685546875	1456.68385032223
0.4779052734375	0.00212554931640625	1457.12635532111
0.482330322265625	0.00213134765625	1457.56886031999
0.48675537109375	0.00213592529296875	1458.01136531888
0.491180419921875	0.002139892578125	1458.45387031776
0.49560546875	0.0021435546875	1458.89637531664
0.500030517578125	0.0021466064453125	1459.33888031552
0.50445556640625	0.00214935302734375	1459.78138531441
0.508880615234375	0.00215423583984375	1460.22389031329
0.5133056640625	0.002156982421875	1460.66639531217
0.517730712890625	0.00216064453125	1461.10890031105
0.52215576171875	0.00216339111328125	1461.55140530994
0.526580810546875	0.0021661376953125	1461.99391030882
0.531005859375	0.00216888427734375	1462.4364153077
0.535430908203125	0.00217132568359375	1462.87892030659
0.53985595703125	0.0021746826171875	1463.32142530547
0.544281005859375	0.00217529296875	1463.76393030435
0.5487060546875	0.00217742919921875	1464.20643530323
0.553131103515625	0.00218048095703125	1464.64894030212
0.55755615234375	0.00218170166015625	1465.091445301
0.561981201171875	0.00218353271484375	1465.53395029988
0.56640625	0.00218505859375	1465.97645529877
0.570831298828125	0.00218658447265625	1466.41896029765
0.57525634765625	0.00218841552734375	1466.86146529653
0.579681396484375	0.00219085693359375	1467.30397029541
0.5841064453125	0.00219146728515625	1467.7464752943
0.588531494140625	0.00219146728515625	1468.18898029318
0.59295654296875	0.00219268798828125	1468.63148529206
0.597381591796875	0.00219482421875	1469.07399029094
0.601806640625	0.0021954345703125	1469.51649528983
0.606231689453125	0.00219757080078125	1469.95900028871
0.61065673828125	0.002198486328125	1470.40150528759
0.615081787109375	0.0021990966796875	1470.84401028648
0.6195068359375	0.00220123291015625	1471.28651528536
0.623931884765625	0.00220245361328125	1471.72902028424
0.62835693359375	0.0022064208984375	1472.17152528312
0.632781982421875	0.00220611572265625	1472.61403028201
0.63720703125	0.0022076416015625	1473.05653528089
0.641632080078125	0.0022100830078125	1473.49904027977
0.64605712890625	0.0022113037109375	1473.94154527866
0.650482177734375	0.00221405029296875	1474.38405027754
0.6549072265625	0.00221527099609375	1474.82655527642
0.659332275390625	0.00221710205078125	1475.2690602753
0.66375732421875	0.00221893310546875	1475.71156527419
0.668182373046875	0.00222137451171875	1476.15407027307
0.672607421875	0.00222381591796875	1476.59657527195
0.677032470703125	0.00222686767578125	1477.03908027083
0.68145751953125	0.00222869873046875	1477.48158526972
0.685882568359375	0.0022332763671875	1477.9240902686
0.6903076171875	0.0022357177734375	1478.36659526748
0.694732666015625	0.0022406005859375	1478.80910026637
0.69915771484375	0.00224395751953125	1479.25160526525
0.703582763671875	0.0022467041015625	1479.69411026413
0.7080078125	0.00225128173828125	1480.13661526301
0.712432861328125	0.00225677490234375	1480.5791202619
0.71685791015625	0.0022607421875	1481.02162526078
0.721282958984375	0.00226593017578125	1481.46413025966
0.7257080078125	0.002271728515625	1481.90663525855
0.730133056640625	0.00227813720703125	1482.34914025743
0.73455810546875	0.00228668212890625	1482.79164525631
0.738983154296875	0.0022930908203125	1483.23415025519
0.743408203125	0.00230010986328125	1483.67665525408
0.747833251953125	0.002308349609375	1484.11916025296
0.75225830078125	0.00231719970703125	1484.56166525184
0.756683349609375	0.00232574462890625	1485.00417025072
0.7611083984375	0.00233551025390625	1485.44667524961
0.765533447265625	0.00234588623046875	1485.88918024849
0.76995849609375	0.00235565185546875	1486.33168524737
0.774383544921875	0.00236907958984375	1486.77419024626
0.77880859375	0.002381591796875	1487.21669524514
0.783233642578125	0.002393798828125	1487.65920024402
0.78765869140625	0.0024090576171875	1488.1017052429
0.792083740234375	0.0024237060546875	1488.54421024179
0.7965087890625	0.002440185546875	1488.98671524067
0.800933837890625	0.00245697021484375	1489.42922023955
0.80535888671875	0.00247467041015625	1489.87172523844
0.809783935546875	0.0024932861328125	1490.31423023732
0.814208984375	0.002513427734375	1490.7567352362
0.818634033203125	0.00253387451171875	1491.19924023508
0.82305908203125	0.00255645751953125	1491.64174523397
0.827484130859375	0.00257904052734375	1492.08425023285
0.8319091796875	0.0026043701171875	1492.52675523173
0.836334228515625	0.002630615234375	1492.96926023061
0.84075927734375	0.00265716552734375	1493.4117652295
0.845184326171875	0.002685546875	1493.85427022838
0.849609375	0.00271453857421875	1494.29677522726
0.854034423828125	0.00274749755859375	1494.73928022615
0.85845947265625	0.00278045654296875	1495.18178522503
0.862884521484375	0.0028143310546875	1495.62429022391
0.8673095703125	0.0028497314453125	1496.06679522279
0.871734619140625	0.0028863525390625	1496.50930022168
0.87615966796875	0.00292694091796875	1496.95180522056
0.880584716796875	0.00296722412109375	1497.39431021944
0.885009765625	0.00300933837890625	1497.83681521833
0.889434814453125	0.00305206298828125	1498.27932021721
0.89385986328125	0.00309722900390625	1498.72182521609
0.898284912109375	0.00314178466796875	1499.16433021497
0.9027099609375	0.0031903076171875	1499.60683521386
0.907135009765625	0.00323822021484375	1500.04934021274
0.91156005859375	0.00328887939453125	1500.49184521162
0.915985107421875	0.00334197998046875	1500.93435021051
0.92041015625	0.00339324951171875	1501.37685520939
0.924835205078125	0.0034490966796875	1501.81936020827
0.92926025390625	0.00350433349609375	1502.26186520715
0.933685302734375	0.003560791015625	1502.70437020604
0.9381103515625	0.00362030029296875	1503.14687520492
0.942535400390625	0.0036785888671875	1503.5893802038
0.94696044921875	0.0037384033203125	1504.03188520268
0.951385498046875	0.0037982177734375	1504.47439020157
0.955810546875	0.00385986328125	1504.91689520045
0.960235595703125	0.00392364501953125	1505.35940019933
0.96466064453125	0.00398590087890625	1505.80190519822
0.969085693359375	0.00404815673828125	1506.2444101971
0.9735107421875	0.0041143798828125	1506.68691519598
0.977935791015625	0.00417572021484375	1507.12942019486
0.98236083984375	0.00424041748046875	1507.57192519375
0.986785888671875	0.0043048095703125	1508.01443019263
0.9912109375	0.00436981201171875	1508.45693519151
0.995635986328125	0.00443695068359375	1508.8994401904
1.00006103515625	0.0045013427734375	1509.34194518928
0.995635986328125	0.0039984130859375	1509.78445018816
0.9912109375	0.0035504150390625	1510.22695518704
0.986785888671875	0.00314361572265625	1510.66946018593
0.98236083984375	0.00277313232421875	1511.11196518481
0.977935791015625	0.0024322509765625	1511.55447018369
0.9735107421875	0.00211669921875	1511.99697518257
0.969085693359375	0.0018231201171875	1512.43948018146
0.96466064453125	0.00154937744140625	1512.88198518034
0.960235595703125	0.00129302978515625	1513.32449017922
0.955810546875	0.00105377197265625	1513.76699517811
0.951385498046875	0.00082855224609375	1514.20950017699
0.94696044921875	0.0006170654296875	1514.65200517587
0.942535400390625	0.000417938232421875	1515.09451017475
0.9381103515625	0.00023016357421875	1515.53701517364
0.933685302734375	5.1055908203125E-05	1515.97952017252
0.92926025390625	-0.0001162109375	1516.4220251714
0.924835205078125	-0.0002740478515625	1516.86453017029
0.92041015625	-0.00042315673828125	1517.30703516917
0.915985107421875	-0.000564208984375	1517.74954016805
0.91156005859375	-0.0006978759765625	1518.19204516693
0.907135009765625	-0.0008233642578125	1518.63455016582
0.9027099609375	-0.0009423828125	1519.0770551647
0.898284912109375	-0.0010546875	1519.51956016358
0.89385986328125	-0.0011614990234375	1519.96206516246
0.889434814453125	-0.00126190185546875	1520.40457016135
0.885009765625	-0.00135711669921875	1520.84707516023
0.880584716796875	-0.001446533203125	1521.28958015911
0.87615966796875	-0.00153076171875	1521.732085158
0.871734619140625	-0.001611328125	1522.17459015688
0.8673095703125	-0.00168609619140625	1522.61709515576
0.862884521484375	-0.00175537109375	1523.05960015464
0.85845947265625	-0.0018212890625	1523.50210515353
0.854034423828125	-0.00188262939453125	1523.94461015241
0.849609375	-0.00194091796875	1524.38711515129
0.845184326171875	-0.0019940185546875	1524.82962015018
0.84075927734375	-0.00204345703125	1525.27212514906
0.836334228515625	-0.00208984375	1525.71463014794
0.8319091796875	-0.0021337890625	1526.15713514682
0.827484130859375	-0.00217315673828125	1526.59964014571
0.82305908203125	-0.0022100830078125	1527.04214514459
0.818634033203125	-0.00224151611328125	1527.48465014347
0.814208984375	-0.00227203369140625	1527.92715514235
0.809783935546875	-0.00230010986328125	1528.36966014124
0.80535888671875	-0.00232513427734375	1528.81216514012
0.800933837890625	-0.0023468017578125	1529.254670139
0.7965087890625	-0.00236602783203125	1529.69717513789
0.792083740234375	-0.002384033203125	1530.13968013677
0.78765869140625	-0.00239898681640625	1530.58218513565
0.783233642578125	-0.00241302490234375	1531.02469013453
0.77880859375	-0.00242340087890625	1531.46719513342
0.774383544921875	-0.0024322509765625	1531.9097001323
0.76995849609375	-0.00243927001953125	1532.35220513118
0.765533447265625	-0.0024462890625	1532.79471013007
0.7611083984375	-0.0024493408203125	1533.23721512895
0.756683349609375	-0.002451171875	1533.67972012783
0.75225830078125	-0.00245208740234375	1534.12222512671
0.747833251953125	-0.00245147705078125	1534.5647301256
0.743408203125	-0.0024505615234375	1535.00723512448
0.738983154296875	-0.00244476318359375	1535.44974012336
0.73455810546875	-0.002442626953125	1535.89224512224
0.730133056640625	-0.00243743896484375	1536.33475012113
0.7257080078125	-0.002432861328125	1536.77725512001
0.721282958984375	-0.0024267578125	1537.21976011889
0.71685791015625	-0.002420654296875	1537.66226511778
0.712432861328125	-0.00241485595703125	1538.10477011666
0.7080078125	-0.0024072265625	1538.54727511554
0.703582763671875	-0.00239898681640625	1538.98978011442
0.69915771484375	-0.00239105224609375	1539.43228511331
0.694732666015625	-0.00238250732421875	1539.87479011219
0.6903076171875	-0.00237396240234375	1540.31729511107
0.685882568359375	-0.00236572265625	1540.75980010996
0.68145751953125	-0.00235748291015625	1541.20230510884
0.677032470703125	-0.0023492431640625	1541.64481010772
0.672607421875	-0.00234130859375	1542.0873151066
0.668182373046875	-0.00233245849609375	1542.52982010549
0.66375732421875	-0.00232421875	1542.97232510437
0.659332275390625	-0.002315673828125	1543.41483010325
0.6549072265625	-0.00230865478515625	1543.85733510214
0.650482177734375	-0.00230010986328125	1544.29984010102
0.64605712890625	-0.0022930908203125	1544.7423450999
0.641632080078125	-0.002286376953125	1545.18485009878
0.63720703125	-0.0022802734375	1545.62735509767
0.632781982421875	-0.0022735595703125	1546.06986009655
0.62835693359375	-0.0022674560546875	1546.51236509543
0.623931884765625	-0.002265625	1546.95487009431
0.6195068359375	-0.0022601318359375	1547.3973750932
0.615081787109375	-0.00225494384765625	1547.83988009208
0.61065673828125	-0.00224945068359375	1548.28238509096
0.606231689453125	-0.002244873046875	1548.72489008985
0.601806640625	-0.00224090576171875	1549.16739508873
0.597381591796875	-0.0022369384765625	1549.60990008761
0.59295654296875	-0.002232666015625	1550.05240508649
0.588531494140625	-0.0022308349609375	1550.49491008538
0.5841064453125	-0.0022259521484375	1550.93741508426
0.579681396484375	-0.00222503662109375	1551.37992008314
0.57525634765625	-0.00222259521484375	1551.82242508202
0.570831298828125	-0.0022216796875	1552.26493008091
0.56640625	-0.00222015380859375	1552.70743507979
0.561981201171875	-0.00222015380859375	1553.14994007867
0.55755615234375	-0.00222015380859375	1553.59244507756
0.553131103515625	-0.00221954345703125	1554.03495007644
0.5487060546875	-0.00222015380859375	1554.47745507532
0.544281005859375	-0.0022198486328125	1554.9199600742
0.53985595703125	-0.00222137451171875	1555.36246507309
0.535430908203125	-0.002222900390625	1555.80497007197
0.531005859375	-0.00222412109375	1556.24747507085
0.526580810546875	-0.00222625732421875	1556.68998006974
0.52215576171875	-0.0022283935546875	1557.13248506862
0.517730712890625	-0.002232666015625	1557.5749900675
0.5133056640625	-0.00223541259765625	1558.01749506638
0.508880615234375	-0.00223785400390625	1558.46000006527
0.50445556640625	-0.00224212646484375	1558.90250506415
0.500030517578125	-0.00224761962890625	1559.34501006303
0.49560546875	-0.00225128173828125	1559.78751506192
0.491180419921875	-0.0022552490234375	1560.2300200608
0.48675537109375	-0.00226043701171875	1560.67252505968
0.482330322265625	-0.00226531982421875	1561.11503005856
0.4779052734375	-0.00227020263671875	1561.55753505745
0.473480224609375	-0.00227630615234375	1562.00004005633
0.46905517578125	-0.0022833251953125	1562.44254505521
0.464630126953125	-0.0022869873046875	1562.88505005409
0.460205078125	-0.002293701171875	1563.32755505298
0.455780029296875	-0.0022991943359375	1563.77006005186
0.45135498046875	-0.00230499267578125	1564.21256505074
0.446929931640625	-0.0023101806640625	1564.65507004963
0.4425048828125	-0.00231658935546875	1565.09757504851
0.438079833984375	-0.00232147216796875	1565.54008004739
0.43365478515625	-0.0023272705078125	1565.98258504627
0.429229736328125	-0.0023333740234375	1566.42509004516
0.4248046875	-0.0023388671875	1566.86759504404
0.420379638671875	-0.0023443603515625	1567.31010004292
0.41595458984375	-0.0023486328125	1567.75260504181
0.411529541015625	-0.0023541259765625	1568.19511004069
0.4071044921875	-0.00235992431640625	1568.63761503957
0.402679443359375	-0.0023638916015625	1569.08012003845
0.39825439453125	-0.00236907958984375	1569.52262503734
0.393829345703125	-0.002374267578125	1569.96513003622
0.389404296875	-0.002376708984375	1570.4076350351
0.384979248046875	-0.0023822021484375	1570.85014003398
0.38055419921875	-0.00238433837890625	1571.29264503287
0.376129150390625	-0.00238739013671875	1571.73515003175
0.3717041015625	-0.0023907470703125	1572.17765503063
0.367279052734375	-0.00239349365234375	1572.62016002952
0.36285400390625	-0.002396240234375	1573.0626650284
0.358428955078125	-0.00239990234375	1573.50517002728
0.35400390625	-0.002403564453125	1573.94767502616
0.349578857421875	-0.002403564453125	1574.39018002505
0.34515380859375	-0.00240509033203125	1574.83268502393
0.340728759765625	-0.00240753173828125	1575.27519002281
0.3363037109375	-0.00240966796875	1575.7176950217
0.331878662109375	-0.00241119384765625	1576.16020002058
0.32745361328125	-0.00241363525390625	1576.60270501946
0.323028564453125	-0.00241485595703125	1577.04521001834
0.318603515625	-0.00241729736328125	1577.48771501723
0.314178466796875	-0.002418212890625	1577.93022001611
0.30975341796875	-0.00242156982421875	1578.37272501499
0.305328369140625	-0.00242401123046875	1578.81523001387
0.3009033203125	-0.00242523193359375	1579.25773501276
0.296478271484375	-0.00242645263671875	1579.70024001164
0.29205322265625	-0.002427978515625	1580.14274501052
0.287628173828125	-0.00243011474609375	1580.58525000941
0.283203125	-0.0024310302734375	1581.02775500829
0.278778076171875	-0.00243316650390625	1581.47026000717
0.27435302734375	-0.00243499755859375	1581.91276500605
0.269927978515625	-0.0024365234375	1582.35527000494
0.2655029296875	-0.0024395751953125	1582.79777500382
0.261077880859375	-0.00244049072265625	1583.2402800027
0.25665283203125	-0.00244293212890625	1583.68278500159
0.252227783203125	-0.00244537353515625	1584.12529000047
0.247802734375	-0.00244720458984375	1584.56779499935
0.243377685546875	-0.002449951171875	1585.01029999823
0.23895263671875	-0.002451171875	1585.45280499712
0.234527587890625	-0.00245391845703125	1585.895309996
0.2301025390625	-0.0024554443359375	1586.33781499488
0.225677490234375	-0.00245849609375	1586.78031999376
0.22125244140625	-0.00246124267578125	1587.22282499265
0.216827392578125	-0.00246368408203125	1587.66532999153
0.21240234375	-0.0024664306640625	1588.10783499041
0.207977294921875	-0.0024700927734375	1588.5503399893
0.20355224609375	-0.00247314453125	1588.99284498818
0.199127197265625	-0.002476806640625	1589.43534998706
0.1947021484375	-0.0024798583984375	1589.87785498594
0.190277099609375	-0.00248260498046875	1590.32035998483
0.18585205078125	-0.0024859619140625	1590.76286498371
0.181427001953125	-0.00248992919921875	1591.20536998259
0.177001953125	-0.0024945068359375	1591.64787498148
0.172576904296875	-0.00249786376953125	1592.09037998036
0.16815185546875	-0.00250274658203125	1592.53288497924
0.163726806640625	-0.00250640869140625	1592.97538997812
0.1593017578125	-0.00251068115234375	1593.41789497701
0.154876708984375	-0.00251495361328125	1593.86039997589
0.15045166015625	-0.00252105712890625	1594.30290497477
0.146026611328125	-0.00252532958984375	1594.74540997365
0.1416015625	-0.0025311279296875	1595.18791497254
0.137176513671875	-0.00253662109375	1595.63041997142
0.13275146484375	-0.00254302978515625	1596.0729249703
0.128326416015625	-0.0025482177734375	1596.51542996919
0.1239013671875	-0.00255462646484375	1596.95793496807
0.119476318359375	-0.002559814453125	1597.40043996695
0.11505126953125	-0.002567138671875	1597.84294496583
0.110626220703125	-0.00257415771484375	1598.28544996472
0.106201171875	-0.0025823974609375	1598.7279549636
0.101776123046875	-0.00259124755859375	1599.17045996248
0.09735107421875	-0.00260101318359375	1599.61296496137
0.092926025390625	-0.00260986328125	1600.05546996025
0.0885009765625	-0.00261871337890625	1600.49797495913
0.084075927734375	-0.00262908935546875	1600.94047995801
0.07965087890625	-0.0026397705078125	1601.3829849569
0.075225830078125	-0.002650146484375	1601.82548995578
0.07080078125	-0.00266143798828125	1602.26799495466
0.066375732421875	-0.00267242431640625	1602.71049995354
0.06195068359375	-0.00268524169921875	1603.15300495243
0.057525634765625	-0.0026983642578125	1603.59550995131
0.0531005859375	-0.00271026611328125	1604.03801495019
0.048675537109375	-0.00272369384765625	1604.48051994908
0.04425048828125	-0.002738037109375	1604.92302494796
0.039825439453125	-0.0027520751953125	1605.36552994684
0.035400390625	-0.00276641845703125	1605.80803494572
0.030975341796875	-0.00278076171875	1606.25053994461
0.02655029296875	-0.00279632568359375	1606.69304494349
0.022125244140625	-0.0028125	1607.13554994237
0.0177001953125	-0.00282867431640625	1607.57805494126
0.013275146484375	-0.0028460693359375	1608.02055994014
0.00885009765625	-0.0028631591796875	1608.46306493902
0.004425048828125	-0.0028814697265625	1608.9055699379
0	-0.002901611328125	1609.34807493679
0.004425048828125	-0.002374267578125	1609.79057993567
0.00885009765625	-0.00192047119140625	1610.23308493455
0.013275146484375	-0.0015252685546875	1610.67558993344
0.0177001953125	-0.00117584228515625	1611.11809493232
0.022125244140625	-0.00086700439453125	1611.5605999312
0.02655029296875	-0.00059173583984375	1612.00310493008
0.030975341796875	-0.00034600830078125	1612.44560992897
0.035400390625	-0.000125518798828125	1612.88811492785
0.039825439453125	7.2418212890625E-05	1613.33061992673
0.04425048828125	0.00025091552734375	1613.77312492561
0.048675537109375	0.000411956787109375	1614.2156299245
0.0531005859375	0.0005574951171875	1614.65813492338
0.057525634765625	0.0006888427734375	1615.10063992226
0.06195068359375	0.00080841064453125	1615.54314492115
0.066375732421875	0.000916748046875	1615.98564992003
0.07080078125	0.001014404296875	1616.42815491891
0.075225830078125	0.001102294921875	1616.87065991779
0.07965087890625	0.00118194580078125	1617.31316491668
0.084075927734375	0.001253662109375	1617.75566991556
0.0885009765625	0.00131927490234375	1618.19817491444
0.092926025390625	0.001380615234375	1618.64067991333
0.09735107421875	0.001435546875	1619.08318491221
0.101776123046875	0.00148590087890625	1619.52568991109
0.106201171875	0.001531982421875	1619.96819490997
0.110626220703125	0.00157318115234375	1620.41069990886
0.11505126953125	0.0016119384765625	1620.85320490774
0.119476318359375	0.00164520263671875	1621.29570990662
0.1239013671875	0.0016778564453125	1621.7382149055
0.128326416015625	0.00170623779296875	1622.18071990439
0.13275146484375	0.00173248291015625	1622.62322490327
0.137176513671875	0.00175750732421875	1623.06572990215
0.1416015625	0.00177978515625	1623.50823490104
0.146026611328125	0.00180084228515625	1623.95073989992
0.15045166015625	0.0018194580078125	1624.3932448988
0.154876708984375	0.001837158203125	1624.83574989768
0.1593017578125	0.0018524169921875	1625.27825489657
0.163726806640625	0.00186614990234375	1625.72075989545
0.16815185546875	0.0018804931640625	1626.16326489433
0.172576904296875	0.0018927001953125	1626.60576989322
0.177001953125	0.0019049072265625	1627.0482748921
0.181427001953125	0.00191497802734375	1627.49077989098
0.18585205078125	0.001925048828125	1627.93328488986
0.190277099609375	0.0019342041015625	1628.37578988875
0.1947021484375	0.00194366455078125	1628.81829488763
0.199127197265625	0.0019512939453125	1629.26079988651
0.20355224609375	0.00196044921875	1629.70330488539
0.207977294921875	0.0019671630859375	1630.14580988428
0.21240234375	0.00197509765625	1630.58831488316
0.216827392578125	0.0019818115234375	1631.03081988204
0.22125244140625	0.001988525390625	1631.47332488093
0.225677490234375	0.00199432373046875	1631.91582987981
0.2301025390625	0.0020013427734375	1632.35833487869
0.234527587890625	0.00200592041015625	1632.80083987757
0.23895263671875	0.0020123291015625	1633.24334487646
0.243377685546875	0.00201812744140625	1633.68584987534
0.247802734375	0.0020233154296875	1634.12835487422
0.252227783203125	0.00202911376953125	1634.57085987311
0.25665283203125	0.002034912109375	1635.01336487199
0.261077880859375	0.00203948974609375	1635.45586987087
0.2655029296875	0.002044677734375	1635.89837486975
0.269927978515625	0.0020501708984375	1636.34087986864
0.27435302734375	0.0020556640625	1636.78338486752
0.278778076171875	0.0020611572265625	1637.2258898664
0.283203125	0.0020660400390625	1637.66839486528
0.287628173828125	0.00207183837890625	1638.11089986417
0.29205322265625	0.00207672119140625	1638.55340486305
0.296478271484375	0.00208160400390625	1638.99590986193
0.3009033203125	0.00208770751953125	1639.43841486082
0.305328369140625	0.00209259033203125	1639.8809198597
0.30975341796875	0.00209808349609375	1640.32342485858
0.314178466796875	0.002105712890625	1640.76592985746
0.318603515625	0.002110595703125	1641.20843485635
0.323028564453125	0.00211639404296875	1641.65093985523
0.32745361328125	0.00212158203125	1642.09344485411
0.331878662109375	0.00212677001953125	1642.535949853
0.3363037109375	0.00213348388671875	1642.97845485188
0.340728759765625	0.0021392822265625	1643.42095985076
0.34515380859375	0.00214508056640625	1643.86346484964
0.349578857421875	0.00215118408203125	1644.30596984853
0.35400390625	0.0021551513671875	1644.74847484741
0.358428955078125	0.00216156005859375	1645.19097984629
0.36285400390625	0.00216705322265625	1645.63348484517
0.367279052734375	0.002174072265625	1646.07598984406
0.3717041015625	0.00218017578125	1646.51849484294
0.376129150390625	0.00218597412109375	1646.96099984182
0.38055419921875	0.0021923828125	1647.40350484071
0.384979248046875	0.002198486328125	1647.84600983959
0.389404296875	0.0022039794921875	1648.28851483847
0.393829345703125	0.0022100830078125	1648.73101983735
0.39825439453125	0.002215576171875	1649.17352483624
0.402679443359375	0.00222137451171875	1649.61602983512
0.4071044921875	0.0022265625	1650.058534834
0.411529541015625	0.00223236083984375	1650.50103983289
0.41595458984375	0.00223907470703125	1650.94354483177
0.420379638671875	0.0022418212890625	1651.38604983065
0.4248046875	0.00224761962890625	1651.82855482953
0.429229736328125	0.0022528076171875	1652.27105982842
0.43365478515625	0.00225738525390625	1652.7135648273
0.438079833984375	0.00226226806640625	1653.15606982618
0.4425048828125	0.0022662353515625	1653.59857482507
0.446929931640625	0.00227081298828125	1654.04107982395
0.45135498046875	0.00227508544921875	1654.48358482283
0.455780029296875	0.00227813720703125	1654.92608982171
0.460205078125	0.0022821044921875	1655.3685948206
0.464630126953125	0.002286376953125	1655.81109981948
0.46905517578125	0.0022906494140625	1656.25360481836
0.473480224609375	0.00229461669921875	1656.69610981724
0.4779052734375	0.0022979736328125	1657.13861481613
0.482330322265625	0.00230194091796875	1657.58111981501
0.48675537109375	0.00230499267578125	1658.02362481389
0.491180419921875	0.00230865478515625	1658.46612981278
0.49560546875	0.00231231689453125	1658.90863481166
0.500030517578125	0.00231536865234375	1659.35113981054
0.50445556640625	0.0023187255859375	1659.79364480942
0.508880615234375	0.0023211669921875	1660.23614980831
0.5133056640625	0.00232452392578125	1660.67865480719
0.517730712890625	0.00232635498046875	1661.12115980607
0.52215576171875	0.00233062744140625	1661.56366480495
0.526580810546875	0.0023321533203125	1662.00616980384
0.531005859375	0.002333984375	1662.44867480272
0.535430908203125	0.00233642578125	1662.8911798016
0.53985595703125	0.00233917236328125	1663.33368480049
0.544281005859375	0.00234100341796875	1663.77618979937
0.5487060546875	0.00234130859375	1664.21869479825
0.553131103515625	0.00234375	1664.66119979713
0.55755615234375	0.0023443603515625	1665.10370479602
0.561981201171875	0.00234588623046875	1665.5462097949
0.56640625	0.00234710693359375	1665.98871479378
0.570831298828125	0.00234832763671875	1666.43121979267
0.57525634765625	0.002349853515625	1666.87372479155
0.579681396484375	0.00235137939453125	1667.31622979043
0.5841064453125	0.0023516845703125	1667.75873478931
0.588531494140625	0.00235137939453125	1668.2012397882
0.59295654296875	0.002352294921875	1668.64374478708
0.597381591796875	0.00235321044921875	1669.08624978596
0.601806640625	0.00235321044921875	1669.52875478485
0.606231689453125	0.00235565185546875	1669.97125978373
0.61065673828125	0.00235565185546875	1670.41376478261
0.615081787109375	0.0023565673828125	1670.85626978149
0.6195068359375	0.00235809326171875	1671.29877478038
0.623931884765625	0.00235870361328125	1671.74127977926
0.62835693359375	0.00236236572265625	1672.18378477814
0.632781982421875	0.0023638916015625	1672.62628977702
0.63720703125	0.0023638916015625	1673.06879477591
0.641632080078125	0.00236541748046875	1673.51129977479
0.64605712890625	0.00236663818359375	1673.95380477367
0.650482177734375	0.0023675537109375	1674.39630977256
0.6549072265625	0.00236846923828125	1674.83881477144
0.659332275390625	0.00237030029296875	1675.28131977032
0.66375732421875	0.0023724365234375	1675.7238247692
0.668182373046875	0.00237457275390625	1676.16632976809
0.672607421875	0.00237548828125	1676.60883476697
0.677032470703125	0.00237823486328125	1677.05133976585
0.68145751953125	0.00238006591796875	1677.49384476474
0.685882568359375	0.00238372802734375	1677.93634976362
0.6903076171875	0.0023858642578125	1678.3788547625
0.694732666015625	0.00238861083984375	1678.82135976138
0.69915771484375	0.00239227294921875	1679.26386476027
0.703582763671875	0.0023956298828125	1679.70636975915
0.7080078125	0.00239959716796875	1680.14887475803
0.712432861328125	0.002403564453125	1680.59137975691
0.71685791015625	0.00240692138671875	1681.0338847558
0.721282958984375	0.002413330078125	1681.47638975468
0.7257080078125	0.00241851806640625	1681.91889475356
0.730133056640625	0.00242401123046875	1682.36139975245
0.73455810546875	0.002430419921875	1682.80390475133
0.738983154296875	0.0024365234375	1683.24640975021
0.743408203125	0.0024407958984375	1683.68891474909
0.747833251953125	0.00244873046875	1684.13141974798
0.75225830078125	0.0024566650390625	1684.57392474686
0.756683349609375	0.0024658203125	1685.01642974574
0.7611083984375	0.002474365234375	1685.45893474463
0.765533447265625	0.00248321533203125	1685.90143974351
0.76995849609375	0.002493896484375	1686.34394474239
0.774383544921875	0.00250518798828125	1686.78644974127
0.77880859375	0.00251556396484375	1687.22895474016
0.783233642578125	0.00252685546875	1687.67145973904
0.78765869140625	0.002540283203125	1688.11396473792
0.792083740234375	0.00255218505859375	1688.5564697368
0.7965087890625	0.0025665283203125	1688.99897473569
0.800933837890625	0.00258148193359375	1689.44147973457
0.80535888671875	0.002598876953125	1689.88398473345
0.809783935546875	0.00261566162109375	1690.32648973234
0.814208984375	0.00263336181640625	1690.76899473122
0.818634033203125	0.002652587890625	1691.2114997301
0.82305908203125	0.00267181396484375	1691.65400472898
0.827484130859375	0.00269317626953125	1692.09650972787
0.8319091796875	0.00271514892578125	1692.53901472675
0.836334228515625	0.002738037109375	1692.98151972563
0.84075927734375	0.00276275634765625	1693.42402472452
0.845184326171875	0.0027899169921875	1693.8665297234
0.849609375	0.002816162109375	1694.30903472228
0.854034423828125	0.00284423828125	1694.75153972116
0.85845947265625	0.002874755859375	1695.19404472005
0.862884521484375	0.00290496826171875	1695.63654971893
0.8673095703125	0.00293853759765625	1696.07905471781
0.871734619140625	0.002972412109375	1696.52155971669
0.87615966796875	0.0030072021484375	1696.96406471558
0.880584716796875	0.00304534912109375	1697.40656971446
0.885009765625	0.00308319091796875	1697.84907471334
0.889434814453125	0.0031231689453125	1698.29157971223
0.89385986328125	0.00316375732421875	1698.73408471111
0.898284912109375	0.00320709228515625	1699.17658970999
0.9027099609375	0.003250732421875	1699.61909470887
0.907135009765625	0.00329681396484375	1700.06159970776
0.91156005859375	0.00334503173828125	1700.50410470664
0.915985107421875	0.00339202880859375	1700.94660970552
0.92041015625	0.00344024658203125	1701.38911470441
0.924835205078125	0.00349090576171875	1701.83161970329
0.92926025390625	0.00354278564453125	1702.27412470217
0.933685302734375	0.00359588623046875	1702.71662970105
0.9381103515625	0.00365142822265625	1703.15913469994
0.942535400390625	0.00370697021484375	1703.60163969882
0.94696044921875	0.0037615966796875	1704.0441446977
0.951385498046875	0.00381805419921875	1704.48664969658
0.955810546875	0.0038739013671875	1704.92915469547
0.960235595703125	0.00393310546875	1705.37165969435
0.96466064453125	0.00399169921875	1705.81416469323
0.969085693359375	0.00405120849609375	1706.25666969212
0.9735107421875	0.0041119384765625	1706.699174691
0.977935791015625	0.004171142578125	1707.14167968988
0.98236083984375	0.00423126220703125	1707.58418468876
0.986785888671875	0.004293212890625	1708.02668968765
0.9912109375	0.0043536376953125	1708.46919468653
0.995635986328125	0.0044158935546875	1708.91169968541
1.00006103515625	0.0044805908203125	1709.3542046843
0.995635986328125	0.003973388671875	1709.79670968318
0.9912109375	0.0035235595703125	1710.23921468206
0.986785888671875	0.00311767578125	1710.68171968094
0.98236083984375	0.002747802734375	1711.12422467983
0.977935791015625	0.00240692138671875	1711.56672967871
0.9735107421875	0.00209381103515625	1712.00923467759
0.969085693359375	0.0017999267578125	1712.45173967647
0.96466064453125	0.001527099609375	1712.89424467536
0.960235595703125	0.0012725830078125	1713.33674967424
0.955810546875	0.001033935546875	1713.77925467312
0.951385498046875	0.00081024169921875	1714.22175967201
0.94696044921875	0.0005999755859375	1714.66426467089
0.942535400390625	0.000401885986328125	1715.10676966977
0.9381103515625	0.0002156982421875	1715.54927466865
0.933685302734375	3.83819580078125E-05	1715.99177966754
0.92926025390625	-0.000126617431640625	1716.43428466642
0.924835205078125	-0.000282470703125	1716.8767896653
0.92041015625	-0.000429840087890625	1717.31929466419
0.915985107421875	-0.0005689697265625	1717.76179966307
0.91156005859375	-0.000700408935546875	1718.20430466195
0.907135009765625	-0.000823974609375	1718.64680966083
0.9027099609375	-0.000941162109375	1719.08931465972
0.898284912109375	-0.0010516357421875	1719.5318196586
0.89385986328125	-0.0011566162109375	1719.97432465748
0.889434814453125	-0.00125518798828125	1720.41682965637
0.885009765625	-0.0013482666015625	1720.85933465525
0.880584716796875	-0.0014361572265625	1721.30183965413
0.87615966796875	-0.00151885986328125	1721.74434465301
0.871734619140625	-0.0015960693359375	1722.1868496519
0.8673095703125	-0.001669921875	1722.62935465078
0.862884521484375	-0.00173858642578125	1723.07185964966
0.85845947265625	-0.00180206298828125	1723.51436464854
0.854034423828125	-0.0018621826171875	1723.95686964743
0.849609375	-0.00191925048828125	1724.39937464631
0.845184326171875	-0.00197113037109375	1724.84187964519
0.84075927734375	-0.00201995849609375	1725.28438464408
0.836334228515625	-0.002064208984375	1725.72688964296
0.8319091796875	-0.002105712890625	1726.16939464184
0.827484130859375	-0.00214508056640625	1726.61189964072
0.82305908203125	-0.00217987060546875	1727.05440463961
0.818634033203125	-0.0022125244140625	1727.49690963849
0.814208984375	-0.00224365234375	1727.93941463737
0.809783935546875	-0.00227020263671875	1728.38191963626
0.80535888671875	-0.00229522705078125	1728.82442463514
0.800933837890625	-0.0023162841796875	1729.26692963402
0.7965087890625	-0.00233551025390625	1729.7094346329
0.792083740234375	-0.0023529052734375	1730.15193963179
0.78765869140625	-0.00236785888671875	1730.59444463067
0.783233642578125	-0.00238128662109375	1731.03694962955
0.77880859375	-0.002392578125	1731.47945462843
0.774383544921875	-0.00240234375	1731.92195962732
0.76995849609375	-0.00240997314453125	1732.3644646262
0.765533447265625	-0.00241546630859375	1732.80696962508
0.7611083984375	-0.0024200439453125	1733.24947462397
0.756683349609375	-0.00242340087890625	1733.69197962285
0.75225830078125	-0.0024249267578125	1734.13448462173
0.747833251953125	-0.002425537109375	1734.57698962061
0.743408203125	-0.00242431640625	1735.0194946195
0.738983154296875	-0.00241973876953125	1735.46199961838
0.73455810546875	-0.00241851806640625	1735.90450461726
0.730133056640625	-0.00241424560546875	1736.34700961615
0.7257080078125	-0.00241119384765625	1736.78951461503
0.721282958984375	-0.002406005859375	1737.23201961391
0.71685791015625	-0.00240020751953125	1737.67452461279
0.712432861328125	-0.002393798828125	1738.11702961168
0.7080078125	-0.0023870849609375	1738.55953461056
0.703582763671875	-0.00238067626953125	1739.00203960944
0.69915771484375	-0.002373046875	1739.44454460832
0.694732666015625	-0.00236572265625	1739.88704960721
0.6903076171875	-0.0023583984375	1740.32955460609
0.685882568359375	-0.00235015869140625	1740.77205960497
0.68145751953125	-0.00234344482421875	1741.21456460386
0.677032470703125	-0.0023370361328125	1741.65706960274
0.672607421875	-0.00232879638671875	1742.09957460162
0.668182373046875	-0.0023223876953125	1742.5420796005
0.66375732421875	-0.0023150634765625	1742.98458459939
0.659332275390625	-0.0023065185546875	1743.42708959827
0.6549072265625	-0.0022998046875	1743.86959459715
0.650482177734375	-0.00229278564453125	1744.31209959604
0.64605712890625	-0.002286376953125	1744.75460459492
0.641632080078125	-0.0022802734375	1745.1971095938
0.63720703125	-0.00227447509765625	1745.63961459268
0.632781982421875	-0.0022686767578125	1746.08211959157
0.62835693359375	-0.00226348876953125	1746.52462459045
0.623931884765625	-0.0022613525390625	1746.96712958933
0.6195068359375	-0.0022564697265625	1747.40963458821
0.615081787109375	-0.00225189208984375	1747.8521395871
0.61065673828125	-0.00224700927734375	1748.29464458598
0.606231689453125	-0.00224334716796875	1748.73714958486
0.601806640625	-0.002239990234375	1749.17965458375
0.597381591796875	-0.0022369384765625	1749.62215958263
0.59295654296875	-0.00223419189453125	1750.06466458151
0.588531494140625	-0.0022320556640625	1750.50716958039
0.5841064453125	-0.0022296142578125	1750.94967457928
0.579681396484375	-0.00222686767578125	1751.39217957816
0.57525634765625	-0.00222564697265625	1751.83468457704
0.570831298828125	-0.0022247314453125	1752.27718957593
0.56640625	-0.0022247314453125	1752.71969457481
0.561981201171875	-0.0022247314453125	1753.16219957369
0.55755615234375	-0.00222412109375	1753.60470457257
0.553131103515625	-0.00222442626953125	1754.04720957146
0.5487060546875	-0.00222503662109375	1754.48971457034
0.544281005859375	-0.0022259521484375	1754.93221956922
0.53985595703125	-0.002227783203125	1755.3747245681
0.535430908203125	-0.002230224609375	1755.81722956699
0.531005859375	-0.0022320556640625	1756.25973456587
0.526580810546875	-0.00223480224609375	1756.70223956475
0.52215576171875	-0.002237548828125	1757.14474456364
0.517730712890625	-0.0022412109375	1757.58724956252
0.5133056640625	-0.0022442626953125	1758.0297545614
0.508880615234375	-0.0022479248046875	1758.47225956028
0.50445556640625	-0.00225128173828125	1758.91476455917
0.500030517578125	-0.002255859375	1759.35726955805
0.49560546875	-0.00226104736328125	1759.79977455693
0.491180419921875	-0.002265625	1760.24227955582
0.48675537109375	-0.0022711181640625	1760.6847845547
0.482330322265625	-0.002276611328125	1761.12728955358
0.4779052734375	-0.00228240966796875	1761.56979455246
0.473480224609375	-0.0022869873046875	1762.01229955135
0.46905517578125	-0.0022930908203125	1762.45480455023
0.464630126953125	-0.0022979736328125	1762.89730954911
0.460205078125	-0.0023040771484375	1763.339814548
0.455780029296875	-0.00231170654296875	1763.78231954688
0.45135498046875	-0.0023175048828125	1764.22482454576
0.446929931640625	-0.002322998046875	1764.66732954464
0.4425048828125	-0.00232879638671875	1765.10983454353
0.438079833984375	-0.00233428955078125	1765.55233954241
0.43365478515625	-0.0023406982421875	1765.99484454129
0.429229736328125	-0.002344970703125	1766.43734954017
0.4248046875	-0.00235107421875	1766.87985453906
0.420379638671875	-0.00235687255859375	1767.32235953794
0.41595458984375	-0.00236114501953125	1767.76486453682
0.411529541015625	-0.002366943359375	1768.20736953571
0.4071044921875	-0.0023724365234375	1768.64987453459
0.402679443359375	-0.00237762451171875	1769.09237953347
0.39825439453125	-0.0023822021484375	1769.53488453235
0.393829345703125	-0.00238616943359375	1769.97738953124
0.389404296875	-0.00238983154296875	1770.41989453012
0.384979248046875	-0.002393798828125	1770.862399529
0.38055419921875	-0.00239715576171875	1771.30490452788
0.376129150390625	-0.00239990234375	1771.74740952677
0.3717041015625	-0.00240325927734375	1772.18991452565
0.367279052734375	-0.0024066162109375	1772.63241952453
0.36285400390625	-0.00240875244140625	1773.07492452342
0.358428955078125	-0.0024114990234375	1773.5174295223
0.35400390625	-0.00241241455078125	1773.95993452118
0.349578857421875	-0.0024139404296875	1774.40243952006
0.34515380859375	-0.00241455078125	1774.84494451895
0.340728759765625	-0.00241729736328125	1775.28744951783
0.3363037109375	-0.00241912841796875	1775.72995451671
0.331878662109375	-0.00242156982421875	1776.1724595156
0.32745361328125	-0.00242218017578125	1776.61496451448
0.323028564453125	-0.00242431640625	1777.05746951336
0.318603515625	-0.0024261474609375	1777.49997451224
0.314178466796875	-0.00242645263671875	1777.94247951113
0.30975341796875	-0.0024310302734375	1778.38498451001
0.305328369140625	-0.002431640625	1778.82748950889
0.3009033203125	-0.0024322509765625	1779.26999450778
0.296478271484375	-0.00243377685546875	1779.71249950666
0.29205322265625	-0.002435302734375	1780.15500450554
0.287628173828125	-0.00243621826171875	1780.59750950442
0.283203125	-0.00243896484375	1781.04001450331
0.278778076171875	-0.00243988037109375	1781.48251950219
0.27435302734375	-0.00244171142578125	1781.92502450107
0.269927978515625	-0.00244232177734375	1782.36752949995
0.2655029296875	-0.0024444580078125	1782.81003449884
0.261077880859375	-0.00244537353515625	1783.25253949772
0.25665283203125	-0.002447509765625	1783.6950444966
0.252227783203125	-0.00244964599609375	1784.13754949549
0.247802734375	-0.0024517822265625	1784.58005449437
0.243377685546875	-0.00245269775390625	1785.02255949325
0.23895263671875	-0.0024554443359375	1785.46506449213
0.234527587890625	-0.002457275390625	1785.90756949102
0.2301025390625	-0.0024591064453125	1786.3500744899
0.225677490234375	-0.0024615478515625	1786.79257948878
0.22125244140625	-0.00246337890625	1787.23508448767
0.216827392578125	-0.00246673583984375	1787.67758948655
0.21240234375	-0.00246917724609375	1788.12009448543
0.207977294921875	-0.00247161865234375	1788.56259948431
0.20355224609375	-0.00247406005859375	1789.0051044832
0.199127197265625	-0.00247711181640625	1789.44760948208
0.1947021484375	-0.00248016357421875	1789.89011448096
0.190277099609375	-0.00248260498046875	1790.33261947984
0.18585205078125	-0.002486572265625	1790.77512447873
0.181427001953125	-0.0024896240234375	1791.21762947761
0.177001953125	-0.00249237060546875	1791.66013447649
0.172576904296875	-0.002496337890625	1792.10263947538
0.16815185546875	-0.00249969482421875	1792.54514447426
0.163726806640625	-0.00250274658203125	1792.98764947314
0.1593017578125	-0.002506103515625	1793.43015447202
0.154876708984375	-0.00251007080078125	1793.87265947091
0.15045166015625	-0.0025152587890625	1794.31516446979
0.146026611328125	-0.00251953125	1794.75766946867
0.1416015625	-0.0025244140625	1795.20017446756
0.137176513671875	-0.002530517578125	1795.64267946644
0.13275146484375	-0.002535400390625	1796.08518446532
0.128326416015625	-0.0025408935546875	1796.5276894642
0.1239013671875	-0.0025469970703125	1796.97019446309
0.119476318359375	-0.00255340576171875	1797.41269946197
0.11505126953125	-0.00255950927734375	1797.85520446085
0.110626220703125	-0.00256622314453125	1798.29770945973
0.106201171875	-0.0025726318359375	1798.74021445862
0.101776123046875	-0.00258087158203125	1799.1827194575
0.09735107421875	-0.002589111328125	1799.62522445638
0.092926025390625	-0.0025970458984375	1800.06772945527
0.0885009765625	-0.00260711669921875	1800.51023445415
0.084075927734375	-0.002615966796875	1800.95273945303
0.07965087890625	-0.00262542724609375	1801.39524445191
0.075225830078125	-0.00263397216796875	1801.8377494508
0.07080078125	-0.0026458740234375	1802.28025444968
0.066375732421875	-0.0026556396484375	1802.72275944856
0.06195068359375	-0.002666015625	1803.16526444745
0.057525634765625	-0.00267669677734375	1803.60776944633
0.0531005859375	-0.00269073486328125	1804.05027444521
0.048675537109375	-0.00270294189453125	1804.49277944409
0.04425048828125	-0.00271575927734375	1804.93528444298
0.039825439453125	-0.00272918701171875	1805.37778944186
0.035400390625	-0.00274169921875	1805.82029444074
0.030975341796875	-0.00275604248046875	1806.26279943962
0.02655029296875	-0.00277130126953125	1806.70530443851
0.022125244140625	-0.0027874755859375	1807.14780943739
0.0177001953125	-0.002803955078125	1807.59031443627
0.013275146484375	-0.0028192138671875	1808.03281943516
0.00885009765625	-0.002835693359375	1808.47532443404
0.004425048828125	-0.0028546142578125	1808.91782943292
0	-0.0028729248046875	1809.3603344318
0.004425048828125	-0.0023468017578125	1809.80283943069
0.00885009765625	-0.00189300537109375	1810.24534442957
0.013275146484375	-0.001497802734375	1810.68784942845
0.0177001953125	-0.00114959716796875	1811.13035442734
0.022125244140625	-0.0008416748046875	1811.57285942622
0.02655029296875	-0.00056732177734375	1812.0153644251
0.030975341796875	-0.000322509765625	1812.45786942398
0.035400390625	-0.00010333251953125	1812.90037442287
0.039825439453125	9.375E-05	1813.34287942175
0.04425048828125	0.000271240234375	1813.78538442063
0.048675537109375	0.000431396484375	1814.22788941951
0.0531005859375	0.000575653076171875	1814.6703944184
0.057525634765625	0.00070684814453125	1815.11289941728
0.06195068359375	0.0008251953125	1815.55540441616
0.066375732421875	0.00093292236328125	1815.99790941505
0.07080078125	0.00102935791015625	1816.44041441393
0.075225830078125	0.00111724853515625	1816.88291941281
0.07965087890625	0.00119598388671875	1817.32542441169
0.084075927734375	0.00126678466796875	1817.76792941058
0.0885009765625	0.00133087158203125	1818.21043440946
0.092926025390625	0.00139190673828125	1818.65293940834
0.09735107421875	0.001446533203125	1819.09544440723
0.101776123046875	0.00149688720703125	1819.53794940611
0.106201171875	0.00154266357421875	1819.98045440499
0.110626220703125	0.0015838623046875	1820.42295940387
0.11505126953125	0.0016217041015625	1820.86546440276
0.119476318359375	0.00165496826171875	1821.30796940164
0.1239013671875	0.00168701171875	1821.75047440052
0.128326416015625	0.00171539306640625	1822.1929793994
0.13275146484375	0.00174163818359375	1822.63548439829
0.137176513671875	0.00176513671875	1823.07798939717
0.1416015625	0.001787109375	1823.52049439605
0.146026611328125	0.0018072509765625	1823.96299939494
0.15045166015625	0.0018255615234375	1824.40550439382
0.154876708984375	0.00184234619140625	1824.8480093927
0.1593017578125	0.00185791015625	1825.29051439158
0.163726806640625	0.001871337890625	1825.73301939047
0.16815185546875	0.00188446044921875	1826.17552438935
0.172576904296875	0.0018975830078125	1826.61802938823
0.177001953125	0.00190948486328125	1827.06053438712
0.181427001953125	0.0019195556640625	1827.503039386
0.18585205078125	0.001929931640625	1827.94554438488
0.190277099609375	0.0019384765625	1828.38804938376
0.1947021484375	0.00194793701171875	1828.83055438265
0.199127197265625	0.0019549560546875	1829.27305938153
0.20355224609375	0.00196258544921875	1829.71556438041
0.207977294921875	0.0019708251953125	1830.1580693793
0.21240234375	0.00197784423828125	1830.60057437818
0.216827392578125	0.00198486328125	1831.04307937706
0.22125244140625	0.0019915771484375	1831.48558437594
0.225677490234375	0.0019976806640625	1831.92808937483
0.2301025390625	0.0020037841796875	1832.37059437371
0.234527587890625	0.00200836181640625	1832.81309937259
0.23895263671875	0.00201446533203125	1833.25560437147
0.243377685546875	0.00201995849609375	1833.69810937036
0.247802734375	0.00202545166015625	1834.14061436924
0.252227783203125	0.00203125	1834.58311936812
0.25665283203125	0.00203643798828125	1835.02562436701
0.261077880859375	0.002041015625	1835.46812936589
0.2655029296875	0.0020465087890625	1835.91063436477
0.269927978515625	0.00205108642578125	1836.35313936365
0.27435302734375	0.00205535888671875	1836.79564436254
0.278778076171875	0.002060546875	1837.23814936142
0.283203125	0.0020660400390625	1837.6806543603
0.287628173828125	0.00207122802734375	1838.12315935919
0.29205322265625	0.00207611083984375	1838.56566435807
0.296478271484375	0.002081298828125	1839.00816935695
0.3009033203125	0.00208587646484375	1839.45067435583
0.305328369140625	0.0020904541015625	1839.89317935472
0.30975341796875	0.002095947265625	1840.3356843536
0.314178466796875	0.0021038818359375	1840.77818935248
0.318603515625	0.00210845947265625	1841.22069435136
0.323028564453125	0.00211395263671875	1841.66319935025
0.32745361328125	0.00211883544921875	1842.10570434913
0.331878662109375	0.00212432861328125	1842.54820934801
0.3363037109375	0.0021295166015625	1842.9907143469
0.340728759765625	0.00213531494140625	1843.43321934578
0.34515380859375	0.0021417236328125	1843.87572434466
0.349578857421875	0.002147216796875	1844.31822934354
0.35400390625	0.0021514892578125	1844.76073434243
0.358428955078125	0.00215728759765625	1845.20323934131
0.36285400390625	0.00216339111328125	1845.64574434019
0.367279052734375	0.002169189453125	1846.08824933908
0.3717041015625	0.00217559814453125	1846.53075433796
0.376129150390625	0.002181396484375	1846.97325933684
0.38055419921875	0.0021875	1847.41576433572
0.384979248046875	0.0021923828125	1847.85826933461
0.389404296875	0.0021978759765625	1848.30077433349
0.393829345703125	0.00220245361328125	1848.74327933237
0.39825439453125	0.0022088623046875	1849.18578433125
0.402679443359375	0.00221466064453125	1849.62828933014
0.4071044921875	0.00222015380859375	1850.07079432902
0.411529541015625	0.002225341796875	1850.5132993279
0.41595458984375	0.002230224609375	1850.95580432679
0.420379638671875	0.0022357177734375	1851.39830932567
0.4248046875	0.0022406005859375	1851.84081432455
0.429229736328125	0.0022454833984375	1852.28331932343
0.43365478515625	0.00225006103515625	1852.72582432232
0.438079833984375	0.00225433349609375	1853.1683293212
0.4425048828125	0.0022576904296875	1853.61083432008
0.446929931640625	0.002261962890625	1854.05333931897
0.45135498046875	0.00226593017578125	1854.49584431785
0.455780029296875	0.0022698974609375	1854.93834931673
0.460205078125	0.002274169921875	1855.38085431561
0.464630126953125	0.00227691650390625	1855.8233593145
0.46905517578125	0.0022808837890625	1856.26586431338
0.473480224609375	0.00228546142578125	1856.70836931226
0.4779052734375	0.002288818359375	1857.15087431114
0.482330322265625	0.002293701171875	1857.59337931003
0.48675537109375	0.002296142578125	1858.03588430891
0.491180419921875	0.0022998046875	1858.47838930779
0.49560546875	0.00230316162109375	1858.92089430668
0.500030517578125	0.002305908203125	1859.36339930556
0.50445556640625	0.00230926513671875	1859.80590430444
0.508880615234375	0.00231170654296875	1860.24840930332
0.5133056640625	0.00231475830078125	1860.69091430221
0.517730712890625	0.00231689453125	1861.13341930109
0.52215576171875	0.00231964111328125	1861.57592429997
0.526580810546875	0.00232147216796875	1862.01842929886
0.531005859375	0.00232391357421875	1862.46093429774
0.535430908203125	0.00232574462890625	1862.90343929662
0.53985595703125	0.0023284912109375	1863.3459442955
0.544281005859375	0.0023297119140625	1863.78844929439
0.5487060546875	0.00233184814453125	1864.23095429327
0.553131103515625	0.0023333740234375	1864.67345929215
0.55755615234375	0.00233489990234375	1865.11596429103
0.561981201171875	0.00233642578125	1865.55846928992
0.56640625	0.0023370361328125	1866.0009742888
0.570831298828125	0.00233917236328125	1866.44347928768
0.57525634765625	0.0023394775390625	1866.88598428657
0.579681396484375	0.0023406982421875	1867.32848928545
0.5841064453125	0.0023419189453125	1867.77099428433
0.588531494140625	0.0023406982421875	1868.21349928321
0.59295654296875	0.002342529296875	1868.6560042821
0.597381591796875	0.00234283447265625	1869.09850928098
0.601806640625	0.00234466552734375	1869.54101427986
0.606231689453125	0.002344970703125	1869.98351927875
0.61065673828125	0.0023468017578125	1870.42602427763
0.615081787109375	0.00234710693359375	1870.86852927651
0.6195068359375	0.0023480224609375	1871.31103427539
0.623931884765625	0.00234832763671875	1871.75353927428
0.62835693359375	0.00235260009765625	1872.19604427316
0.632781982421875	0.0023529052734375	1872.63854927204
0.63720703125	0.0023529052734375	1873.08105427093
0.641632080078125	0.00235443115234375	1873.52355926981
0.64605712890625	0.00235565185546875	1873.96606426869
0.650482177734375	0.0023565673828125	1874.40856926757
0.6549072265625	0.0023577880859375	1874.85107426646
0.659332275390625	0.00235992431640625	1875.29357926534
0.66375732421875	0.00236114501953125	1875.73608426422
0.668182373046875	0.00236297607421875	1876.1785892631
0.672607421875	0.0023651123046875	1876.62109426199
0.677032470703125	0.00236724853515625	1877.06359926087
0.68145751953125	0.00237030029296875	1877.50610425975
0.685882568359375	0.00237335205078125	1877.94860925864
0.6903076171875	0.00237396240234375	1878.39111425752
0.694732666015625	0.00237884521484375	1878.8336192564
0.69915771484375	0.00238128662109375	1879.27612425528
0.703582763671875	0.00238525390625	1879.71862925417
0.7080078125	0.00238861083984375	1880.16113425305
0.712432861328125	0.00239288330078125	1880.60363925193
0.71685791015625	0.00239837646484375	1881.04614425081
0.721282958984375	0.0024029541015625	1881.4886492497
0.7257080078125	0.0024078369140625	1881.93115424858
0.730133056640625	0.00241363525390625	1882.37365924746
0.73455810546875	0.00241912841796875	1882.81616424635
0.738983154296875	0.0024249267578125	1883.25866924523
0.743408203125	0.00243011474609375	1883.70117424411
0.747833251953125	0.002437744140625	1884.14367924299
0.75225830078125	0.002445068359375	1884.58618424188
0.756683349609375	0.002451171875	1885.02868924076
0.7611083984375	0.00246063232421875	1885.47119423964
0.765533447265625	0.00247039794921875	1885.91369923853
0.76995849609375	0.00248077392578125	1886.35620423741
0.774383544921875	0.0024908447265625	1886.79870923629
0.77880859375	0.00250274658203125	1887.24121423517
0.783233642578125	0.0025140380859375	1887.68371923406
0.78765869140625	0.00252685546875	1888.12622423294
0.792083740234375	0.0025396728515625	1888.56872923182
0.7965087890625	0.00255340576171875	1889.01123423071
0.800933837890625	0.00256927490234375	1889.45373922959
0.80535888671875	0.0025848388671875	1889.89624422847
0.809783935546875	0.00260101318359375	1890.33874922735
0.814208984375	0.002618408203125	1890.78125422624
0.818634033203125	0.0026373291015625	1891.22375922512
0.82305908203125	0.0026568603515625	1891.666264224
0.827484130859375	0.00267791748046875	1892.10876922288
0.8319091796875	0.002698974609375	1892.55127422177
0.836334228515625	0.00272186279296875	1892.99377922065
0.84075927734375	0.002745361328125	1893.43628421953
0.845184326171875	0.00277191162109375	1893.87878921842
0.849609375	0.0027972412109375	1894.3212942173
0.854034423828125	0.00282562255859375	1894.76379921618
0.85845947265625	0.0028558349609375	1895.20630421506
0.862884521484375	0.0028857421875	1895.64880921395
0.8673095703125	0.00291748046875	1896.09131421283
0.871734619140625	0.00295074462890625	1896.53381921171
0.87615966796875	0.00298583984375	1896.9763242106
0.880584716796875	0.00302337646484375	1897.41882920948
0.885009765625	0.00305908203125	1897.86133420836
0.889434814453125	0.00309722900390625	1898.30383920724
0.89385986328125	0.00313812255859375	1898.74634420613
0.898284912109375	0.0031781005859375	1899.18884920501
0.9027099609375	0.0032220458984375	1899.63135420389
0.907135009765625	0.0032666015625	1900.07385920277
0.91156005859375	0.0033123779296875	1900.51636420166
0.915985107421875	0.00335845947265625	1900.95886920054
0.92041015625	0.0034075927734375	1901.40137419942
0.924835205078125	0.0034564208984375	1901.84387919831
0.92926025390625	0.00350677490234375	1902.28638419719
0.933685302734375	0.0035577392578125	1902.72888919607
0.9381103515625	0.0036114501953125	1903.17139419495
0.942535400390625	0.00366455078125	1903.61389919384
0.94696044921875	0.00371856689453125	1904.05640419272
0.951385498046875	0.00377410888671875	1904.4989091916
0.955810546875	0.003829345703125	1904.94141419049
0.960235595703125	0.003885498046875	1905.38391918937
0.96466064453125	0.00394195556640625	1905.82642418825
0.969085693359375	0.00399993896484375	1906.26892918713
0.9735107421875	0.0040570068359375	1906.71143418602
0.977935791015625	0.004114990234375	1907.1539391849
0.98236083984375	0.004173583984375	1907.59644418378
0.986785888671875	0.00423187255859375	1908.03894918266
0.9912109375	0.00429168701171875	1908.48145418155
0.995635986328125	0.0043505859375	1908.92395918043
1.00006103515625	0.0044097900390625	1909.36646417931
0.995635986328125	0.00390380859375	1909.8089691782
0.9912109375	0.0034552001953125	1910.25147417708
0.986785888671875	0.00304931640625	1910.69397917596
0.98236083984375	0.0026800537109375	1911.13648417484
0.977935791015625	0.00234039306640625	1911.57898917373
0.9735107421875	0.00202850341796875	1912.02149417261
0.969085693359375	0.00173675537109375	1912.46399917149
0.96466064453125	0.00146636962890625	1912.90650417038
0.960235595703125	0.00121337890625	1913.34900916926
0.955810546875	0.00097747802734375	1913.79151416814
0.951385498046875	0.0007562255859375	1914.23401916702
0.94696044921875	0.00054840087890625	1914.67652416591
0.942535400390625	0.000353668212890625	1915.11902916479
0.9381103515625	0.000170013427734375	1915.56153416367
0.933685302734375	-4.50744628906249E-06	1916.00403916255
0.92926025390625	-0.0001666259765625	1916.44654416144
0.924835205078125	-0.00031982421875	1916.88904916032
0.92041015625	-0.0004644775390625	1917.3315541592
0.915985107421875	-0.000600677490234375	1917.77405915809
0.91156005859375	-0.0007293701171875	1918.21656415697
0.907135009765625	-0.000850830078125	1918.65906915585
0.9027099609375	-0.00096527099609375	1919.10157415473
0.898284912109375	-0.00107330322265625	1919.54407915362
0.89385986328125	-0.001175537109375	1919.9865841525
0.889434814453125	-0.00127166748046875	1920.42908915138
0.885009765625	-0.00136322021484375	1920.87159415027
0.880584716796875	-0.00144866943359375	1921.31409914915
0.87615966796875	-0.00152923583984375	1921.75660414803
0.871734619140625	-0.00160491943359375	1922.19910914691
0.8673095703125	-0.00167572021484375	1922.6416141458
0.862884521484375	-0.00174163818359375	1923.08411914468
0.85845947265625	-0.001802978515625	1923.52662414356
0.854034423828125	-0.00186187744140625	1923.96912914244
0.849609375	-0.0019171142578125	1924.41163414133
0.845184326171875	-0.00196807861328125	1924.85413914021
0.84075927734375	-0.0020159912109375	1925.29664413909
0.836334228515625	-0.002059326171875	1925.73914913798
0.8319091796875	-0.002099609375	1926.18165413686
0.827484130859375	-0.0021368408203125	1926.62415913574
0.82305908203125	-0.00217132568359375	1927.06666413462
0.818634033203125	-0.0022027587890625	1927.50916913351
0.814208984375	-0.00223175048828125	1927.95167413239
0.809783935546875	-0.00225830078125	1928.39417913127
0.80535888671875	-0.00228179931640625	1928.83668413016
0.800933837890625	-0.0023028564453125	1929.27918912904
0.7965087890625	-0.00232208251953125	1929.72169412792
0.792083740234375	-0.0023382568359375	1930.1641991268
0.78765869140625	-0.0023516845703125	1930.60670412569
0.783233642578125	-0.00236541748046875	1931.04920912457
0.77880859375	-0.0023760986328125	1931.49171412345
0.774383544921875	-0.00238494873046875	1931.93421912233
0.76995849609375	-0.00239227294921875	1932.37672412122
0.765533447265625	-0.0023974609375	1932.8192291201
0.7611083984375	-0.00240203857421875	1933.26173411898
0.756683349609375	-0.0024053955078125	1933.70423911787
0.75225830078125	-0.0024072265625	1934.14674411675
0.747833251953125	-0.00240570068359375	1934.58924911563
0.743408203125	-0.00240447998046875	1935.03175411451
0.738983154296875	-0.00240234375	1935.4742591134
0.73455810546875	-0.00240020751953125	1935.91676411228
0.730133056640625	-0.002396240234375	1936.35926911116
0.7257080078125	-0.002392578125	1936.80177411005
0.721282958984375	-0.00238739013671875	1937.24427910893
0.71685791015625	-0.00238311767578125	1937.68678410781
0.712432861328125	-0.00237640380859375	1938.12928910669
0.7080078125	-0.0023712158203125	1938.57179410558
0.703582763671875	-0.0023651123046875	1939.01429910446
0.69915771484375	-0.0023565673828125	1939.45680410334
0.694732666015625	-0.00235107421875	1939.89930910223
0.6903076171875	-0.00234405517578125	1940.34181410111
0.685882568359375	-0.00233734130859375	1940.78431909999
0.68145751953125	-0.00232940673828125	1941.22682409887
0.677032470703125	-0.0023223876953125	1941.66932909776
0.672607421875	-0.002315673828125	1942.11183409664
0.668182373046875	-0.00230865478515625	1942.55433909552
0.66375732421875	-0.00230133056640625	1942.9968440944
0.659332275390625	-0.00229339599609375	1943.43934909329
0.6549072265625	-0.00228668212890625	1943.88185409217
0.650482177734375	-0.00228057861328125	1944.32435909105
0.64605712890625	-0.00227325439453125	1944.76686408994
0.641632080078125	-0.0022686767578125	1945.20936908882
0.63720703125	-0.002261962890625	1945.6518740877
0.632781982421875	-0.002257080078125	1946.09437908658
0.62835693359375	-0.0022515869140625	1946.53688408547
0.623931884765625	-0.00224884033203125	1946.97938908435
0.6195068359375	-0.00224517822265625	1947.42189408323
0.615081787109375	-0.0022412109375	1947.86439908212
0.61065673828125	-0.00223724365234375	1948.306904081
0.606231689453125	-0.0022332763671875	1948.74940907988
0.601806640625	-0.002230224609375	1949.19191407876
0.597381591796875	-0.00222747802734375	1949.63441907765
0.59295654296875	-0.00222381591796875	1950.07692407653
0.588531494140625	-0.00222137451171875	1950.51942907541
0.5841064453125	-0.0022186279296875	1950.96193407429
0.579681396484375	-0.00221710205078125	1951.40443907318
0.57525634765625	-0.002216796875	1951.84694407206
0.570831298828125	-0.0022161865234375	1952.28944907094
0.56640625	-0.0022149658203125	1952.73195406983
0.561981201171875	-0.00221435546875	1953.17445906871
0.55755615234375	-0.0022149658203125	1953.61696406759
0.553131103515625	-0.00221527099609375	1954.05946906647
0.5487060546875	-0.00221710205078125	1954.50197406536
0.544281005859375	-0.00221771240234375	1954.94447906424
0.53985595703125	-0.00221893310546875	1955.38698406312
0.535430908203125	-0.0022210693359375	1955.82948906201
0.531005859375	-0.00222320556640625	1956.27199406089
0.526580810546875	-0.0022259521484375	1956.71449905977
0.52215576171875	-0.00222930908203125	1957.15700405865
0.517730712890625	-0.00223297119140625	1957.59950905754
0.5133056640625	-0.00223602294921875	1958.04201405642
0.508880615234375	-0.00223968505859375	1958.4845190553
0.50445556640625	-0.00224365234375	1958.92702405418
0.500030517578125	-0.00224822998046875	1959.36952905307
0.49560546875	-0.00225250244140625	1959.81203405195
0.491180419921875	-0.00225799560546875	1960.25453905083
0.48675537109375	-0.00226287841796875	1960.69704404972
0.482330322265625	-0.0022686767578125	1961.1395490486
0.4779052734375	-0.002274169921875	1961.58205404748
0.473480224609375	-0.00227935791015625	1962.02455904636
0.46905517578125	-0.00228546142578125	1962.46706404525
0.464630126953125	-0.002291259765625	1962.90956904413
0.460205078125	-0.0022967529296875	1963.35207404301
0.455780029296875	-0.00230316162109375	1963.7945790419
0.45135498046875	-0.0023095703125	1964.23708404078
0.446929931640625	-0.00231597900390625	1964.67958903966
0.4425048828125	-0.00232208251953125	1965.12209403854
0.438079833984375	-0.00232757568359375	1965.56459903743
0.43365478515625	-0.00233428955078125	1966.00710403631
0.429229736328125	-0.00233917236328125	1966.44960903519
0.4248046875	-0.00234588623046875	1966.89211403407
0.420379638671875	-0.00235137939453125	1967.33461903296
0.41595458984375	-0.00235626220703125	1967.77712403184
0.411529541015625	-0.0023602294921875	1968.21962903072
0.4071044921875	-0.00236572265625	1968.66213402961
0.402679443359375	-0.00237091064453125	1969.10463902849
0.39825439453125	-0.00237548828125	1969.54714402737
0.393829345703125	-0.00238006591796875	1969.98964902625
0.389404296875	-0.00238311767578125	1970.43215402514
0.384979248046875	-0.002386474609375	1970.87465902402
0.38055419921875	-0.0023895263671875	1971.3171640229
0.376129150390625	-0.002392578125	1971.75966902179
0.3717041015625	-0.0023956298828125	1972.20217402067
0.367279052734375	-0.002398681640625	1972.64467901955
0.36285400390625	-0.00240081787109375	1973.08718401843
0.358428955078125	-0.002403564453125	1973.52968901732
0.35400390625	-0.0024053955078125	1973.9721940162
0.349578857421875	-0.002406005859375	1974.41469901508
0.34515380859375	-0.0024090576171875	1974.85720401396
0.340728759765625	-0.002410888671875	1975.29970901285
0.3363037109375	-0.00241241455078125	1975.74221401173
0.331878662109375	-0.0024139404296875	1976.18471901061
0.32745361328125	-0.00241485595703125	1976.6272240095
0.323028564453125	-0.0024169921875	1977.06972900838
0.318603515625	-0.0024188232421875	1977.51223400726
0.314178466796875	-0.00241912841796875	1977.95473900614
0.30975341796875	-0.00242279052734375	1978.39724400503
0.305328369140625	-0.00242279052734375	1978.83974900391
0.3009033203125	-0.0024249267578125	1979.28225400279
0.296478271484375	-0.00242645263671875	1979.72475900168
0.29205322265625	-0.0024267578125	1980.16726400056
0.287628173828125	-0.00242828369140625	1980.60976899944
0.283203125	-0.00242889404296875	1981.05227399832
0.278778076171875	-0.002430419921875	1981.49477899721
0.27435302734375	-0.0024322509765625	1981.93728399609
0.269927978515625	-0.0024334716796875	1982.37978899497
0.2655029296875	-0.002435302734375	1982.82229399386
0.261077880859375	-0.0024365234375	1983.26479899274
0.25665283203125	-0.002437744140625	1983.70730399162
0.252227783203125	-0.0024395751953125	1984.1498089905
0.247802734375	-0.00244140625	1984.59231398939
0.243377685546875	-0.00244415283203125	1985.03481898827
0.23895263671875	-0.0024456787109375	1985.47732398715
0.234527587890625	-0.002447509765625	1985.91982898603
0.2301025390625	-0.00244873046875	1986.36233398492
0.225677490234375	-0.0024517822265625	1986.8048389838
0.22125244140625	-0.0024530029296875	1987.24734398268
0.216827392578125	-0.0024560546875	1987.68984898157
0.21240234375	-0.00245819091796875	1988.13235398045
0.207977294921875	-0.0024609375	1988.57485897933
0.20355224609375	-0.00246429443359375	1989.01736397821
0.199127197265625	-0.00246673583984375	1989.4598689771
0.1947021484375	-0.0024700927734375	1989.90237397598
0.190277099609375	-0.00247314453125	1990.34487897486
0.18585205078125	-0.00247589111328125	1990.78738397374
0.181427001953125	-0.00247894287109375	1991.22988897263
0.177001953125	-0.0024822998046875	1991.67239397151
0.172576904296875	-0.00248626708984375	1992.11489897039
0.16815185546875	-0.0024896240234375	1992.55740396928
0.163726806640625	-0.00249298095703125	1992.99990896816
0.1593017578125	-0.0024969482421875	1993.44241396704
0.154876708984375	-0.002501220703125	1993.88491896592
0.15045166015625	-0.0025042724609375	1994.32742396481
0.146026611328125	-0.002509765625	1994.76992896369
0.1416015625	-0.0025146484375	1995.21243396257
0.137176513671875	-0.00251922607421875	1995.65493896146
0.13275146484375	-0.00252532958984375	1996.09744396034
0.128326416015625	-0.002530517578125	1996.53994895922
0.1239013671875	-0.0025360107421875	1996.9824539581
0.119476318359375	-0.002542724609375	1997.42495895699
0.11505126953125	-0.002547607421875	1997.86746395587
0.110626220703125	-0.0025555419921875	1998.30996895475
0.106201171875	-0.00256256103515625	1998.75247395364
0.101776123046875	-0.00257049560546875	1999.19497895252
0.09735107421875	-0.0025787353515625	1999.6374839514
0.092926025390625	-0.00258819580078125	2000.07998895028
0.0885009765625	-0.002596435546875	2000.52249394917
0.084075927734375	-0.0026055908203125	2000.96499894805
0.07965087890625	-0.00261474609375	2001.40750394693
0.075225830078125	-0.002623291015625	2001.85000894581
0.07080078125	-0.00263519287109375	2002.2925139447
0.066375732421875	-0.00264556884765625	2002.73501894358
0.06195068359375	-0.0026568603515625	2003.17752394246
0.057525634765625	-0.0026678466796875	2003.62002894135
0.0531005859375	-0.00267974853515625	2004.06253394023
0.048675537109375	-0.00269256591796875	2004.50503893911
0.04425048828125	-0.00270538330078125	2004.94754393799
0.039825439453125	-0.00271881103515625	2005.39004893688
0.035400390625	-0.00273284912109375	2005.83255393576
0.030975341796875	-0.00274658203125	2006.27505893464
0.02655029296875	-0.00276275634765625	2006.71756393353
0.022125244140625	-0.00277740478515625	2007.16006893241
0.0177001953125	-0.00279327392578125	2007.60257393129
0.013275146484375	-0.00280975341796875	2008.04507893017
0.00885009765625	-0.00282745361328125	2008.48758392906
0.004425048828125	-0.00284515380859375	2008.93008892794
0	-0.0028643798828125	2009.37259392682
0.004425048828125	-0.0023406982421875	2009.8150989257
0.00885009765625	-0.00188751220703125	2010.25760392459
0.013275146484375	-0.00149200439453125	2010.70010892347
0.0177001953125	-0.00114471435546875	2011.14261392235
0.022125244140625	-0.00083709716796875	2011.58511892124
0.02655029296875	-0.0005633544921875	2012.02762392012
0.030975341796875	-0.000318878173828125	2012.470128919
0.035400390625	-9.9639892578125E-05	2012.91263391788
0.039825439453125	9.75341796875E-05	2013.35513891677
0.04425048828125	0.000274932861328125	2013.79764391565
0.048675537109375	0.000435028076171875	2014.24014891453
0.0531005859375	0.0005797119140625	2014.68265391342
0.057525634765625	0.00071075439453125	2015.1251589123
0.06195068359375	0.0008294677734375	2015.56766391118
0.066375732421875	0.00093719482421875	2016.01016891006
0.07080078125	0.00103424072265625	2016.45267390895
0.075225830078125	0.001121826171875	2016.89517890783
0.07965087890625	0.0012005615234375	2017.33768390671
0.084075927734375	0.00127166748046875	2017.78018890559
0.0885009765625	0.00133697509765625	2018.22269390448
0.092926025390625	0.0013970947265625	2018.66519890336
0.09735107421875	0.00145233154296875	2019.10770390224
0.101776123046875	0.0015032958984375	2019.55020890113
0.106201171875	0.0015484619140625	2019.99271390001
0.110626220703125	0.00158935546875	2020.43521889889
0.11505126953125	0.00162811279296875	2020.87772389777
0.119476318359375	0.00166046142578125	2021.32022889666
0.1239013671875	0.0016925048828125	2021.76273389554
0.128326416015625	0.00172119140625	2022.20523889442
0.13275146484375	0.0017474365234375	2022.64774389331
0.137176513671875	0.0017718505859375	2023.09024889219
0.1416015625	0.00179290771484375	2023.53275389107
0.146026611328125	0.0018133544921875	2023.97525888995
0.15045166015625	0.0018310546875	2024.41776388884
0.154876708984375	0.00184814453125	2024.86026888772
0.1593017578125	0.00186370849609375	2025.3027738866
0.163726806640625	0.00187774658203125	2025.74527888548
0.16815185546875	0.001890869140625	2026.18778388437
0.172576904296875	0.0019036865234375	2026.63028888325
0.177001953125	0.00191436767578125	2027.07279388213
0.181427001953125	0.00192535400390625	2027.51529888102
0.18585205078125	0.00193511962890625	2027.9578038799
0.190277099609375	0.00194366455078125	2028.40030887878
0.1947021484375	0.00195281982421875	2028.84281387766
0.199127197265625	0.0019610595703125	2029.28531887655
0.20355224609375	0.00196807861328125	2029.72782387543
0.207977294921875	0.00197479248046875	2030.17032887431
0.21240234375	0.00198150634765625	2030.6128338732
0.216827392578125	0.00198822021484375	2031.05533887208
0.22125244140625	0.00199432373046875	2031.49784387096
0.225677490234375	0.00200042724609375	2031.94034886984
0.2301025390625	0.00200592041015625	2032.38285386873
0.234527587890625	0.0020111083984375	2032.82535886761
0.23895263671875	0.00201629638671875	2033.26786386649
0.243377685546875	0.00202178955078125	2033.71036886537
0.247802734375	0.00202667236328125	2034.15287386426
0.252227783203125	0.0020318603515625	2034.59537886314
0.25665283203125	0.00203643798828125	2035.03788386202
0.261077880859375	0.002042236328125	2035.48038886091
0.2655029296875	0.00204681396484375	2035.92289385979
0.269927978515625	0.00205108642578125	2036.36539885867
0.27435302734375	0.0020556640625	2036.80790385755
0.278778076171875	0.00206024169921875	2037.25040885644
0.283203125	0.0020654296875	2037.69291385532
0.287628173828125	0.00207000732421875	2038.1354188542
0.29205322265625	0.002073974609375	2038.57792385309
0.296478271484375	0.00207916259765625	2039.02042885197
0.3009033203125	0.002083740234375	2039.46293385085
0.305328369140625	0.00208892822265625	2039.90543884973
0.30975341796875	0.0020941162109375	2040.34794384862
0.314178466796875	0.00210113525390625	2040.7904488475
0.318603515625	0.00210601806640625	2041.23295384638
0.323028564453125	0.0021112060546875	2041.67545884526
0.32745361328125	0.00211578369140625	2042.11796384415
0.331878662109375	0.0021209716796875	2042.56046884303
0.3363037109375	0.00212615966796875	2043.00297384191
0.340728759765625	0.00213165283203125	2043.4454788408
0.34515380859375	0.00213653564453125	2043.88798383968
0.349578857421875	0.0021417236328125	2044.33048883856
0.35400390625	0.00214630126953125	2044.77299383744
0.358428955078125	0.00215087890625	2045.21549883633
0.36285400390625	0.00215728759765625	2045.65800383521
0.367279052734375	0.00216339111328125	2046.10050883409
0.3717041015625	0.002169189453125	2046.54301383298
0.376129150390625	0.00217437744140625	2046.98551883186
0.38055419921875	0.00218017578125	2047.42802383074
0.384979248046875	0.00218597412109375	2047.87052882962
0.389404296875	0.00219146728515625	2048.31303382851
0.393829345703125	0.002197265625	2048.75553882739
0.39825439453125	0.00220306396484375	2049.19804382627
0.402679443359375	0.00220855712890625	2049.64054882515
0.4071044921875	0.002213134765625	2050.08305382404
0.411529541015625	0.002218017578125	2050.52555882292
0.41595458984375	0.002222900390625	2050.9680638218
0.420379638671875	0.00222808837890625	2051.41056882069
0.4248046875	0.0022320556640625	2051.85307381957
0.429229736328125	0.00223663330078125	2052.29557881845
0.43365478515625	0.00224151611328125	2052.73808381733
0.438079833984375	0.00224517822265625	2053.18058881622
0.4425048828125	0.00224884033203125	2053.6230938151
0.446929931640625	0.0022528076171875	2054.06559881398
0.45135498046875	0.0022564697265625	2054.50810381287
0.455780029296875	0.00226043701171875	2054.95060881175
0.460205078125	0.00226409912109375	2055.39311381063
0.464630126953125	0.00226837158203125	2055.83561880951
0.46905517578125	0.0022711181640625	2056.2781238084
0.473480224609375	0.002275390625	2056.72062880728
0.4779052734375	0.002279052734375	2057.16313380616
0.482330322265625	0.00228240966796875	2057.60563880505
0.48675537109375	0.002286376953125	2058.04814380393
0.491180419921875	0.00229034423828125	2058.49064880281
0.49560546875	0.00229278564453125	2058.93315380169
0.500030517578125	0.002296142578125	2059.37565880058
0.50445556640625	0.00229949951171875	2059.81816379946
0.508880615234375	0.0023016357421875	2060.26066879834
0.5133056640625	0.00230438232421875	2060.70317379722
0.517730712890625	0.0023077392578125	2061.14567879611
0.52215576171875	0.00230926513671875	2061.58818379499
0.526580810546875	0.00231201171875	2062.03068879387
0.531005859375	0.0023126220703125	2062.47319379276
0.535430908203125	0.002315673828125	2062.91569879164
0.53985595703125	0.00231719970703125	2063.35820379052
0.544281005859375	0.00231903076171875	2063.8007087894
0.5487060546875	0.00232025146484375	2064.24321378829
0.553131103515625	0.002322998046875	2064.68571878717
0.55755615234375	0.00232391357421875	2065.12822378605
0.561981201171875	0.00232513427734375	2065.57072878494
0.56640625	0.00232574462890625	2066.01323378382
0.570831298828125	0.00232696533203125	2066.4557387827
0.57525634765625	0.00232879638671875	2066.89824378158
0.579681396484375	0.002330322265625	2067.34074878047
0.5841064453125	0.00233154296875	2067.78325377935
0.588531494140625	0.00233062744140625	2068.22575877823
0.59295654296875	0.0023321533203125	2068.66826377711
0.597381591796875	0.00233154296875	2069.110768776
0.601806640625	0.00233367919921875	2069.55327377488
0.606231689453125	0.0023345947265625	2069.99577877376
0.61065673828125	0.00233489990234375	2070.43828377265
0.615081787109375	0.00233612060546875	2070.88078877153
0.6195068359375	0.00233673095703125	2071.32329377041
0.623931884765625	0.00233795166015625	2071.76579876929
0.62835693359375	0.002342529296875	2072.20830376818
0.632781982421875	0.002342529296875	2072.65080876706
0.63720703125	0.0023431396484375	2073.09331376594
0.641632080078125	0.00234405517578125	2073.53581876483
0.64605712890625	0.00234588623046875	2073.97832376371
0.650482177734375	0.00234649658203125	2074.42082876259
0.6549072265625	0.00234832763671875	2074.86333376147
0.659332275390625	0.00235015869140625	2075.30583876036
0.66375732421875	0.002352294921875	2075.74834375924
0.668182373046875	0.002353515625	2076.19084875812
0.672607421875	0.0023553466796875	2076.633353757
0.677032470703125	0.002357177734375	2077.07585875589
0.68145751953125	0.00236083984375	2077.51836375477
0.685882568359375	0.00236236572265625	2077.96086875365
0.6903076171875	0.00236480712890625	2078.40337375254
0.694732666015625	0.00236785888671875	2078.84587875142
0.69915771484375	0.0023712158203125	2079.2883837503
0.703582763671875	0.0023736572265625	2079.73088874918
0.7080078125	0.0023779296875	2080.17339374807
0.712432861328125	0.00238189697265625	2080.61589874695
0.71685791015625	0.0023858642578125	2081.05840374583
0.721282958984375	0.00239166259765625	2081.50090874472
0.7257080078125	0.002396240234375	2081.9434137436
0.730133056640625	0.00240264892578125	2082.38591874248
0.73455810546875	0.00240753173828125	2082.82842374136
0.738983154296875	0.00241363525390625	2083.27092874025
0.743408203125	0.0024188232421875	2083.71343373913
0.747833251953125	0.00242645263671875	2084.15593873801
0.75225830078125	0.002432861328125	2084.59844373689
0.756683349609375	0.00244171142578125	2085.04094873578
0.7611083984375	0.00244903564453125	2085.48345373466
0.765533447265625	0.00245880126953125	2085.92595873354
0.76995849609375	0.002469482421875	2086.36846373243
0.774383544921875	0.002479248046875	2086.81096873131
0.77880859375	0.00248931884765625	2087.25347373019
0.783233642578125	0.00250152587890625	2087.69597872907
0.78765869140625	0.00251251220703125	2088.13848372796
0.792083740234375	0.0025250244140625	2088.58098872684
0.7965087890625	0.0025396728515625	2089.02349372572
0.800933837890625	0.0025531005859375	2089.46599872461
0.80535888671875	0.00256927490234375	2089.90850372349
0.809783935546875	0.0025860595703125	2090.35100872237
0.814208984375	0.0026025390625	2090.79351372125
0.818634033203125	0.00262115478515625	2091.23601872014
0.82305908203125	0.0026409912109375	2091.67852371902
0.827484130859375	0.00266082763671875	2092.1210287179
0.8319091796875	0.00268035888671875	2092.56353371679
0.836334228515625	0.002703857421875	2093.00603871567
0.84075927734375	0.0027276611328125	2093.44854371455
0.845184326171875	0.00275238037109375	2093.89104871343
0.849609375	0.00277862548828125	2094.33355371232
0.854034423828125	0.0028057861328125	2094.7760587112
0.85845947265625	0.002833251953125	2095.21856371008
0.862884521484375	0.00286376953125	2095.66106870896
0.8673095703125	0.0028948974609375	2096.10357370785
0.871734619140625	0.00292724609375	2096.54607870673
0.87615966796875	0.0029608154296875	2096.98858370561
0.880584716796875	0.00299560546875	2097.4310887045
0.885009765625	0.00303314208984375	2097.87359370338
0.889434814453125	0.00306976318359375	2098.31609870226
0.89385986328125	0.0031109619140625	2098.75860370114
0.898284912109375	0.0031500244140625	2099.20110870003
0.9027099609375	0.00319366455078125	2099.64361369891
0.907135009765625	0.003236083984375	2100.08611869779
0.91156005859375	0.0032806396484375	2100.52862369667
0.915985107421875	0.0033251953125	2100.97112869556
0.92041015625	0.0033721923828125	2101.41363369444
0.924835205078125	0.003419189453125	2101.85613869332
0.92926025390625	0.0034674072265625	2102.29864369221
0.933685302734375	0.0035174560546875	2102.74114869109
0.9381103515625	0.00357025146484375	2103.18365368997
0.942535400390625	0.0036224365234375	2103.62615868885
0.94696044921875	0.00367462158203125	2104.06866368774
0.951385498046875	0.0037274169921875	2104.51116868662
0.955810546875	0.003780517578125	2104.9536736855
0.960235595703125	0.00383575439453125	2105.39617868439
0.96466064453125	0.0038909912109375	2105.83868368327
0.969085693359375	0.00394805908203125	2106.28118868215
0.9735107421875	0.00400482177734375	2106.72369368103
0.977935791015625	0.0040594482421875	2107.16619867992
0.98236083984375	0.00411407470703125	2107.6087036788
0.986785888671875	0.0041717529296875	2108.05120867768
0.9912109375	0.0042303466796875	2108.49371367657
