Potential applied (V)	WE(1).Current (A)	Time (s)
0.004425048828125	-0.07291259765625	2675.29529424553
0.00885009765625	-0.0710968017578125	2675.31741924547
0.013275146484375	-0.0694793701171875	2675.33954424542
0.0177001953125	-0.0679412841796875	2675.36166924536
0.022125244140625	-0.0665069580078125	2675.38379424531
0.02655029296875	-0.06512451171875	2675.40591924525
0.030975341796875	-0.0637969970703125	2675.42804424519
0.035400390625	-0.0625091552734375	2675.45016924514
0.039825439453125	-0.0612701416015625	2675.47229424508
0.04425048828125	-0.0600860595703125	2675.49441924503
0.048675537109375	-0.0589202880859375	2675.51654424497
0.0531005859375	-0.0578094482421875	2675.53866924491
0.057525634765625	-0.05667724609375	2675.56079424486
0.06195068359375	-0.0555755615234375	2675.5829192448
0.066375732421875	-0.0545135498046875	2675.60504424475
0.07080078125	-0.0534393310546875	2675.62716924469
0.075225830078125	-0.052392578125	2675.64929424463
0.07965087890625	-0.051373291015625	2675.67141924458
0.084075927734375	-0.0503662109375	2675.69354424452
0.0885009765625	-0.04937744140625	2675.71566924447
0.092926025390625	-0.0484130859375	2675.73779424441
0.09735107421875	-0.0474822998046875	2675.75991924436
0.101776123046875	-0.046551513671875	2675.7820442443
0.106201171875	-0.04564208984375	2675.80416924424
0.110626220703125	-0.044744873046875	2675.82629424419
0.11505126953125	-0.0438629150390625	2675.84841924413
0.119476318359375	-0.0429931640625	2675.87054424408
0.1239013671875	-0.042144775390625	2675.89266924402
0.128326416015625	-0.041302490234375	2675.91479424396
0.13275146484375	-0.0404815673828125	2675.93691924391
0.137176513671875	-0.0396728515625	2675.95904424385
0.1416015625	-0.0388671875	2675.9811692438
0.146026611328125	-0.0380889892578125	2676.00329424374
0.15045166015625	-0.0373138427734375	2676.02541924369
0.154876708984375	-0.0365570068359375	2676.04754424363
0.1593017578125	-0.0358001708984375	2676.06966924357
0.163726806640625	-0.0350616455078125	2676.09179424352
0.16815185546875	-0.0343353271484375	2676.11391924346
0.172576904296875	-0.0336181640625	2676.13604424341
0.177001953125	-0.0329071044921875	2676.15816924335
0.181427001953125	-0.032220458984375	2676.18029424329
0.18585205078125	-0.0315338134765625	2676.20241924324
0.190277099609375	-0.030853271484375	2676.22454424318
0.1947021484375	-0.0301849365234375	2676.24666924313
0.199127197265625	-0.0295318603515625	2676.26879424307
0.20355224609375	-0.028875732421875	2676.29091924302
0.207977294921875	-0.02823486328125	2676.31304424296
0.21240234375	-0.027606201171875	2676.3351692429
0.216827392578125	-0.026983642578125	2676.35729424285
0.22125244140625	-0.0263702392578125	2676.37941924279
0.225677490234375	-0.0257568359375	2676.40154424274
0.2301025390625	-0.0251617431640625	2676.42366924268
0.234527587890625	-0.02457275390625	2676.44579424262
0.23895263671875	-0.02398681640625	2676.46791924257
0.243377685546875	-0.0234130859375	2676.49004424251
0.247802734375	-0.0228485107421875	2676.51216924246
0.252227783203125	-0.022283935546875	2676.5342942424
0.25665283203125	-0.0217315673828125	2676.55641924234
0.261077880859375	-0.02117919921875	2676.57854424229
0.2655029296875	-0.02064208984375	2676.60066924223
0.269927978515625	-0.0201080322265625	2676.62279424218
0.27435302734375	-0.019580078125	2676.64491924212
0.278778076171875	-0.019061279296875	2676.66704424207
0.283203125	-0.0185455322265625	2676.68916924201
0.287628173828125	-0.018035888671875	2676.71129424195
0.29205322265625	-0.0175323486328125	2676.7334192419
0.296478271484375	-0.0170379638671875	2676.75554424184
0.3009033203125	-0.01654052734375	2676.77766924179
0.305328369140625	-0.016058349609375	2676.79979424173
0.30975341796875	-0.015576171875	2676.82191924167
0.314178466796875	-0.01510009765625	2676.84404424162
0.318603515625	-0.014630126953125	2676.86616924156
0.323028564453125	-0.014166259765625	2676.88829424151
0.32745361328125	-0.013714599609375	2676.91041924145
0.331878662109375	-0.0132598876953125	2676.9325442414
0.3363037109375	-0.0128082275390625	2676.95466924134
0.340728759765625	-0.01236572265625	2676.97679424128
0.34515380859375	-0.01192626953125	2676.99891924123
0.349578857421875	-0.01148681640625	2677.02104424117
0.35400390625	-0.0110565185546875	2677.04316924112
0.358428955078125	-0.0106353759765625	2677.06529424106
0.36285400390625	-0.010211181640625	2677.087419241
0.367279052734375	-0.009796142578125	2677.10954424095
0.3717041015625	-0.0093841552734375	2677.13166924089
0.376129150390625	-0.008978271484375	2677.15379424084
0.38055419921875	-0.0085723876953125	2677.17591924078
0.384979248046875	-0.0081695556640625	2677.19804424072
0.389404296875	-0.00777587890625	2677.22016924067
0.393829345703125	-0.00738525390625	2677.24229424061
0.39825439453125	-0.0069976806640625	2677.26441924056
0.402679443359375	-0.006610107421875	2677.2865442405
0.4071044921875	-0.0062286376953125	2677.30866924045
0.411529541015625	-0.005853271484375	2677.33079424039
0.41595458984375	-0.0054779052734375	2677.35291924033
0.420379638671875	-0.005108642578125	2677.37504424028
0.4248046875	-0.00474365234375	2677.39716924022
0.429229736328125	-0.00438079833984375	2677.41929424017
0.43365478515625	-0.00402191162109375	2677.44141924011
0.438079833984375	-0.00366485595703125	2677.46354424005
0.4425048828125	-0.003310546875	2677.48566924
0.446929931640625	-0.00297149658203125	2677.50779423994
0.45135498046875	-0.00262420654296875	2677.52991923989
0.455780029296875	-0.00227996826171875	2677.55204423983
0.460205078125	-0.00193817138671875	2677.57416923978
0.464630126953125	-0.00159912109375	2677.59629423972
0.46905517578125	-0.00126434326171875	2677.61841923966
0.473480224609375	-0.0009320068359375	2677.64054423961
0.4779052734375	-0.00060211181640625	2677.66266923955
0.482330322265625	-0.000275482177734375	2677.6847942395
0.48675537109375	4.833984375E-05	2677.70691923944
0.491180419921875	0.00036968994140625	2677.72904423938
0.49560546875	0.00068756103515625	2677.75116923933
0.500030517578125	0.00100341796875	2677.77329423927
0.50445556640625	0.00131683349609375	2677.79541923922
0.508880615234375	0.0016278076171875	2677.81754423916
0.5133056640625	0.0019354248046875	2677.8396692391
0.517730712890625	0.00224090576171875	2677.86179423905
0.52215576171875	0.0025439453125	2677.88391923899
0.526580810546875	0.00284393310546875	2677.90604423894
0.531005859375	0.003140869140625	2677.92816923888
0.535430908203125	0.003436279296875	2677.95029423883
0.53985595703125	0.00372955322265625	2677.97241923877
0.544281005859375	0.0040203857421875	2677.99454423871
0.5487060546875	0.004307861328125	2678.01666923866
0.553131103515625	0.00459320068359375	2678.0387942386
0.55755615234375	0.0048773193359375	2678.06091923855
0.561981201171875	0.00515777587890625	2678.08304423849
0.56640625	0.00543670654296875	2678.10516923843
0.570831298828125	0.00571563720703125	2678.12729423838
0.57525634765625	0.005989990234375	2678.14941923832
0.579681396484375	0.0062640380859375	2678.17154423827
0.5841064453125	0.0065277099609375	2678.19366923821
0.588531494140625	0.006793212890625	2678.21579423816
0.59295654296875	0.0070587158203125	2678.2379192381
0.597381591796875	0.00732421875	2678.26004423804
0.601806640625	0.007586669921875	2678.28216923799
0.606231689453125	0.0078399658203125	2678.30429423793
0.61065673828125	0.008099365234375	2678.32641923788
0.615081787109375	0.008355712890625	2678.34854423782
0.6195068359375	0.00860595703125	2678.37066923776
0.623931884765625	0.008856201171875	2678.39279423771
0.62835693359375	0.0091094970703125	2678.41491923765
0.632781982421875	0.009356689453125	2678.4370442376
0.63720703125	0.0095947265625	2678.45916923754
0.641632080078125	0.0098419189453125	2678.48129423748
0.64605712890625	0.0100830078125	2678.50341923743
0.650482177734375	0.0103240966796875	2678.52554423737
0.6549072265625	0.01055908203125	2678.54766923732
0.659332275390625	0.010797119140625	2678.56979423726
0.66375732421875	0.011029052734375	2678.59191923721
0.668182373046875	0.011260986328125	2678.61404423715
0.672607421875	0.0114898681640625	2678.63616923709
0.677032470703125	0.01171875	2678.65829423704
0.68145751953125	0.0119476318359375	2678.68041923698
0.685882568359375	0.0121734619140625	2678.70254423693
0.6903076171875	0.012396240234375	2678.72466923687
0.694732666015625	0.01260986328125	2678.74679423681
0.69915771484375	0.0128326416015625	2678.76891923676
0.703582763671875	0.0130462646484375	2678.7910442367
0.7080078125	0.0132598876953125	2678.81316923665
0.712432861328125	0.0134735107421875	2678.83529423659
0.71685791015625	0.01368408203125	2678.85741923653
0.721282958984375	0.0138946533203125	2678.87954423648
0.7257080078125	0.01409912109375	2678.90166923642
0.730133056640625	0.0143096923828125	2678.92379423637
0.73455810546875	0.014508056640625	2678.94591923631
0.738983154296875	0.0147125244140625	2678.96804423626
0.743408203125	0.0149078369140625	2678.9901692362
0.747833251953125	0.01510009765625	2679.01229423614
0.75225830078125	0.015301513671875	2679.03441923609
0.756683349609375	0.0154998779296875	2679.05654423603
0.7611083984375	0.0156890869140625	2679.07866923598
0.765533447265625	0.01588134765625	2679.10079423592
0.76995849609375	0.0160736083984375	2679.12291923587
0.774383544921875	0.016265869140625	2679.14504423581
0.77880859375	0.0164520263671875	2679.16716923575
0.783233642578125	0.01663818359375	2679.1892942357
0.78765869140625	0.0168243408203125	2679.21141923564
0.792083740234375	0.0170074462890625	2679.23354423559
0.7965087890625	0.0171844482421875	2679.25566923553
0.800933837890625	0.0173583984375	2679.27779423547
0.80535888671875	0.01754150390625	2679.29991923542
0.809783935546875	0.0177154541015625	2679.32204423536
0.814208984375	0.01788330078125	2679.34416923531
0.818634033203125	0.0180572509765625	2679.36629423525
0.82305908203125	0.0182342529296875	2679.38841923519
0.827484130859375	0.018402099609375	2679.41054423514
0.8319091796875	0.018572998046875	2679.43266923508
0.836334228515625	0.01873779296875	2679.45479423503
0.84075927734375	0.0189056396484375	2679.47691923497
0.845184326171875	0.0190673828125	2679.49904423492
0.849609375	0.0192352294921875	2679.52116923486
0.854034423828125	0.01939697265625	2679.5432942348
0.85845947265625	0.0195526123046875	2679.56541923475
0.862884521484375	0.01971435546875	2679.58754423469
0.8673095703125	0.019873046875	2679.60966923464
0.871734619140625	0.0200286865234375	2679.63179423458
0.87615966796875	0.0201873779296875	2679.65391923452
0.880584716796875	0.0203338623046875	2679.67604423447
0.885009765625	0.0204925537109375	2679.69816923441
0.889434814453125	0.02064208984375	2679.72029423436
0.89385986328125	0.0207916259765625	2679.7424192343
0.898284912109375	0.020941162109375	2679.76454423425
0.9027099609375	0.021087646484375	2679.78666923419
0.907135009765625	0.0212310791015625	2679.80879423413
0.91156005859375	0.0213775634765625	2679.83091923408
0.915985107421875	0.0215240478515625	2679.85304423402
0.92041015625	0.0216644287109375	2679.87516923397
0.924835205078125	0.0218109130859375	2679.89729423391
0.92926025390625	0.0219451904296875	2679.91941923385
0.933685302734375	0.02208251953125	2679.9415442338
0.9381103515625	0.022222900390625	2679.96366923374
0.942535400390625	0.02236328125	2679.98579423369
0.94696044921875	0.02249755859375	2680.00791923363
0.951385498046875	0.0226318359375	2680.03004423357
0.955810546875	0.02276611328125	2680.05216923352
0.960235595703125	0.022900390625	2680.07429423346
0.96466064453125	0.02303466796875	2680.09641923341
0.969085693359375	0.023162841796875	2680.11854423335
0.9735107421875	0.0232879638671875	2680.1406692333
0.977935791015625	0.023419189453125	2680.16279423324
0.98236083984375	0.02354736328125	2680.18491923318
0.986785888671875	0.023675537109375	2680.20704423313
0.9912109375	0.0238037109375	2680.22916923307
0.995635986328125	0.023931884765625	2680.25129423302
1.00006103515625	0.024053955078125	2680.27341923296
0.995635986328125	0.023431396484375	2680.2955442329
0.9912109375	0.0228240966796875	2680.31766923285
0.986785888671875	0.0222259521484375	2680.33979423279
0.98236083984375	0.02164306640625	2680.36191923274
0.977935791015625	0.0210662841796875	2680.38404423268
0.9735107421875	0.02049560546875	2680.40616923262
0.969085693359375	0.0199432373046875	2680.42829423257
0.96466064453125	0.0193939208984375	2680.45041923251
0.960235595703125	0.01884765625	2680.47254423246
0.955810546875	0.0183135986328125	2680.4946692324
0.951385498046875	0.0177886962890625	2680.51679423235
0.94696044921875	0.01727294921875	2680.53891923229
0.942535400390625	0.01676025390625	2680.56104423223
0.9381103515625	0.016253662109375	2680.58316923218
0.933685302734375	0.015753173828125	2680.60529423212
0.92926025390625	0.0152679443359375	2680.62741923207
0.924835205078125	0.0147796630859375	2680.64954423201
0.92041015625	0.0143035888671875	2680.67166923195
0.915985107421875	0.013836669921875	2680.6937942319
0.91156005859375	0.01336669921875	2680.71591923184
0.907135009765625	0.01290283203125	2680.73804423179
0.9027099609375	0.012445068359375	2680.76016923173
0.898284912109375	0.0120025634765625	2680.78229423168
0.89385986328125	0.0115570068359375	2680.80441923162
0.889434814453125	0.0111175537109375	2680.82654423156
0.885009765625	0.0106842041015625	2680.84866923151
0.880584716796875	0.01025390625	2680.87079423145
0.87615966796875	0.009832763671875	2680.8929192314
0.871734619140625	0.00941162109375	2680.91504423134
0.8673095703125	0.00899658203125	2680.93716923128
0.862884521484375	0.0085906982421875	2680.95929423123
0.85845947265625	0.008184814453125	2680.98141923117
0.854034423828125	0.0077880859375	2681.00354423112
0.849609375	0.0073883056640625	2681.02566923106
0.845184326171875	0.0069976806640625	2681.047794231
0.84075927734375	0.006610107421875	2681.06991923095
0.836334228515625	0.0062255859375	2681.09204423089
0.8319091796875	0.00584716796875	2681.11416923084
0.827484130859375	0.0054718017578125	2681.13629423078
0.82305908203125	0.0050994873046875	2681.15841923073
0.818634033203125	0.00473358154296875	2681.18054423067
0.814208984375	0.00436798095703125	2681.20266923061
0.809783935546875	0.00400848388671875	2681.22479423056
0.80535888671875	0.00365020751953125	2681.2469192305
0.800933837890625	0.00329620361328125	2681.26904423045
0.7965087890625	0.00294952392578125	2681.29116923039
0.792083740234375	0.00260223388671875	2681.31329423033
0.78765869140625	0.00225799560546875	2681.33541923028
0.783233642578125	0.0019171142578125	2681.35754423022
0.77880859375	0.00157989501953125	2681.37966923017
0.774383544921875	0.0012457275390625	2681.40179423011
0.76995849609375	0.00091461181640625	2681.42391923006
0.765533447265625	0.00058624267578125	2681.44604423
0.7611083984375	0.000261138916015625	2681.46816922994
0.756683349609375	-6.036376953125E-05	2681.49029422989
0.75225830078125	-0.00037994384765625	2681.51241922983
0.747833251953125	-0.00069610595703125	2681.53454422978
0.743408203125	-0.00100982666015625	2681.55666922972
0.738983154296875	-0.001318359375	2681.57879422966
0.73455810546875	-0.0016265869140625	2681.60091922961
0.730133056640625	-0.0019317626953125	2681.62304422955
0.7257080078125	-0.00223419189453125	2681.6451692295
0.721282958984375	-0.00253448486328125	2681.66729422944
0.71685791015625	-0.00283203125	2681.68941922938
0.712432861328125	-0.00312652587890625	2681.71154422933
0.7080078125	-0.003419189453125	2681.73366922927
0.703582763671875	-0.00370849609375	2681.75579422922
0.69915771484375	-0.00399627685546875	2681.77791922916
0.694732666015625	-0.00428009033203125	2681.80004422911
0.6903076171875	-0.00456298828125	2681.82216922905
0.685882568359375	-0.00484405517578125	2681.84429422899
0.68145751953125	-0.0051214599609375	2681.86641922894
0.677032470703125	-0.00539764404296875	2681.88854422888
0.672607421875	-0.00567108154296875	2681.91066922883
0.668182373046875	-0.005941162109375	2681.93279422877
0.66375732421875	-0.00620941162109375	2681.95491922871
0.659332275390625	-0.0064544677734375	2681.97704422866
0.6549072265625	-0.0067169189453125	2681.9991692286
0.650482177734375	-0.0069793701171875	2682.02129422855
0.64605712890625	-0.0072357177734375	2682.04341922849
0.641632080078125	-0.0074951171875	2682.06554422844
0.63720703125	-0.0077545166015625	2682.08766922838
0.632781982421875	-0.008001708984375	2682.10979422832
0.62835693359375	-0.008251953125	2682.13191922827
0.623931884765625	-0.008502197265625	2682.15404422821
0.6195068359375	-0.00875244140625	2682.17616922816
0.615081787109375	-0.00899658203125	2682.1982942281
0.61065673828125	-0.00924072265625	2682.22041922804
0.606231689453125	-0.0094818115234375	2682.24254422799
0.601806640625	-0.009716796875	2682.26466922793
0.597381591796875	-0.00994873046875	2682.28679422788
0.59295654296875	-0.0101837158203125	2682.30891922782
0.588531494140625	-0.0104156494140625	2682.33104422777
0.5841064453125	-0.01064453125	2682.35316922771
0.579681396484375	-0.010870361328125	2682.37529422765
0.57525634765625	-0.01109619140625	2682.3974192276
0.570831298828125	-0.011328125	2682.41954422754
0.56640625	-0.0115478515625	2682.44166922749
0.561981201171875	-0.0117706298828125	2682.46379422743
0.55755615234375	-0.0119903564453125	2682.48591922737
0.553131103515625	-0.01220703125	2682.50804422732
0.5487060546875	-0.0124237060546875	2682.53016922726
0.544281005859375	-0.0126312255859375	2682.55229422721
0.53985595703125	-0.0128448486328125	2682.57441922715
0.535430908203125	-0.0130523681640625	2682.59654422709
0.531005859375	-0.0132598876953125	2682.61866922704
0.526580810546875	-0.01346435546875	2682.64079422698
0.52215576171875	-0.0136688232421875	2682.66291922693
0.517730712890625	-0.013873291015625	2682.68504422687
0.5133056640625	-0.014068603515625	2682.70716922682
0.508880615234375	-0.014263916015625	2682.72929422676
0.50445556640625	-0.0144622802734375	2682.7514192267
0.500030517578125	-0.014666748046875	2682.77354422665
0.49560546875	-0.0148651123046875	2682.79566922659
0.491180419921875	-0.0150634765625	2682.81779422654
0.48675537109375	-0.0152557373046875	2682.83991922648
0.482330322265625	-0.0154449462890625	2682.86204422642
0.4779052734375	-0.0156280517578125	2682.88416922637
0.473480224609375	-0.0158172607421875	2682.90629422631
0.46905517578125	-0.0160064697265625	2682.92841922626
0.464630126953125	-0.0161865234375	2682.9505442262
0.460205078125	-0.0163665771484375	2682.97266922615
0.455780029296875	-0.016546630859375	2682.99479422609
0.45135498046875	-0.016729736328125	2683.01691922603
0.446929931640625	-0.0169097900390625	2683.03904422598
0.4425048828125	-0.01708984375	2683.06116922592
0.438079833984375	-0.0172607421875	2683.08329422587
0.43365478515625	-0.01744384765625	2683.10541922581
0.429229736328125	-0.0176116943359375	2683.12754422575
0.4248046875	-0.01778564453125	2683.1496692257
0.420379638671875	-0.01795654296875	2683.17179422564
0.41595458984375	-0.0181182861328125	2683.19391922559
0.411529541015625	-0.0182861328125	2683.21604422553
0.4071044921875	-0.01845703125	2683.23816922547
0.402679443359375	-0.0186248779296875	2683.26029422542
0.39825439453125	-0.01878662109375	2683.28241922536
0.393829345703125	-0.0189483642578125	2683.30454422531
0.389404296875	-0.01910400390625	2683.32666922525
0.384979248046875	-0.0192596435546875	2683.3487942252
0.38055419921875	-0.01942138671875	2683.37091922514
0.376129150390625	-0.019573974609375	2683.39304422508
0.3717041015625	-0.01973876953125	2683.41516922503
0.367279052734375	-0.0198944091796875	2683.43729422497
0.36285400390625	-0.0200531005859375	2683.45941922492
0.358428955078125	-0.020208740234375	2683.48154422486
0.35400390625	-0.0203582763671875	2683.5036692248
0.349578857421875	-0.0205078125	2683.52579422475
0.34515380859375	-0.020660400390625	2683.54791922469
0.340728759765625	-0.0208038330078125	2683.57004422464
0.3363037109375	-0.0209503173828125	2683.59216922458
0.331878662109375	-0.0210968017578125	2683.61429422453
0.32745361328125	-0.021246337890625	2683.63641922447
0.323028564453125	-0.0213897705078125	2683.65854422441
0.318603515625	-0.021533203125	2683.68066922436
0.314178466796875	-0.0216796875	2683.7027942243
0.30975341796875	-0.021820068359375	2683.72491922425
0.305328369140625	-0.02197265625	2683.74704422419
0.3009033203125	-0.0221099853515625	2683.76916922413
0.296478271484375	-0.0222503662109375	2683.79129422408
0.29205322265625	-0.022381591796875	2683.81341922402
0.287628173828125	-0.0225189208984375	2683.83554422397
0.283203125	-0.0226593017578125	2683.85766922391
0.278778076171875	-0.0227935791015625	2683.87979422385
0.27435302734375	-0.022930908203125	2683.9019192238
0.269927978515625	-0.0230621337890625	2683.92404422374
0.2655029296875	-0.0231964111328125	2683.94616922369
0.261077880859375	-0.0233245849609375	2683.96829422363
0.25665283203125	-0.0234527587890625	2683.99041922358
0.252227783203125	-0.0235870361328125	2684.01254422352
0.247802734375	-0.0237274169921875	2684.03466922346
0.243377685546875	-0.0238616943359375	2684.05679422341
0.23895263671875	-0.023992919921875	2684.07891922335
0.234527587890625	-0.0241180419921875	2684.1010442233
0.2301025390625	-0.024249267578125	2684.12316922324
0.225677490234375	-0.0243804931640625	2684.14529422318
0.22125244140625	-0.0245086669921875	2684.16741922313
0.216827392578125	-0.0246368408203125	2684.18954422307
0.21240234375	-0.024761962890625	2684.21166922302
0.207977294921875	-0.0248870849609375	2684.23379422296
0.20355224609375	-0.025006103515625	2684.25591922291
0.199127197265625	-0.0251434326171875	2684.27804422285
0.1947021484375	-0.025262451171875	2684.30016922279
0.190277099609375	-0.025384521484375	2684.32229422274
0.18585205078125	-0.0255035400390625	2684.34441922268
0.181427001953125	-0.02562255859375	2684.36654422263
0.177001953125	-0.02574462890625	2684.38866922257
0.172576904296875	-0.0258575439453125	2684.41079422251
0.16815185546875	-0.02598876953125	2684.43291922246
0.163726806640625	-0.0261016845703125	2684.4550442224
0.1593017578125	-0.0262176513671875	2684.47716922235
0.154876708984375	-0.02633056640625	2684.49929422229
0.15045166015625	-0.0264495849609375	2684.52141922223
0.146026611328125	-0.0265594482421875	2684.54354422218
0.1416015625	-0.026678466796875	2684.56566922212
0.137176513671875	-0.0267913818359375	2684.58779422207
0.13275146484375	-0.0269134521484375	2684.60991922201
0.128326416015625	-0.027020263671875	2684.63204422196
0.1239013671875	-0.0271484375	2684.6541692219
0.119476318359375	-0.0272613525390625	2684.67629422184
0.11505126953125	-0.0273834228515625	2684.69841922179
0.110626220703125	-0.027496337890625	2684.72054422173
0.106201171875	-0.0276153564453125	2684.74266922168
0.101776123046875	-0.027734375	2684.76479422162
0.09735107421875	-0.0278564453125	2684.78691922156
0.092926025390625	-0.027960205078125	2684.80904422151
0.0885009765625	-0.028070068359375	2684.83116922145
0.084075927734375	-0.0281707763671875	2684.8532942214
0.07965087890625	-0.02828369140625	2684.87541922134
0.075225830078125	-0.0283935546875	2684.89754422129
0.07080078125	-0.028515625	2684.91966922123
0.066375732421875	-0.028631591796875	2684.94179422117
0.06195068359375	-0.02874755859375	2684.96391922112
0.057525634765625	-0.028857421875	2684.98604422106
0.0531005859375	-0.028961181640625	2685.00816922101
0.048675537109375	-0.0290618896484375	2685.03029422095
0.04425048828125	-0.029180908203125	2685.05241922089
0.039825439453125	-0.029290771484375	2685.07454422084
0.035400390625	-0.02939453125	2685.09666922078
0.030975341796875	-0.0295013427734375	2685.11879422073
0.02655029296875	-0.0296051025390625	2685.14091922067
0.022125244140625	-0.0297119140625	2685.16304422062
0.0177001953125	-0.0298187255859375	2685.18516922056
0.013275146484375	-0.0299224853515625	2685.2072942205
0.00885009765625	-0.030029296875	2685.22941922045
0.004425048828125	-0.0301361083984375	2685.25154422039
0	-0.0302459716796875	2685.27366922034
0.004425048828125	-0.02958984375	2685.29579422028
0.00885009765625	-0.028955078125	2685.31791922022
0.013275146484375	-0.02833251953125	2685.34004422017
0.0177001953125	-0.0277130126953125	2685.36216922011
0.022125244140625	-0.02711181640625	2685.38429422006
0.02655029296875	-0.026507568359375	2685.40641922
0.030975341796875	-0.02591552734375	2685.42854421994
0.035400390625	-0.02532958984375	2685.45066921989
0.039825439453125	-0.0247589111328125	2685.47279421983
0.04425048828125	-0.0241912841796875	2685.49491921978
0.048675537109375	-0.0236297607421875	2685.51704421972
0.0531005859375	-0.023089599609375	2685.53916921967
0.057525634765625	-0.0225433349609375	2685.56129421961
0.06195068359375	-0.022003173828125	2685.58341921955
0.066375732421875	-0.02147216796875	2685.6055442195
0.07080078125	-0.020953369140625	2685.62766921944
0.075225830078125	-0.0204254150390625	2685.64979421939
0.07965087890625	-0.019915771484375	2685.67191921933
0.084075927734375	-0.019403076171875	2685.69404421927
0.0885009765625	-0.018896484375	2685.71616921922
0.092926025390625	-0.018408203125	2685.73829421916
0.09735107421875	-0.0179168701171875	2685.76041921911
0.101776123046875	-0.017431640625	2685.78254421905
0.106201171875	-0.01695556640625	2685.804669219
0.110626220703125	-0.0164794921875	2685.82679421894
0.11505126953125	-0.016009521484375	2685.84891921888
0.119476318359375	-0.0155517578125	2685.87104421883
0.1239013671875	-0.0150909423828125	2685.89316921877
0.128326416015625	-0.014630126953125	2685.91529421872
0.13275146484375	-0.0141815185546875	2685.93741921866
0.137176513671875	-0.013739013671875	2685.9595442186
0.1416015625	-0.0132965087890625	2685.98166921855
0.146026611328125	-0.0128631591796875	2686.00379421849
0.15045166015625	-0.0124298095703125	2686.02591921844
0.154876708984375	-0.0120025634765625	2686.04804421838
0.1593017578125	-0.011578369140625	2686.07016921832
0.163726806640625	-0.0111602783203125	2686.09229421827
0.16815185546875	-0.0107452392578125	2686.11441921821
0.172576904296875	-0.010333251953125	2686.13654421816
0.177001953125	-0.0099273681640625	2686.1586692181
0.181427001953125	-0.0095245361328125	2686.18079421805
0.18585205078125	-0.0091278076171875	2686.20291921799
0.190277099609375	-0.00872802734375	2686.22504421793
0.1947021484375	-0.00833740234375	2686.24716921788
0.199127197265625	-0.0079498291015625	2686.26929421782
0.20355224609375	-0.007568359375	2686.29141921777
0.207977294921875	-0.0071868896484375	2686.31354421771
0.21240234375	-0.0068084716796875	2686.33566921765
0.216827392578125	-0.0064361572265625	2686.3577942176
0.22125244140625	-0.00606689453125	2686.37991921754
0.225677490234375	-0.0056976318359375	2686.40204421749
0.2301025390625	-0.0053314208984375	2686.42416921743
0.234527587890625	-0.0049749755859375	2686.44629421737
0.23895263671875	-0.004617919921875	2686.46841921732
0.243377685546875	-0.0042633056640625	2686.49054421726
0.247802734375	-0.003912353515625	2686.51266921721
0.252227783203125	-0.00356475830078125	2686.53479421715
0.25665283203125	-0.00323028564453125	2686.5569192171
0.261077880859375	-0.00288665771484375	2686.57904421704
0.2655029296875	-0.0025469970703125	2686.60116921698
0.269927978515625	-0.00220916748046875	2686.62329421693
0.27435302734375	-0.001875	2686.64541921687
0.278778076171875	-0.00154296875	2686.66754421682
0.283203125	-0.001214599609375	2686.68966921676
0.287628173828125	-0.0008880615234375	2686.7117942167
0.29205322265625	-0.00056396484375	2686.73391921665
0.296478271484375	-0.0002430419921875	2686.75604421659
0.3009033203125	7.5347900390625E-05	2686.77816921654
0.305328369140625	0.000391326904296875	2686.80029421648
0.30975341796875	0.00070465087890625	2686.82241921643
0.314178466796875	0.00101776123046875	2686.84454421637
0.318603515625	0.0013262939453125	2686.86666921631
0.323028564453125	0.0016326904296875	2686.88879421626
0.32745361328125	0.00193756103515625	2686.9109192162
0.331878662109375	0.0022393798828125	2686.93304421615
0.3363037109375	0.00253814697265625	2686.95516921609
0.340728759765625	0.00283538818359375	2686.97729421603
0.34515380859375	0.0031298828125	2686.99941921598
0.349578857421875	0.00342193603515625	2687.02154421592
0.35400390625	0.00370941162109375	2687.04366921587
0.358428955078125	0.0039971923828125	2687.06579421581
0.36285400390625	0.004283447265625	2687.08791921576
0.367279052734375	0.0045660400390625	2687.1100442157
0.3717041015625	0.0048468017578125	2687.13216921564
0.376129150390625	0.00512603759765625	2687.15429421559
0.38055419921875	0.0054034423828125	2687.17641921553
0.384979248046875	0.00567779541015625	2687.19854421548
0.389404296875	0.00595245361328125	2687.22066921542
0.393829345703125	0.00622100830078125	2687.24279421536
0.39825439453125	0.0064849853515625	2687.26491921531
0.402679443359375	0.0067535400390625	2687.28704421525
0.4071044921875	0.0070220947265625	2687.3091692152
0.411529541015625	0.0072784423828125	2687.33129421514
0.41595458984375	0.0075408935546875	2687.35341921508
0.420379638671875	0.00780029296875	2687.37554421503
0.4248046875	0.008050537109375	2687.39766921497
0.429229736328125	0.008306884765625	2687.41979421492
0.43365478515625	0.0085601806640625	2687.44191921486
0.438079833984375	0.0088134765625	2687.46404421481
0.4425048828125	0.0090606689453125	2687.48616921475
0.446929931640625	0.0093109130859375	2687.50829421469
0.45135498046875	0.009552001953125	2687.53041921464
0.455780029296875	0.009796142578125	2687.55254421458
0.460205078125	0.0100372314453125	2687.57466921453
0.464630126953125	0.010272216796875	2687.59679421447
0.46905517578125	0.0105133056640625	2687.61891921441
0.473480224609375	0.0107513427734375	2687.64104421436
0.4779052734375	0.0109832763671875	2687.6631692143
0.482330322265625	0.0112152099609375	2687.68529421425
0.48675537109375	0.0114471435546875	2687.70741921419
0.491180419921875	0.01168212890625	2687.72954421414
0.49560546875	0.011907958984375	2687.75166921408
0.500030517578125	0.0121337890625	2687.77379421402
0.50445556640625	0.0123565673828125	2687.79591921397
0.508880615234375	0.0125823974609375	2687.81804421391
0.5133056640625	0.0128021240234375	2687.84016921386
0.517730712890625	0.0130218505859375	2687.8622942138
0.52215576171875	0.013238525390625	2687.88441921374
0.526580810546875	0.0134552001953125	2687.90654421369
0.531005859375	0.013671875	2687.92866921363
0.535430908203125	0.013885498046875	2687.95079421358
0.53985595703125	0.014093017578125	2687.97291921352
0.544281005859375	0.0143035888671875	2687.99504421347
0.5487060546875	0.0145050048828125	2688.01716921341
0.553131103515625	0.0147125244140625	2688.03929421335
0.55755615234375	0.0149169921875	2688.0614192133
0.561981201171875	0.0151153564453125	2688.08354421324
0.56640625	0.015313720703125	2688.10566921319
0.570831298828125	0.0155181884765625	2688.12779421313
0.57525634765625	0.0157196044921875	2688.14991921307
0.579681396484375	0.015911865234375	2688.17204421302
0.5841064453125	0.016107177734375	2688.19416921296
0.588531494140625	0.0162994384765625	2688.21629421291
0.59295654296875	0.01649169921875	2688.23841921285
0.597381591796875	0.016680908203125	2688.26054421279
0.601806640625	0.0168701171875	2688.28266921274
0.606231689453125	0.017059326171875	2688.30479421268
0.61065673828125	0.01724853515625	2688.32691921263
0.615081787109375	0.0174407958984375	2688.34904421257
0.6195068359375	0.017620849609375	2688.37116921252
0.623931884765625	0.0177978515625	2688.39329421246
0.62835693359375	0.0179840087890625	2688.4154192124
0.632781982421875	0.018157958984375	2688.43754421235
0.63720703125	0.018328857421875	2688.45966921229
0.641632080078125	0.0185089111328125	2688.48179421224
0.64605712890625	0.0186920166015625	2688.50391921218
0.650482177734375	0.018865966796875	2688.52604421212
0.6549072265625	0.0190460205078125	2688.54816921207
0.659332275390625	0.0192169189453125	2688.57029421201
0.66375732421875	0.0193817138671875	2688.59241921196
0.668182373046875	0.0195556640625	2688.6145442119
0.672607421875	0.0197235107421875	2688.63666921184
0.677032470703125	0.019891357421875	2688.65879421179
0.68145751953125	0.02005615234375	2688.68091921173
0.685882568359375	0.0202117919921875	2688.70304421168
0.6903076171875	0.02037353515625	2688.72516921162
0.694732666015625	0.020538330078125	2688.74729421157
0.69915771484375	0.0206939697265625	2688.76941921151
0.703582763671875	0.020849609375	2688.79154421145
0.7080078125	0.0210052490234375	2688.8136692114
0.712432861328125	0.0211578369140625	2688.83579421134
0.71685791015625	0.0213165283203125	2688.85791921129
0.721282958984375	0.02147216796875	2688.88004421123
0.7257080078125	0.02161865234375	2688.90216921117
0.730133056640625	0.0217803955078125	2688.92429421112
0.73455810546875	0.0219207763671875	2688.94641921106
0.738983154296875	0.0220672607421875	2688.96854421101
0.743408203125	0.022216796875	2688.99066921095
0.747833251953125	0.02236328125	2689.0127942109
0.75225830078125	0.022509765625	2689.03491921084
0.756683349609375	0.0226593017578125	2689.05704421078
0.7611083984375	0.0227935791015625	2689.07916921073
0.765533447265625	0.022930908203125	2689.10129421067
0.76995849609375	0.02305908203125	2689.12341921062
0.774383544921875	0.02320556640625	2689.14554421056
0.77880859375	0.023345947265625	2689.1676692105
0.783233642578125	0.0234710693359375	2689.18979421045
0.78765869140625	0.0236053466796875	2689.21191921039
0.792083740234375	0.0237457275390625	2689.23404421034
0.7965087890625	0.023883056640625	2689.25616921028
0.800933837890625	0.02401123046875	2689.27829421022
0.80535888671875	0.0241455078125	2689.30041921017
0.809783935546875	0.0242828369140625	2689.32254421011
0.814208984375	0.0244110107421875	2689.34466921006
0.818634033203125	0.0245513916015625	2689.36679421
0.82305908203125	0.0246734619140625	2689.38891920995
0.827484130859375	0.0248077392578125	2689.41104420989
0.8319091796875	0.024920654296875	2689.43316920983
0.836334228515625	0.02503662109375	2689.45529420978
0.84075927734375	0.02515869140625	2689.47741920972
0.845184326171875	0.025286865234375	2689.49954420967
0.849609375	0.0254058837890625	2689.52166920961
0.854034423828125	0.0255218505859375	2689.54379420955
0.85845947265625	0.0256378173828125	2689.5659192095
0.862884521484375	0.02574462890625	2689.58804420944
0.8673095703125	0.0258544921875	2689.61016920939
0.871734619140625	0.0259735107421875	2689.63229420933
0.87615966796875	0.0260772705078125	2689.65441920928
0.880584716796875	0.0261962890625	2689.67654420922
0.885009765625	0.0263031005859375	2689.69866920916
0.889434814453125	0.026416015625	2689.72079420911
0.89385986328125	0.0265228271484375	2689.74291920905
0.898284912109375	0.0266265869140625	2689.765044209
0.9027099609375	0.0267333984375	2689.78716920894
0.907135009765625	0.0268310546875	2689.80929420888
0.91156005859375	0.0269378662109375	2689.83141920883
0.915985107421875	0.0270416259765625	2689.85354420877
0.92041015625	0.0271484375	2689.87566920872
0.924835205078125	0.0272491455078125	2689.89779420866
0.92926025390625	0.0273468017578125	2689.91991920861
0.933685302734375	0.0274505615234375	2689.94204420855
0.9381103515625	0.0275482177734375	2689.96416920849
0.942535400390625	0.02764892578125	2689.98629420844
0.94696044921875	0.0277496337890625	2690.00841920838
0.951385498046875	0.02784423828125	2690.03054420833
0.955810546875	0.02794189453125	2690.05266920827
0.960235595703125	0.0280303955078125	2690.07479420821
0.96466064453125	0.0281219482421875	2690.09691920816
0.969085693359375	0.028204345703125	2690.1190442081
0.9735107421875	0.0283050537109375	2690.14116920805
0.977935791015625	0.0283935546875	2690.16329420799
0.98236083984375	0.0284820556640625	2690.18541920793
0.986785888671875	0.0285858154296875	2690.20754420788
0.9912109375	0.0286651611328125	2690.22966920782
0.995635986328125	0.0287567138671875	2690.25179420777
1.00006103515625	0.028839111328125	2690.27391920771
0.995635986328125	0.028167724609375	2690.29604420766
0.9912109375	0.0275177001953125	2690.3181692076
0.986785888671875	0.026873779296875	2690.34029420754
0.98236083984375	0.0262451171875	2690.36241920749
0.977935791015625	0.025628662109375	2690.38454420743
0.9735107421875	0.0250213623046875	2690.40666920738
0.969085693359375	0.0244171142578125	2690.42879420732
0.96466064453125	0.0238250732421875	2690.45091920726
0.960235595703125	0.0232452392578125	2690.47304420721
0.955810546875	0.0226715087890625	2690.49516920715
0.951385498046875	0.0221038818359375	2690.5172942071
0.94696044921875	0.0215423583984375	2690.53941920704
0.942535400390625	0.020989990234375	2690.56154420699
0.9381103515625	0.02044677734375	2690.58366920693
0.933685302734375	0.0199066162109375	2690.60579420687
0.92926025390625	0.0193878173828125	2690.62791920682
0.924835205078125	0.01885986328125	2690.65004420676
0.92041015625	0.01834716796875	2690.67216920671
0.915985107421875	0.01783447265625	2690.69429420665
0.91156005859375	0.0173309326171875	2690.71641920659
0.907135009765625	0.0168365478515625	2690.73854420654
0.9027099609375	0.01634521484375	2690.76066920648
0.898284912109375	0.01585693359375	2690.78279420643
0.89385986328125	0.015380859375	2690.80491920637
0.889434814453125	0.0149017333984375	2690.82704420631
0.885009765625	0.014434814453125	2690.84916920626
0.880584716796875	0.013970947265625	2690.8712942062
0.87615966796875	0.01351318359375	2690.89341920615
0.871734619140625	0.0130615234375	2690.91554420609
0.8673095703125	0.0126190185546875	2690.93766920604
0.862884521484375	0.012176513671875	2690.95979420598
0.85845947265625	0.0117401123046875	2690.98191920592
0.854034423828125	0.0113067626953125	2691.00404420587
0.849609375	0.010882568359375	2691.02616920581
0.845184326171875	0.0104583740234375	2691.04829420576
0.84075927734375	0.0100433349609375	2691.0704192057
0.836334228515625	0.0096282958984375	2691.09254420564
0.8319091796875	0.009222412109375	2691.11466920559
0.827484130859375	0.0088165283203125	2691.13679420553
0.82305908203125	0.008416748046875	2691.15891920548
0.818634033203125	0.00802001953125	2691.18104420542
0.814208984375	0.007635498046875	2691.20316920537
0.809783935546875	0.007244873046875	2691.22529420531
0.80535888671875	0.0068634033203125	2691.24741920525
0.800933837890625	0.0064788818359375	2691.2695442052
0.7965087890625	0.006103515625	2691.29166920514
0.792083740234375	0.005731201171875	2691.31379420509
0.78765869140625	0.0053619384765625	2691.33591920503
0.783233642578125	0.004998779296875	2691.35804420497
0.77880859375	0.00464019775390625	2691.38016920492
0.774383544921875	0.00428436279296875	2691.40229420486
0.76995849609375	0.0039300537109375	2691.42441920481
0.765533447265625	0.0035797119140625	2691.44654420475
0.7611083984375	0.0032366943359375	2691.46866920469
0.756683349609375	0.00289337158203125	2691.49079420464
0.75225830078125	0.0025518798828125	2691.51291920458
0.747833251953125	0.002213134765625	2691.53504420453
0.743408203125	0.00187835693359375	2691.55716920447
0.738983154296875	0.00154815673828125	2691.57929420442
0.73455810546875	0.00121978759765625	2691.60141920436
0.730133056640625	0.00089447021484375	2691.6235442043
0.7257080078125	0.0005718994140625	2691.64566920425
0.721282958984375	0.000252105712890625	2691.66779420419
0.71685791015625	-6.4453125E-05	2691.68991920414
0.712432861328125	-0.00037835693359375	2691.71204420408
0.7080078125	-0.000689697265625	2691.73416920402
0.703582763671875	-0.0009979248046875	2691.75629420397
0.69915771484375	-0.001302490234375	2691.77841920391
0.694732666015625	-0.00160552978515625	2691.80054420386
0.6903076171875	-0.0019061279296875	2691.8226692038
0.685882568359375	-0.00220428466796875	2691.84479420375
0.68145751953125	-0.00249847412109375	2691.86691920369
0.677032470703125	-0.0027911376953125	2691.88904420363
0.672607421875	-0.0030810546875	2691.91116920358
0.668182373046875	-0.00336944580078125	2691.93329420352
0.66375732421875	-0.003656005859375	2691.95541920347
0.659332275390625	-0.0039398193359375	2691.97754420341
0.6549072265625	-0.00422088623046875	2691.99966920335
0.650482177734375	-0.00449859619140625	2692.0217942033
0.64605712890625	-0.004774169921875	2692.04391920324
0.641632080078125	-0.005047607421875	2692.06604420319
0.63720703125	-0.00531951904296875	2692.08816920313
0.632781982421875	-0.00558868408203125	2692.11029420307
0.62835693359375	-0.005855712890625	2692.13241920302
0.623931884765625	-0.00612518310546875	2692.15454420296
0.6195068359375	-0.0063690185546875	2692.17666920291
0.615081787109375	-0.00662841796875	2692.19879420285
0.61065673828125	-0.006884765625	2692.2209192028
0.606231689453125	-0.0071441650390625	2692.24304420274
0.601806640625	-0.0073974609375	2692.26516920268
0.597381591796875	-0.007647705078125	2692.28729420263
0.59295654296875	-0.00789794921875	2692.30941920257
0.588531494140625	-0.0081451416015625	2692.33154420252
0.5841064453125	-0.0083892822265625	2692.35366920246
0.579681396484375	-0.0086334228515625	2692.3757942024
0.57525634765625	-0.0088775634765625	2692.39791920235
0.570831298828125	-0.0091156005859375	2692.42004420229
0.56640625	-0.0093536376953125	2692.44216920224
0.561981201171875	-0.0095855712890625	2692.46429420218
0.55755615234375	-0.009820556640625	2692.48641920213
0.553131103515625	-0.010052490234375	2692.50854420207
0.5487060546875	-0.010284423828125	2692.53066920201
0.544281005859375	-0.01051025390625	2692.55279420196
0.53985595703125	-0.010736083984375	2692.5749192019
0.535430908203125	-0.0109619140625	2692.59704420185
0.531005859375	-0.0111846923828125	2692.61916920179
0.526580810546875	-0.0114013671875	2692.64129420173
0.52215576171875	-0.011627197265625	2692.66341920168
0.517730712890625	-0.0118438720703125	2692.68554420162
0.5133056640625	-0.012060546875	2692.70766920157
0.508880615234375	-0.0122711181640625	2692.72979420151
0.50445556640625	-0.0124847412109375	2692.75191920146
0.500030517578125	-0.0126861572265625	2692.7740442014
0.49560546875	-0.0128936767578125	2692.79616920134
0.491180419921875	-0.01309814453125	2692.81829420129
0.48675537109375	-0.0133056640625	2692.84041920123
0.482330322265625	-0.013507080078125	2692.86254420118
0.4779052734375	-0.0137115478515625	2692.88466920112
0.473480224609375	-0.0139129638671875	2692.90679420106
0.46905517578125	-0.0141082763671875	2692.92891920101
0.464630126953125	-0.014306640625	2692.95104420095
0.460205078125	-0.014508056640625	2692.9731692009
0.455780029296875	-0.01470947265625	2692.99529420084
0.45135498046875	-0.0149017333984375	2693.01741920078
0.446929931640625	-0.015087890625	2693.03954420073
0.4425048828125	-0.015289306640625	2693.06166920067
0.438079833984375	-0.015478515625	2693.08379420062
0.43365478515625	-0.0156585693359375	2693.10591920056
0.429229736328125	-0.0158447265625	2693.12804420051
0.4248046875	-0.0160308837890625	2693.15016920045
0.420379638671875	-0.0162109375	2693.17229420039
0.41595458984375	-0.0163848876953125	2693.19441920034
0.411529541015625	-0.0165679931640625	2693.21654420028
0.4071044921875	-0.016741943359375	2693.23866920023
0.402679443359375	-0.0169219970703125	2693.26079420017
0.39825439453125	-0.0170989990234375	2693.28291920011
0.393829345703125	-0.017266845703125	2693.30504420006
0.389404296875	-0.0174407958984375	2693.3271692
0.384979248046875	-0.01761474609375	2693.34929419995
0.38055419921875	-0.0177886962890625	2693.37141919989
0.376129150390625	-0.0179534912109375	2693.39354419984
0.3717041015625	-0.0181304931640625	2693.41566919978
0.367279052734375	-0.018292236328125	2693.43779419972
0.36285400390625	-0.0184539794921875	2693.45991919967
0.358428955078125	-0.01861572265625	2693.48204419961
0.35400390625	-0.0187835693359375	2693.50416919956
0.349578857421875	-0.0189483642578125	2693.5262941995
0.34515380859375	-0.0191131591796875	2693.54841919944
0.340728759765625	-0.01927490234375	2693.57054419939
0.3363037109375	-0.019439697265625	2693.59266919933
0.331878662109375	-0.019598388671875	2693.61479419928
0.32745361328125	-0.0197601318359375	2693.63691919922
0.323028564453125	-0.019915771484375	2693.65904419916
0.318603515625	-0.0200714111328125	2693.68116919911
0.314178466796875	-0.0202362060546875	2693.70329419905
0.30975341796875	-0.0203887939453125	2693.725419199
0.305328369140625	-0.020538330078125	2693.74754419894
0.3009033203125	-0.02069091796875	2693.76966919889
0.296478271484375	-0.0208343505859375	2693.79179419883
0.29205322265625	-0.02098388671875	2693.81391919877
0.287628173828125	-0.02113037109375	2693.83604419872
0.283203125	-0.021270751953125	2693.85816919866
0.278778076171875	-0.0214141845703125	2693.88029419861
0.27435302734375	-0.021563720703125	2693.90241919855
0.269927978515625	-0.02171630859375	2693.92454419849
0.2655029296875	-0.0218505859375	2693.94666919844
0.261077880859375	-0.021990966796875	2693.96879419838
0.25665283203125	-0.022137451171875	2693.99091919833
0.252227783203125	-0.0222808837890625	2694.01304419827
0.247802734375	-0.022418212890625	2694.03516919822
0.243377685546875	-0.02255859375	2694.05729419816
0.23895263671875	-0.022698974609375	2694.0794191981
0.234527587890625	-0.0228424072265625	2694.10154419805
0.2301025390625	-0.0229827880859375	2694.12366919799
0.225677490234375	-0.0231201171875	2694.14579419794
0.22125244140625	-0.0232513427734375	2694.16791919788
0.216827392578125	-0.023388671875	2694.19004419782
0.21240234375	-0.02352294921875	2694.21216919777
0.207977294921875	-0.023663330078125	2694.23429419771
0.20355224609375	-0.0237884521484375	2694.25641919766
0.199127197265625	-0.0239166259765625	2694.2785441976
0.1947021484375	-0.0240570068359375	2694.30066919754
0.190277099609375	-0.0241943359375	2694.32279419749
0.18585205078125	-0.02431640625	2694.34491919743
0.181427001953125	-0.02445068359375	2694.36704419738
0.177001953125	-0.024578857421875	2694.38916919732
0.172576904296875	-0.0247100830078125	2694.41129419727
0.16815185546875	-0.0248321533203125	2694.43341919721
0.163726806640625	-0.0249664306640625	2694.45554419715
0.1593017578125	-0.0250946044921875	2694.4776691971
0.154876708984375	-0.0252227783203125	2694.49979419704
0.15045166015625	-0.0253448486328125	2694.52191919699
0.146026611328125	-0.025469970703125	2694.54404419693
0.1416015625	-0.025592041015625	2694.56616919687
0.137176513671875	-0.0257171630859375	2694.58829419682
0.13275146484375	-0.0258331298828125	2694.61041919676
0.128326416015625	-0.0259674072265625	2694.63254419671
0.1239013671875	-0.02608642578125	2694.65466919665
0.119476318359375	-0.026214599609375	2694.67679419659
0.11505126953125	-0.026336669921875	2694.69891919654
0.110626220703125	-0.0264556884765625	2694.72104419648
0.106201171875	-0.0265625	2694.74316919643
0.101776123046875	-0.0266845703125	2694.76529419637
0.09735107421875	-0.0268035888671875	2694.78741919632
0.092926025390625	-0.0269287109375	2694.80954419626
0.0885009765625	-0.02703857421875	2694.8316691962
0.084075927734375	-0.0271484375	2694.85379419615
0.07965087890625	-0.0272674560546875	2694.87591919609
0.075225830078125	-0.02738037109375	2694.89804419604
0.07080078125	-0.0275054931640625	2694.92016919598
0.066375732421875	-0.0276275634765625	2694.94229419592
0.06195068359375	-0.0277374267578125	2694.96441919587
0.057525634765625	-0.0278472900390625	2694.98654419581
0.0531005859375	-0.0279693603515625	2695.00866919576
0.048675537109375	-0.0280731201171875	2695.0307941957
0.04425048828125	-0.0281890869140625	2695.05291919565
0.039825439453125	-0.0282989501953125	2695.07504419559
0.035400390625	-0.0284088134765625	2695.09716919553
0.030975341796875	-0.0285186767578125	2695.11929419548
0.02655029296875	-0.02862548828125	2695.14141919542
0.022125244140625	-0.0287384033203125	2695.16354419537
0.0177001953125	-0.02884521484375	2695.18566919531
0.013275146484375	-0.0289581298828125	2695.20779419525
0.00885009765625	-0.029058837890625	2695.2299191952
0.004425048828125	-0.02916259765625	2695.25204419514
0	-0.0292633056640625	2695.27416919509
0.004425048828125	-0.028619384765625	2695.29629419503
0.00885009765625	-0.02799072265625	2695.31841919497
0.013275146484375	-0.0273681640625	2695.34054419492
0.0177001953125	-0.0267669677734375	2695.36266919486
0.022125244140625	-0.026165771484375	2695.38479419481
0.02655029296875	-0.02557373046875	2695.40691919475
0.030975341796875	-0.025	2695.4290441947
0.035400390625	-0.0244232177734375	2695.45116919464
0.039825439453125	-0.0238616943359375	2695.47329419458
0.04425048828125	-0.023309326171875	2695.49541919453
0.048675537109375	-0.02275390625	2695.51754419447
0.0531005859375	-0.022210693359375	2695.53966919442
0.057525634765625	-0.0216705322265625	2695.56179419436
0.06195068359375	-0.0211334228515625	2695.58391919431
0.066375732421875	-0.0206146240234375	2695.60604419425
0.07080078125	-0.02010498046875	2695.62816919419
0.075225830078125	-0.0195892333984375	2695.65029419414
0.07965087890625	-0.01907958984375	2695.67241919408
0.084075927734375	-0.0185791015625	2695.69454419403
0.0885009765625	-0.018084716796875	2695.71666919397
0.092926025390625	-0.0176055908203125	2695.73879419391
0.09735107421875	-0.0171234130859375	2695.76091919386
0.101776123046875	-0.0166473388671875	2695.7830441938
0.106201171875	-0.01617431640625	2695.80516919375
0.110626220703125	-0.0157012939453125	2695.82729419369
0.11505126953125	-0.01524658203125	2695.84941919363
0.119476318359375	-0.014794921875	2695.87154419358
0.1239013671875	-0.0143341064453125	2695.89366919352
0.128326416015625	-0.0138916015625	2695.91579419347
0.13275146484375	-0.0134429931640625	2695.93791919341
0.137176513671875	-0.013006591796875	2695.96004419336
0.1416015625	-0.0125701904296875	2695.9821691933
0.146026611328125	-0.0121429443359375	2696.00429419324
0.15045166015625	-0.01171875	2696.02641919319
0.154876708984375	-0.0112945556640625	2696.04854419313
0.1593017578125	-0.010882568359375	2696.07066919308
0.163726806640625	-0.0104705810546875	2696.09279419302
0.16815185546875	-0.0100616455078125	2696.11491919296
0.172576904296875	-0.0096588134765625	2696.13704419291
0.177001953125	-0.0092559814453125	2696.15916919285
0.181427001953125	-0.0088592529296875	2696.1812941928
0.18585205078125	-0.0084686279296875	2696.20341919274
0.190277099609375	-0.0080780029296875	2696.22554419268
0.1947021484375	-0.0076934814453125	2696.24766919263
0.199127197265625	-0.0073089599609375	2696.26979419257
0.20355224609375	-0.0069305419921875	2696.29191919252
0.207977294921875	-0.00655517578125	2696.31404419246
0.21240234375	-0.006182861328125	2696.33616919241
0.216827392578125	-0.0058135986328125	2696.35829419235
0.22125244140625	-0.005450439453125	2696.38041919229
0.225677490234375	-0.0050872802734375	2696.40254419224
0.2301025390625	-0.00472930908203125	2696.42466919218
0.234527587890625	-0.004375	2696.44679419213
0.23895263671875	-0.004022216796875	2696.46891919207
0.243377685546875	-0.0036724853515625	2696.49104419201
0.247802734375	-0.0033270263671875	2696.51316919196
0.252227783203125	-0.002994384765625	2696.5352941919
0.25665283203125	-0.00265380859375	2696.55741919185
0.261077880859375	-0.00231597900390625	2696.57954419179
0.2655029296875	-0.00198089599609375	2696.60166919174
0.269927978515625	-0.0016485595703125	2696.62379419168
0.27435302734375	-0.00131927490234375	2696.64591919162
0.278778076171875	-0.00099212646484375	2696.66804419157
0.283203125	-0.00066864013671875	2696.69016919151
0.287628173828125	-0.0003470458984375	2696.71229419146
0.29205322265625	-2.825927734375E-05	2696.7344191914
0.296478271484375	0.00028802490234375	2696.75654419134
0.3009033203125	0.00060211181640625	2696.77866919129
0.305328369140625	0.00091278076171875	2696.80079419123
0.30975341796875	0.00122161865234375	2696.82291919118
0.314178466796875	0.00153045654296875	2696.84504419112
0.318603515625	0.001834716796875	2696.86716919106
0.323028564453125	0.00213653564453125	2696.88929419101
0.32745361328125	0.0024359130859375	2696.91141919095
0.331878662109375	0.00273284912109375	2696.9335441909
0.3363037109375	0.003028564453125	2696.95566919084
0.340728759765625	0.00332061767578125	2696.97779419079
0.34515380859375	0.00360992431640625	2696.99991919073
0.349578857421875	0.0038983154296875	2697.02204419067
0.35400390625	0.00418365478515625	2697.04416919062
0.358428955078125	0.00446685791015625	2697.06629419056
0.36285400390625	0.004749755859375	2697.08841919051
0.367279052734375	0.00502960205078125	2697.11054419045
0.3717041015625	0.005308837890625	2697.13266919039
0.376129150390625	0.005582275390625	2697.15479419034
0.38055419921875	0.005855712890625	2697.17691919028
0.384979248046875	0.006126708984375	2697.19904419023
0.389404296875	0.00638427734375	2697.22116919017
0.393829345703125	0.00665283203125	2697.24329419012
0.39825439453125	0.0069183349609375	2697.26541919006
0.402679443359375	0.0071807861328125	2697.28754419
0.4071044921875	0.0074432373046875	2697.30966918995
0.411529541015625	0.00770263671875	2697.33179418989
0.41595458984375	0.007958984375	2697.35391918984
0.420379638671875	0.00821533203125	2697.37604418978
0.4248046875	0.0084686279296875	2697.39816918972
0.429229736328125	0.0087188720703125	2697.42029418967
0.43365478515625	0.008966064453125	2697.44241918961
0.438079833984375	0.0092132568359375	2697.46454418956
0.4425048828125	0.0094573974609375	2697.4866691895
0.446929931640625	0.009698486328125	2697.50879418944
0.45135498046875	0.009942626953125	2697.53091918939
0.455780029296875	0.0101837158203125	2697.55304418933
0.460205078125	0.0104156494140625	2697.57516918928
0.464630126953125	0.0106536865234375	2697.59729418922
0.46905517578125	0.010888671875	2697.61941918917
0.473480224609375	0.0111175537109375	2697.64154418911
0.4779052734375	0.0113494873046875	2697.66366918905
0.482330322265625	0.011578369140625	2697.685794189
0.48675537109375	0.0118072509765625	2697.70791918894
0.491180419921875	0.0120391845703125	2697.73004418889
0.49560546875	0.012261962890625	2697.75216918883
0.500030517578125	0.01248779296875	2697.77429418877
0.50445556640625	0.012701416015625	2697.79641918872
0.508880615234375	0.012921142578125	2697.81854418866
0.5133056640625	0.0131378173828125	2697.84066918861
0.517730712890625	0.0133544921875	2697.86279418855
0.52215576171875	0.0135711669921875	2697.8849191885
0.526580810546875	0.013787841796875	2697.90704418844
0.531005859375	0.013995361328125	2697.92916918838
0.535430908203125	0.01419677734375	2697.95129418833
0.53985595703125	0.0144012451171875	2697.97341918827
0.544281005859375	0.01461181640625	2697.99554418822
0.5487060546875	0.0148162841796875	2698.01766918816
0.553131103515625	0.0150177001953125	2698.0397941881
0.55755615234375	0.0152252197265625	2698.06191918805
0.561981201171875	0.0154296875	2698.08404418799
0.56640625	0.015631103515625	2698.10616918794
0.570831298828125	0.015826416015625	2698.12829418788
0.57525634765625	0.0160247802734375	2698.15041918782
0.579681396484375	0.016217041015625	2698.17254418777
0.5841064453125	0.0164093017578125	2698.19466918771
0.588531494140625	0.016595458984375	2698.21679418766
0.59295654296875	0.016790771484375	2698.2389191876
0.597381591796875	0.0169769287109375	2698.26104418755
0.601806640625	0.017169189453125	2698.28316918749
0.606231689453125	0.0173492431640625	2698.30529418743
0.61065673828125	0.0175323486328125	2698.32741918738
0.615081787109375	0.0177154541015625	2698.34954418732
0.6195068359375	0.017889404296875	2698.37166918727
0.623931884765625	0.0180633544921875	2698.39379418721
0.62835693359375	0.0182464599609375	2698.41591918715
0.632781982421875	0.0184234619140625	2698.4380441871
0.63720703125	0.0186065673828125	2698.46016918704
0.641632080078125	0.0187774658203125	2698.48229418699
0.64605712890625	0.0189483642578125	2698.50441918693
0.650482177734375	0.019122314453125	2698.52654418688
0.6549072265625	0.019293212890625	2698.54866918682
0.659332275390625	0.0194671630859375	2698.57079418676
0.66375732421875	0.0196380615234375	2698.59291918671
0.668182373046875	0.019805908203125	2698.61504418665
0.672607421875	0.019970703125	2698.6371691866
0.677032470703125	0.020135498046875	2698.65929418654
0.68145751953125	0.0203125	2698.68141918648
0.685882568359375	0.0204620361328125	2698.70354418643
0.6903076171875	0.0206268310546875	2698.72566918637
0.694732666015625	0.020782470703125	2698.74779418632
0.69915771484375	0.020947265625	2698.76991918626
0.703582763671875	0.021099853515625	2698.79204418621
0.7080078125	0.0212554931640625	2698.81416918615
0.712432861328125	0.021405029296875	2698.83629418609
0.71685791015625	0.0215545654296875	2698.85841918604
0.721282958984375	0.0217071533203125	2698.88054418598
0.7257080078125	0.0218536376953125	2698.90266918593
0.730133056640625	0.0219940185546875	2698.92479418587
0.73455810546875	0.0221466064453125	2698.94691918581
0.738983154296875	0.0222930908203125	2698.96904418576
0.743408203125	0.022442626953125	2698.9911691857
0.747833251953125	0.0225921630859375	2699.01329418565
0.75225830078125	0.022735595703125	2699.03541918559
0.756683349609375	0.0228729248046875	2699.05754418553
0.7611083984375	0.0230072021484375	2699.07966918548
0.765533447265625	0.0231475830078125	2699.10179418542
0.76995849609375	0.0232879638671875	2699.12391918537
0.774383544921875	0.023419189453125	2699.14604418531
0.77880859375	0.02354736328125	2699.16816918526
0.783233642578125	0.023687744140625	2699.1902941852
0.78765869140625	0.02381591796875	2699.21241918514
0.792083740234375	0.0239532470703125	2699.23454418509
0.7965087890625	0.024078369140625	2699.25666918503
0.800933837890625	0.0242095947265625	2699.27879418498
0.80535888671875	0.0243316650390625	2699.30091918492
0.809783935546875	0.0244720458984375	2699.32304418486
0.814208984375	0.024609375	2699.34516918481
0.818634033203125	0.0247344970703125	2699.36729418475
0.82305908203125	0.0248565673828125	2699.3894191847
0.827484130859375	0.0249786376953125	2699.41154418464
0.8319091796875	0.0251007080078125	2699.43366918459
0.836334228515625	0.0252288818359375	2699.45579418453
0.84075927734375	0.0253448486328125	2699.47791918447
0.845184326171875	0.0254638671875	2699.50004418442
0.849609375	0.0255767822265625	2699.52216918436
0.854034423828125	0.025689697265625	2699.54429418431
0.85845947265625	0.0258056640625	2699.56641918425
0.862884521484375	0.0259246826171875	2699.58854418419
0.8673095703125	0.02603759765625	2699.61066918414
0.871734619140625	0.0261444091796875	2699.63279418408
0.87615966796875	0.0262481689453125	2699.65491918403
0.880584716796875	0.026361083984375	2699.67704418397
0.885009765625	0.02646484375	2699.69916918391
0.889434814453125	0.02657470703125	2699.72129418386
0.89385986328125	0.026690673828125	2699.7434191838
0.898284912109375	0.0267913818359375	2699.76554418375
0.9027099609375	0.026898193359375	2699.78766918369
0.907135009765625	0.0269927978515625	2699.80979418364
0.91156005859375	0.0270904541015625	2699.83191918358
0.915985107421875	0.027197265625	2699.85404418352
0.92041015625	0.02730712890625	2699.87616918347
0.924835205078125	0.0274169921875	2699.89829418341
0.92926025390625	0.0275238037109375	2699.92041918336
0.933685302734375	0.0276214599609375	2699.9425441833
0.9381103515625	0.027728271484375	2699.96466918324
0.942535400390625	0.0278228759765625	2699.98679418319
0.94696044921875	0.02791748046875	2700.00891918313
0.951385498046875	0.0279998779296875	2700.03104418308
0.955810546875	0.0280914306640625	2700.05316918302
0.960235595703125	0.02818603515625	2700.07529418297
0.96466064453125	0.028271484375	2700.09741918291
0.969085693359375	0.028363037109375	2700.11954418285
0.9735107421875	0.02845458984375	2700.1416691828
0.977935791015625	0.02855224609375	2700.16379418274
0.98236083984375	0.028643798828125	2700.18591918269
0.986785888671875	0.0287261962890625	2700.20804418263
0.9912109375	0.0288055419921875	2700.23016918257
0.995635986328125	0.028900146484375	2700.25229418252
1.00006103515625	0.0289886474609375	2700.27441918246
0.995635986328125	0.028314208984375	2700.29654418241
0.9912109375	0.0276641845703125	2700.31866918235
0.986785888671875	0.0270172119140625	2700.34079418229
0.98236083984375	0.0263885498046875	2700.36291918224
0.977935791015625	0.02576904296875	2700.38504418218
0.9735107421875	0.0251617431640625	2700.40716918213
0.969085693359375	0.0245635986328125	2700.42929418207
0.96466064453125	0.023974609375	2700.45141918202
0.960235595703125	0.0233978271484375	2700.47354418196
0.955810546875	0.022821044921875	2700.4956691819
0.951385498046875	0.0222564697265625	2700.51779418185
0.94696044921875	0.0216888427734375	2700.53991918179
0.942535400390625	0.021142578125	2700.56204418174
0.9381103515625	0.0205963134765625	2700.58416918168
0.933685302734375	0.020062255859375	2700.60629418162
0.92926025390625	0.0195281982421875	2700.62841918157
0.924835205078125	0.01900634765625	2700.65054418151
0.92041015625	0.0184906005859375	2700.67266918146
0.915985107421875	0.0179901123046875	2700.6947941814
0.91156005859375	0.01748046875	2700.71691918135
0.907135009765625	0.016986083984375	2700.73904418129
0.9027099609375	0.016497802734375	2700.76116918123
0.898284912109375	0.016009521484375	2700.78329418118
0.89385986328125	0.0155364990234375	2700.80541918112
0.889434814453125	0.015057373046875	2700.82754418107
0.885009765625	0.01458740234375	2700.84966918101
0.880584716796875	0.0141265869140625	2700.87179418095
0.87615966796875	0.013671875	2700.8939191809
0.871734619140625	0.01322021484375	2700.91604418084
0.8673095703125	0.0127716064453125	2700.93816918079
0.862884521484375	0.012335205078125	2700.96029418073
0.85845947265625	0.0118988037109375	2700.98241918067
0.854034423828125	0.01146240234375	2701.00454418062
0.849609375	0.0110382080078125	2701.02666918056
0.845184326171875	0.0106201171875	2701.04879418051
0.84075927734375	0.0102020263671875	2701.07091918045
0.836334228515625	0.0097900390625	2701.0930441804
0.8319091796875	0.0093780517578125	2701.11516918034
0.827484130859375	0.008978271484375	2701.13729418028
0.82305908203125	0.0085784912109375	2701.15941918023
0.818634033203125	0.0081817626953125	2701.18154418017
0.814208984375	0.0077911376953125	2701.20366918012
0.809783935546875	0.0074005126953125	2701.22579418006
0.80535888671875	0.0070220947265625	2701.24791918
0.800933837890625	0.006640625	2701.27004417995
0.7965087890625	0.0062652587890625	2701.29216917989
0.792083740234375	0.00589599609375	2701.31429417984
0.78765869140625	0.0055267333984375	2701.33641917978
0.783233642578125	0.00516357421875	2701.35854417973
0.77880859375	0.00480316162109375	2701.38066917967
0.774383544921875	0.0044464111328125	2701.40279417961
0.76995849609375	0.00409332275390625	2701.42491917956
0.765533447265625	0.00374267578125	2701.4470441795
0.7611083984375	0.00339508056640625	2701.46916917945
0.756683349609375	0.00305419921875	2701.49129417939
0.75225830078125	0.00271331787109375	2701.51341917933
0.747833251953125	0.00237548828125	2701.53554417928
0.743408203125	0.002041015625	2701.55766917922
0.738983154296875	0.00171142578125	2701.57979417917
0.73455810546875	0.00138275146484375	2701.60191917911
0.730133056640625	0.00105682373046875	2701.62404417906
0.7257080078125	0.00073486328125	2701.646169179
0.721282958984375	0.00041522216796875	2701.66829417894
0.71685791015625	9.86328125E-05	2701.69041917889
0.712432861328125	-0.0002152099609375	2701.71254417883
0.7080078125	-0.000526123046875	2701.73466917878
0.703582763671875	-0.0008343505859375	2701.75679417872
0.69915771484375	-0.00113922119140625	2701.77891917866
0.694732666015625	-0.0014422607421875	2701.80104417861
0.6903076171875	-0.0017425537109375	2701.82316917855
0.685882568359375	-0.002039794921875	2701.8452941785
0.68145751953125	-0.002335205078125	2701.86741917844
0.677032470703125	-0.00262786865234375	2701.88954417838
0.672607421875	-0.00291778564453125	2701.91166917833
0.668182373046875	-0.00320587158203125	2701.93379417827
0.66375732421875	-0.00349029541015625	2701.95591917822
0.659332275390625	-0.003773193359375	2701.97804417816
0.6549072265625	-0.004053955078125	2702.00016917811
0.650482177734375	-0.00433380126953125	2702.02229417805
0.64605712890625	-0.004610595703125	2702.04441917799
0.641632080078125	-0.0048822021484375	2702.06654417794
0.63720703125	-0.0051531982421875	2702.08866917788
0.632781982421875	-0.00542388916015625	2702.11079417783
0.62835693359375	-0.0056915283203125	2702.13291917777
0.623931884765625	-0.00596038818359375	2702.15504417771
0.6195068359375	-0.00622100830078125	2702.17716917766
0.615081787109375	-0.0064605712890625	2702.1992941776
0.61065673828125	-0.006719970703125	2702.22141917755
0.606231689453125	-0.0069732666015625	2702.24354417749
0.601806640625	-0.0072296142578125	2702.26566917744
0.597381591796875	-0.00748291015625	2702.28779417738
0.59295654296875	-0.0077301025390625	2702.30991917732
0.588531494140625	-0.0079742431640625	2702.33204417727
0.5841064453125	-0.0082183837890625	2702.35416917721
0.579681396484375	-0.00845947265625	2702.37629417716
0.57525634765625	-0.0087005615234375	2702.3984191771
0.570831298828125	-0.0089385986328125	2702.42054417704
0.56640625	-0.0091827392578125	2702.44266917699
0.561981201171875	-0.009417724609375	2702.46479417693
0.55755615234375	-0.0096527099609375	2702.48691917688
0.553131103515625	-0.0098907470703125	2702.50904417682
0.5487060546875	-0.01011962890625	2702.53116917676
0.544281005859375	-0.0103485107421875	2702.55329417671
0.53985595703125	-0.010577392578125	2702.57541917665
0.535430908203125	-0.0108001708984375	2702.5975441766
0.531005859375	-0.0110198974609375	2702.61966917654
0.526580810546875	-0.01124267578125	2702.64179417649
0.52215576171875	-0.01146240234375	2702.66391917643
0.517730712890625	-0.011676025390625	2702.68604417637
0.5133056640625	-0.0118896484375	2702.70816917632
0.508880615234375	-0.012103271484375	2702.73029417626
0.50445556640625	-0.01231689453125	2702.75241917621
0.500030517578125	-0.0125244140625	2702.77454417615
0.49560546875	-0.01273193359375	2702.79666917609
0.491180419921875	-0.012945556640625	2702.81879417604
0.48675537109375	-0.013153076171875	2702.84091917598
0.482330322265625	-0.0133544921875	2702.86304417593
0.4779052734375	-0.0135589599609375	2702.88516917587
0.473480224609375	-0.0137603759765625	2702.90729417581
0.46905517578125	-0.01396484375	2702.92941917576
0.464630126953125	-0.014154052734375	2702.9515441757
0.460205078125	-0.014349365234375	2702.97366917565
0.455780029296875	-0.0145477294921875	2702.99579417559
0.45135498046875	-0.0147369384765625	2703.01791917554
0.446929931640625	-0.0149322509765625	2703.04004417548
0.4425048828125	-0.0151275634765625	2703.06216917542
0.438079833984375	-0.01531982421875	2703.08429417537
0.43365478515625	-0.0155120849609375	2703.10641917531
0.429229736328125	-0.015692138671875	2703.12854417526
0.4248046875	-0.01588134765625	2703.1506691752
0.420379638671875	-0.0160614013671875	2703.17279417514
0.41595458984375	-0.016241455078125	2703.19491917509
0.411529541015625	-0.01641845703125	2703.21704417503
0.4071044921875	-0.016595458984375	2703.23916917498
0.402679443359375	-0.016778564453125	2703.26129417492
0.39825439453125	-0.01695556640625	2703.28341917487
0.393829345703125	-0.0171295166015625	2703.30554417481
0.389404296875	-0.0173004150390625	2703.32766917475
0.384979248046875	-0.0174774169921875	2703.3497941747
0.38055419921875	-0.0176483154296875	2703.37191917464
0.376129150390625	-0.0178192138671875	2703.39404417459
0.3717041015625	-0.017987060546875	2703.41616917453
0.367279052734375	-0.01815185546875	2703.43829417447
0.36285400390625	-0.0183197021484375	2703.46041917442
0.358428955078125	-0.0184844970703125	2703.48254417436
0.35400390625	-0.01865234375	2703.50466917431
0.349578857421875	-0.01881103515625	2703.52679417425
0.34515380859375	-0.0189727783203125	2703.5489191742
0.340728759765625	-0.0191314697265625	2703.57104417414
0.3363037109375	-0.0192901611328125	2703.59316917408
0.331878662109375	-0.019439697265625	2703.61529417403
0.32745361328125	-0.0196075439453125	2703.63741917397
0.323028564453125	-0.0197601318359375	2703.65954417392
0.318603515625	-0.0199188232421875	2703.68166917386
0.314178466796875	-0.020068359375	2703.7037941738
0.30975341796875	-0.0202239990234375	2703.72591917375
0.305328369140625	-0.02037353515625	2703.74804417369
0.3009033203125	-0.0205322265625	2703.77016917364
0.296478271484375	-0.0206878662109375	2703.79229417358
0.29205322265625	-0.0208404541015625	2703.81441917352
0.287628173828125	-0.0209808349609375	2703.83654417347
0.283203125	-0.0211212158203125	2703.85866917341
0.278778076171875	-0.021270751953125	2703.88079417336
0.27435302734375	-0.0214202880859375	2703.9029191733
0.269927978515625	-0.02156982421875	2703.92504417325
0.2655029296875	-0.0217193603515625	2703.94716917319
0.261077880859375	-0.02186279296875	2703.96929417313
0.25665283203125	-0.021990966796875	2703.99141917308
0.252227783203125	-0.0221282958984375	2704.01354417302
0.247802734375	-0.0222808837890625	2704.03566917297
0.243377685546875	-0.0224273681640625	2704.05779417291
0.23895263671875	-0.0225677490234375	2704.07991917285
0.234527587890625	-0.022698974609375	2704.1020441728
0.2301025390625	-0.0228363037109375	2704.12416917274
0.225677490234375	-0.022967529296875	2704.14629417269
0.22125244140625	-0.02310791015625	2704.16841917263
0.216827392578125	-0.0232421875	2704.19054417258
0.21240234375	-0.02337646484375	2704.21266917252
0.207977294921875	-0.023504638671875	2704.23479417246
0.20355224609375	-0.0236297607421875	2704.25691917241
0.199127197265625	-0.0237548828125	2704.27904417235
0.1947021484375	-0.02388916015625	2704.3011691723
0.190277099609375	-0.0240325927734375	2704.32329417224
0.18585205078125	-0.024163818359375	2704.34541917218
0.181427001953125	-0.0242950439453125	2704.36754417213
0.177001953125	-0.0244293212890625	2704.38966917207
0.172576904296875	-0.024566650390625	2704.41179417202
0.16815185546875	-0.0246917724609375	2704.43391917196
0.163726806640625	-0.024822998046875	2704.4560441719
0.1593017578125	-0.024957275390625	2704.47816917185
0.154876708984375	-0.0250823974609375	2704.50029417179
0.15045166015625	-0.0252166748046875	2704.52241917174
0.146026611328125	-0.025341796875	2704.54454417168
0.1416015625	-0.0254608154296875	2704.56666917163
0.137176513671875	-0.0255889892578125	2704.58879417157
0.13275146484375	-0.02572021484375	2704.61091917151
0.128326416015625	-0.02584228515625	2704.63304417146
0.1239013671875	-0.0259613037109375	2704.6551691714
0.119476318359375	-0.0260772705078125	2704.67729417135
0.11505126953125	-0.026190185546875	2704.69941917129
0.110626220703125	-0.0263092041015625	2704.72154417123
0.106201171875	-0.02642822265625	2704.74366917118
0.101776123046875	-0.02655029296875	2704.76579417112
0.09735107421875	-0.026666259765625	2704.78791917107
0.092926025390625	-0.026788330078125	2704.81004417101
0.0885009765625	-0.0269012451171875	2704.83216917096
0.084075927734375	-0.0270294189453125	2704.8542941709
0.07965087890625	-0.027142333984375	2704.87641917084
0.075225830078125	-0.0272552490234375	2704.89854417079
0.07080078125	-0.027374267578125	2704.92066917073
0.066375732421875	-0.0274871826171875	2704.94279417068
0.06195068359375	-0.0276031494140625	2704.96491917062
0.057525634765625	-0.027716064453125	2704.98704417056
0.0531005859375	-0.02783203125	2705.00916917051
0.048675537109375	-0.02794189453125	2705.03129417045
0.04425048828125	-0.0280609130859375	2705.0534191704
0.039825439453125	-0.02816162109375	2705.07554417034
0.035400390625	-0.028277587890625	2705.09766917028
0.030975341796875	-0.0283935546875	2705.11979417023
0.02655029296875	-0.02850341796875	2705.14191917017
0.022125244140625	-0.0286163330078125	2705.16404417012
0.0177001953125	-0.0287078857421875	2705.18616917006
0.013275146484375	-0.02882080078125	2705.20829417001
0.00885009765625	-0.02891845703125	2705.23041916995
0.004425048828125	-0.029046630859375	2705.25254416989
0	-0.0291534423828125	2705.27466916984
0.004425048828125	-0.0285003662109375	2705.29679416978
0.00885009765625	-0.0278778076171875	2705.31891916973
0.013275146484375	-0.0272552490234375	2705.34104416967
0.0177001953125	-0.0266448974609375	2705.36316916961
0.022125244140625	-0.0260406494140625	2705.38529416956
0.02655029296875	-0.025445556640625	2705.4074191695
0.030975341796875	-0.0248626708984375	2705.42954416945
0.035400390625	-0.0242828369140625	2705.45166916939
0.039825439453125	-0.0237213134765625	2705.47379416934
0.04425048828125	-0.0231597900390625	2705.49591916928
0.048675537109375	-0.0226043701171875	2705.51804416922
0.0531005859375	-0.02205810546875	2705.54016916917
0.057525634765625	-0.021527099609375	2705.56229416911
0.06195068359375	-0.02099609375	2705.58441916906
0.066375732421875	-0.0204742431640625	2705.606544169
0.07080078125	-0.01995849609375	2705.62866916894
0.075225830078125	-0.0194488525390625	2705.65079416889
0.07965087890625	-0.018951416015625	2705.67291916883
0.084075927734375	-0.0184478759765625	2705.69504416878
0.0885009765625	-0.0179595947265625	2705.71716916872
0.092926025390625	-0.0174652099609375	2705.73929416866
0.09735107421875	-0.0169830322265625	2705.76141916861
0.101776123046875	-0.016510009765625	2705.78354416855
0.106201171875	-0.0160400390625	2705.8056691685
0.110626220703125	-0.015576171875	2705.82779416844
0.11505126953125	-0.0151092529296875	2705.84991916839
0.119476318359375	-0.0146575927734375	2705.87204416833
0.1239013671875	-0.014208984375	2705.89416916827
0.128326416015625	-0.01376953125	2705.91629416822
0.13275146484375	-0.013323974609375	2705.93841916816
0.137176513671875	-0.012884521484375	2705.96054416811
0.1416015625	-0.012457275390625	2705.98266916805
0.146026611328125	-0.01202392578125	2706.00479416799
0.15045166015625	-0.011602783203125	2706.02691916794
0.154876708984375	-0.0111846923828125	2706.04904416788
0.1593017578125	-0.0107696533203125	2706.07116916783
0.163726806640625	-0.0103607177734375	2706.09329416777
0.16815185546875	-0.0099517822265625	2706.11541916772
0.172576904296875	-0.009552001953125	2706.13754416766
0.177001953125	-0.0091552734375	2706.1596691676
0.181427001953125	-0.0087615966796875	2706.18179416755
0.18585205078125	-0.0083709716796875	2706.20391916749
0.190277099609375	-0.0079803466796875	2706.22604416744
0.1947021484375	-0.007598876953125	2706.24816916738
0.199127197265625	-0.0072174072265625	2706.27029416732
0.20355224609375	-0.006842041015625	2706.29241916727
0.207977294921875	-0.0064697265625	2706.31454416721
0.21240234375	-0.0061004638671875	2706.33666916716
0.216827392578125	-0.005731201171875	2706.3587941671
0.22125244140625	-0.0053680419921875	2706.38091916705
0.225677490234375	-0.0050079345703125	2706.40304416699
0.2301025390625	-0.00465087890625	2706.42516916693
0.234527587890625	-0.00429840087890625	2706.44729416688
0.23895263671875	-0.003946533203125	2706.46941916682
0.243377685546875	-0.003599853515625	2706.49154416677
0.247802734375	-0.0032562255859375	2706.51366916671
0.252227783203125	-0.0029241943359375	2706.53579416665
0.25665283203125	-0.00258575439453125	2706.5579191666
0.261077880859375	-0.002249755859375	2706.58004416654
0.2655029296875	-0.0019158935546875	2706.60216916649
0.269927978515625	-0.00158477783203125	2706.62429416643
0.27435302734375	-0.00125701904296875	2706.64641916637
0.278778076171875	-0.0009320068359375	2706.66854416632
0.283203125	-0.00060943603515625	2706.69066916626
0.287628173828125	-0.0002891845703125	2706.71279416621
0.29205322265625	2.79693603515625E-05	2706.73491916615
0.296478271484375	0.00034307861328125	2706.7570441661
0.3009033203125	0.0006549072265625	2706.77916916604
0.305328369140625	0.0009649658203125	2706.80129416598
0.30975341796875	0.00127288818359375	2706.82341916593
0.314178466796875	0.00158050537109375	2706.84554416587
0.318603515625	0.001883544921875	2706.86766916582
0.323028564453125	0.00218353271484375	2706.88979416576
0.32745361328125	0.00248260498046875	2706.9119191657
0.331878662109375	0.00277923583984375	2706.93404416565
0.3363037109375	0.0030718994140625	2706.95616916559
0.340728759765625	0.0033648681640625	2706.97829416554
0.34515380859375	0.00365325927734375	2707.00041916548
0.349578857421875	0.003941650390625	2707.02254416543
0.35400390625	0.00422515869140625	2707.04466916537
0.358428955078125	0.00450775146484375	2707.06679416531
0.36285400390625	0.00478851318359375	2707.08891916526
0.367279052734375	0.0050677490234375	2707.1110441652
0.3717041015625	0.005343017578125	2707.13316916515
0.376129150390625	0.0056195068359375	2707.15529416509
0.38055419921875	0.00589263916015625	2707.17741916503
0.384979248046875	0.00616455078125	2707.19954416498
0.389404296875	0.0064239501953125	2707.22166916492
0.393829345703125	0.006689453125	2707.24379416487
0.39825439453125	0.0069549560546875	2707.26591916481
0.402679443359375	0.0072113037109375	2707.28804416475
0.4071044921875	0.0074737548828125	2707.3101691647
0.411529541015625	0.00772705078125	2707.33229416464
0.41595458984375	0.0079833984375	2707.35441916459
0.420379638671875	0.0082366943359375	2707.37654416453
0.4248046875	0.008489990234375	2707.39866916448
0.429229736328125	0.0087371826171875	2707.42079416442
0.43365478515625	0.008990478515625	2707.44291916436
0.438079833984375	0.009234619140625	2707.46504416431
0.4425048828125	0.009478759765625	2707.48716916425
0.446929931640625	0.009722900390625	2707.5092941642
0.45135498046875	0.0099639892578125	2707.53141916414
0.455780029296875	0.010205078125	2707.55354416408
0.460205078125	0.010443115234375	2707.57566916403
0.464630126953125	0.0106781005859375	2707.59779416397
0.46905517578125	0.010906982421875	2707.61991916392
0.473480224609375	0.011138916015625	2707.64204416386
0.4779052734375	0.01136474609375	2707.66416916381
0.482330322265625	0.0115966796875	2707.68629416375
0.48675537109375	0.0118194580078125	2707.70841916369
0.491180419921875	0.01204833984375	2707.73054416364
0.49560546875	0.012274169921875	2707.75266916358
0.500030517578125	0.0124908447265625	2707.77479416353
0.50445556640625	0.0127105712890625	2707.79691916347
0.508880615234375	0.0129302978515625	2707.81904416341
0.5133056640625	0.0131500244140625	2707.84116916336
0.517730712890625	0.0133575439453125	2707.8632941633
0.52215576171875	0.0135711669921875	2707.88541916325
0.526580810546875	0.01378173828125	2707.90754416319
0.531005859375	0.0139923095703125	2707.92966916313
0.535430908203125	0.014190673828125	2707.95179416308
0.53985595703125	0.0144012451171875	2707.97391916302
0.544281005859375	0.0146087646484375	2707.99604416297
0.5487060546875	0.0148101806640625	2708.01816916291
0.553131103515625	0.0150146484375	2708.04029416286
0.55755615234375	0.0152130126953125	2708.0624191628
0.561981201171875	0.0154144287109375	2708.08454416274
0.56640625	0.0156097412109375	2708.10666916269
0.570831298828125	0.015802001953125	2708.12879416263
0.57525634765625	0.01600341796875	2708.15091916258
0.579681396484375	0.0161956787109375	2708.17304416252
0.5841064453125	0.0163909912109375	2708.19516916246
0.588531494140625	0.01658935546875	2708.21729416241
0.59295654296875	0.0167755126953125	2708.23941916235
0.597381591796875	0.016961669921875	2708.2615441623
0.601806640625	0.0171478271484375	2708.28366916224
0.606231689453125	0.0173309326171875	2708.30579416219
0.61065673828125	0.01751708984375	2708.32791916213
0.615081787109375	0.017694091796875	2708.35004416207
0.6195068359375	0.0178802490234375	2708.37216916202
0.623931884765625	0.0180572509765625	2708.39429416196
0.62835693359375	0.018231201171875	2708.41641916191
0.632781982421875	0.018408203125	2708.43854416185
0.63720703125	0.01859130859375	2708.46066916179
0.641632080078125	0.0187652587890625	2708.48279416174
0.64605712890625	0.018939208984375	2708.50491916168
0.650482177734375	0.0191070556640625	2708.52704416163
0.6549072265625	0.01927490234375	2708.54916916157
0.659332275390625	0.01944580078125	2708.57129416151
0.66375732421875	0.0196075439453125	2708.59341916146
0.668182373046875	0.019781494140625	2708.6155441614
0.672607421875	0.0199462890625	2708.63766916135
0.677032470703125	0.0201171875	2708.65979416129
0.68145751953125	0.02027587890625	2708.68191916124
0.685882568359375	0.020428466796875	2708.70404416118
0.6903076171875	0.0205841064453125	2708.72616916112
0.694732666015625	0.0207489013671875	2708.74829416107
0.69915771484375	0.020904541015625	2708.77041916101
0.703582763671875	0.0210601806640625	2708.79254416096
0.7080078125	0.0212158203125	2708.8146691609
0.712432861328125	0.0213714599609375	2708.83679416084
0.71685791015625	0.0215301513671875	2708.85891916079
0.721282958984375	0.0216827392578125	2708.88104416073
0.7257080078125	0.0218353271484375	2708.90316916068
0.730133056640625	0.0219818115234375	2708.92529416062
0.73455810546875	0.022125244140625	2708.94741916057
0.738983154296875	0.0222808837890625	2708.96954416051
0.743408203125	0.0224212646484375	2708.99166916045
0.747833251953125	0.0225555419921875	2709.0137941604
0.75225830078125	0.0226959228515625	2709.03591916034
0.756683349609375	0.02283935546875	2709.05804416029
0.7611083984375	0.022979736328125	2709.08016916023
0.765533447265625	0.02313232421875	2709.10229416017
0.76995849609375	0.023272705078125	2709.12441916012
0.774383544921875	0.0234039306640625	2709.14654416006
0.77880859375	0.023529052734375	2709.16866916001
0.783233642578125	0.023663330078125	2709.19079415995
0.78765869140625	0.0237884521484375	2709.2129191599
0.792083740234375	0.0239227294921875	2709.23504415984
0.7965087890625	0.0240570068359375	2709.25716915978
0.800933837890625	0.0241851806640625	2709.27929415973
0.80535888671875	0.0243072509765625	2709.30141915967
0.809783935546875	0.0244384765625	2709.32354415962
0.814208984375	0.0245697021484375	2709.34566915956
0.818634033203125	0.024688720703125	2709.3677941595
0.82305908203125	0.0248199462890625	2709.38991915945
0.827484130859375	0.0249481201171875	2709.41204415939
0.8319091796875	0.02506103515625	2709.43416915934
0.836334228515625	0.025177001953125	2709.45629415928
0.84075927734375	0.0253021240234375	2709.47841915922
0.845184326171875	0.0254150390625	2709.50054415917
0.849609375	0.025537109375	2709.52266915911
0.854034423828125	0.0256500244140625	2709.54479415906
0.85845947265625	0.02576904296875	2709.566919159
0.862884521484375	0.02587890625	2709.58904415895
0.8673095703125	0.0259979248046875	2709.61116915889
0.871734619140625	0.0261138916015625	2709.63329415883
0.87615966796875	0.026226806640625	2709.65541915878
0.880584716796875	0.02633056640625	2709.67754415872
0.885009765625	0.0264373779296875	2709.69966915867
0.889434814453125	0.0265472412109375	2709.72179415861
0.89385986328125	0.026654052734375	2709.74391915855
0.898284912109375	0.0267730712890625	2709.7660441585
0.9027099609375	0.0268768310546875	2709.78816915844
0.907135009765625	0.0269866943359375	2709.81029415839
0.91156005859375	0.0270904541015625	2709.83241915833
0.915985107421875	0.027197265625	2709.85454415828
0.92041015625	0.0272918701171875	2709.87666915822
0.924835205078125	0.02738037109375	2709.89879415816
0.92926025390625	0.027484130859375	2709.92091915811
0.933685302734375	0.0275787353515625	2709.94304415805
0.9381103515625	0.0276824951171875	2709.965169158
0.942535400390625	0.0277618408203125	2709.98729415794
0.94696044921875	0.027862548828125	2710.00941915788
0.951385498046875	0.0279449462890625	2710.03154415783
0.955810546875	0.028045654296875	2710.05366915777
0.960235595703125	0.028131103515625	2710.07579415772
0.96466064453125	0.02822265625	2710.09791915766
0.969085693359375	0.028314208984375	2710.1200441576
0.9735107421875	0.0284027099609375	2710.14216915755
0.977935791015625	0.0284881591796875	2710.16429415749
0.98236083984375	0.0285736083984375	2710.18641915744
0.986785888671875	0.0286651611328125	2710.20854415738
0.9912109375	0.02874755859375	2710.23066915733
