Potential applied (V)	WE(1).Current (A)	Time (s)
0.004425048828125	-0.005572509765625	8.449919978666
0.00885009765625	-0.00461395263671875	9.33492997643157
0.013275146484375	-0.00382293701171875	10.2199399741971
0.0177001953125	-0.00316253662109375	11.1049499719627
0.022125244140625	-0.00260406494140625	11.9899599697283
0.02655029296875	-0.00213134765625	12.8749699674938
0.030975341796875	-0.00173614501953125	13.7599799652594
0.035400390625	-0.00139251708984375	14.644989963025
0.039825439453125	-0.001097412109375	15.5299999607905
0.04425048828125	-0.000843505859375	16.4150099585561
0.048675537109375	-0.0006256103515625	17.3000199563216
0.0531005859375	-0.000437957763671875	18.1850299540872
0.057525634765625	-0.00027569580078125	19.0700399518528
0.06195068359375	-0.000135406494140625	19.9550499496183
0.066375732421875	-1.38336181640625E-05	20.8400599473839
0.07080078125	9.2041015625E-05	21.7250699451495
0.075225830078125	0.0001842041015625	22.610079942915
0.07965087890625	0.000264068603515625	23.4950899406806
0.084075927734375	0.00033428955078125	24.3800999384462
0.0885009765625	0.000396026611328125	25.2651099362117
0.092926025390625	0.000449920654296875	26.1501199339773
0.09735107421875	0.000497833251953125	27.0351299317429
0.101776123046875	0.000539947509765625	27.9201399295084
0.106201171875	0.0005767822265625	28.805149927274
0.110626220703125	0.0006097412109375	29.6901599250396
0.11505126953125	0.00063873291015625	30.5751699228051
0.119476318359375	0.00066436767578125	31.4601799205707
0.1239013671875	0.0006878662109375	32.3451899183362
0.128326416015625	0.0007086181640625	33.2301999161018
0.13275146484375	0.0007281494140625	34.1152099138674
0.137176513671875	0.00074493408203125	35.0002199116329
0.1416015625	0.00076141357421875	35.8852299093985
0.146026611328125	0.0007757568359375	36.7702399071641
0.15045166015625	0.00078826904296875	37.6552499049296
0.154876708984375	0.00080078125	38.5402599026952
0.1593017578125	0.00081146240234375	39.4252699004608
0.163726806640625	0.0008221435546875	40.3102798982263
0.16815185546875	0.0008319091796875	41.1952898959919
0.172576904296875	0.000841064453125	42.0802998937575
0.177001953125	0.000849609375	42.965309891523
0.181427001953125	0.00085784912109375	43.8503198892886
0.18585205078125	0.00086517333984375	44.7353298870541
0.190277099609375	0.00087249755859375	45.6203398848197
0.1947021484375	0.00087921142578125	46.5053498825853
0.199127197265625	0.00088623046875	47.3903598803508
0.20355224609375	0.0008929443359375	48.2753698781164
0.207977294921875	0.0008990478515625	49.160379875882
0.21240234375	0.0009051513671875	50.0453898736475
0.216827392578125	0.0009112548828125	50.9303998714131
0.22125244140625	0.000916748046875	51.8154098691787
0.225677490234375	0.00092315673828125	52.7004198669442
0.2301025390625	0.00092864990234375	53.5854298647098
0.234527587890625	0.0009344482421875	54.4704398624754
0.23895263671875	0.0009393310546875	55.3554498602409
0.243377685546875	0.00094512939453125	56.2404598580065
0.247802734375	0.000950927734375	57.1254698557721
0.252227783203125	0.00095611572265625	58.0104798535376
0.25665283203125	0.0009613037109375	58.8954898513032
0.261077880859375	0.000965576171875	59.7804998490687
0.2655029296875	0.00097198486328125	60.6655098468343
0.269927978515625	0.000977783203125	61.5505198445999
0.27435302734375	0.0009832763671875	62.4355298423654
0.278778076171875	0.0009893798828125	63.320539840131
0.283203125	0.00099395751953125	64.2055498378966
0.287628173828125	0.00099945068359375	65.0905598356621
0.29205322265625	0.0010052490234375	65.9755698334277
0.296478271484375	0.00101104736328125	66.8605798311933
0.3009033203125	0.00101593017578125	67.7455898289588
0.305328369140625	0.00102081298828125	68.6305998267244
0.30975341796875	0.0010272216796875	69.51560982449
0.314178466796875	0.00103424072265625	70.4006198222555
0.318603515625	0.00103973388671875	71.2856298200211
0.323028564453125	0.00104522705078125	72.1706398177867
0.32745361328125	0.00105133056640625	73.0556498155522
0.331878662109375	0.0010565185546875	73.9406598133178
0.3363037109375	0.00106170654296875	74.8256698110833
0.340728759765625	0.00106781005859375	75.7106798088489
0.34515380859375	0.0010736083984375	76.5956898066145
0.349578857421875	0.0010791015625	77.48069980438
0.35400390625	0.00108367919921875	78.3657098021456
0.358428955078125	0.00108978271484375	79.2507197999112
0.36285400390625	0.001094970703125	80.1357297976767
0.367279052734375	0.00110015869140625	81.0207397954423
0.3717041015625	0.00110565185546875	81.9057497932079
0.376129150390625	0.00111053466796875	82.7907597909734
0.38055419921875	0.00111572265625	83.675769788739
0.384979248046875	0.0011199951171875	84.5607797865046
0.389404296875	0.00112457275390625	85.4457897842701
0.393829345703125	0.00112823486328125	86.3307997820357
0.39825439453125	0.00113250732421875	87.2158097798012
0.402679443359375	0.001136474609375	88.1008197775668
0.4071044921875	0.00114013671875	88.9858297753324
0.411529541015625	0.00114288330078125	89.8708397730979
0.41595458984375	0.00114532470703125	90.7558497708635
0.420379638671875	0.00114898681640625	91.6408597686291
0.4248046875	0.00115142822265625	92.5258697663946
0.429229736328125	0.0011541748046875	93.4108797641602
0.43365478515625	0.00115570068359375	94.2958897619258
0.438079833984375	0.0011578369140625	95.1808997596913
0.4425048828125	0.0011590576171875	96.0659097574569
0.446929931640625	0.001160888671875	96.9509197552225
0.45135498046875	0.00116302490234375	97.835929752988
0.455780029296875	0.00116485595703125	98.7209397507536
0.460205078125	0.0011663818359375	99.6059497485192
0.464630126953125	0.00116790771484375	100.490959746285
0.46905517578125	0.00116912841796875	101.37596974405
0.473480224609375	0.001170654296875	102.260979741816
0.4779052734375	0.00117218017578125	103.145989739581
0.482330322265625	0.00117431640625	104.030999737347
0.48675537109375	0.0011749267578125	104.916009735113
0.491180419921875	0.0011761474609375	105.801019732878
0.49560546875	0.00117706298828125	106.686029730644
0.500030517578125	0.00117828369140625	107.571039728409
0.50445556640625	0.00117919921875	108.456049726175
0.508880615234375	0.00117950439453125	109.34105972394
0.5133056640625	0.001180419921875	110.226069721706
0.517730712890625	0.00118133544921875	111.111079719471
0.52215576171875	0.0011822509765625	111.996089717237
0.526580810546875	0.0011822509765625	112.881099715003
0.531005859375	0.00118255615234375	113.766109712768
0.535430908203125	0.0011834716796875	114.651119710534
0.53985595703125	0.0011834716796875	115.536129708299
0.544281005859375	0.00118377685546875	116.421139706065
0.5487060546875	0.0011834716796875	117.30614970383
0.553131103515625	0.001181640625	118.191159701596
0.55755615234375	0.001181640625	119.076169699362
0.561981201171875	0.0011822509765625	119.961179697127
0.56640625	0.001181640625	120.846189694893
0.570831298828125	0.001181640625	121.731199692658
0.57525634765625	0.00118072509765625	122.616209690424
0.579681396484375	0.001180419921875	123.501219688189
0.5841064453125	0.001180419921875	124.386229685955
0.588531494140625	0.00117889404296875	125.271239683721
0.59295654296875	0.00117889404296875	126.156249681486
0.597381591796875	0.0011785888671875	127.041259679252
0.601806640625	0.0011785888671875	127.926269677017
0.606231689453125	0.00117889404296875	128.811279674783
0.61065673828125	0.0011798095703125	129.696289672548
0.615081787109375	0.00117950439453125	130.581299670314
0.6195068359375	0.0011798095703125	131.466309668079
0.623931884765625	0.001180419921875	132.351319665845
0.62835693359375	0.001182861328125	133.236329663611
0.632781982421875	0.00118377685546875	134.121339661376
0.63720703125	0.00118499755859375	135.006349659142
0.641632080078125	0.00118560791015625	135.891359656907
0.64605712890625	0.00118621826171875	136.776369654673
0.650482177734375	0.00118865966796875	137.661379652438
0.6549072265625	0.0011895751953125	138.546389650204
0.659332275390625	0.00119232177734375	139.43139964797
0.66375732421875	0.001195068359375	140.316409645735
0.668182373046875	0.00119781494140625	141.201419643501
0.672607421875	0.00120025634765625	142.086429641266
0.677032470703125	0.0012042236328125	142.971439639032
0.68145751953125	0.00120849609375	143.856449636797
0.685882568359375	0.00121185302734375	144.741459634563
0.6903076171875	0.00121612548828125	145.626469632329
0.694732666015625	0.00122161865234375	146.511479630094
0.69915771484375	0.00122772216796875	147.39648962786
0.703582763671875	0.00123291015625	148.281499625625
0.7080078125	0.00123809814453125	149.166509623391
0.712432861328125	0.00124542236328125	150.051519621156
0.71685791015625	0.00125152587890625	150.936529618922
0.721282958984375	0.0012591552734375	151.821539616687
0.7257080078125	0.00126708984375	152.706549614453
0.730133056640625	0.00127593994140625	153.591559612219
0.73455810546875	0.00128509521484375	154.476569609984
0.738983154296875	0.00129547119140625	155.36157960775
0.743408203125	0.00130523681640625	156.246589605515
0.747833251953125	0.00131622314453125	157.131599603281
0.75225830078125	0.001328125	158.016609601046
0.756683349609375	0.0013409423828125	158.901619598812
0.7611083984375	0.00135406494140625	159.786629596578
0.765533447265625	0.0013690185546875	160.671639594343
0.76995849609375	0.00138397216796875	161.556649592109
0.774383544921875	0.00140106201171875	162.441659589874
0.77880859375	0.00141815185546875	163.32666958764
0.783233642578125	0.001435546875	164.211679585405
0.78765869140625	0.00145599365234375	165.096689583171
0.792083740234375	0.00147613525390625	165.981699580936
0.7965087890625	0.00149810791015625	166.866709578702
0.800933837890625	0.00152191162109375	167.751719576468
0.80535888671875	0.00154632568359375	168.636729574233
0.809783935546875	0.00157135009765625	169.521739571999
0.814208984375	0.00159881591796875	170.406749569764
0.818634033203125	0.00162811279296875	171.29175956753
0.82305908203125	0.0016571044921875	172.176769565295
0.827484130859375	0.0016900634765625	173.061779563061
0.8319091796875	0.001722412109375	173.946789560827
0.836334228515625	0.00175689697265625	174.831799558592
0.84075927734375	0.00179412841796875	175.716809556358
0.845184326171875	0.00183197021484375	176.601819554123
0.849609375	0.00187164306640625	177.486829551889
0.854034423828125	0.00191253662109375	178.371839549654
0.85845947265625	0.00195587158203125	179.25684954742
0.862884521484375	0.00200042724609375	180.141859545186
0.8673095703125	0.0020458984375	181.026869542951
0.871734619140625	0.00209442138671875	181.911879540717
0.87615966796875	0.00214202880859375	182.796889538482
0.880584716796875	0.0021942138671875	183.681899536248
0.885009765625	0.00224578857421875	184.566909534013
0.889434814453125	0.0022991943359375	185.451919531779
0.89385986328125	0.00235382080078125	186.336929529544
0.898284912109375	0.00240997314453125	187.22193952731
0.9027099609375	0.0024664306640625	188.106949525076
0.907135009765625	0.002525634765625	188.991959522841
0.91156005859375	0.0025860595703125	189.876969520607
0.915985107421875	0.002646484375	190.761979518372
0.92041015625	0.00270751953125	191.646989516138
0.924835205078125	0.00277130126953125	192.531999513903
0.92926025390625	0.0028338623046875	193.417009511669
0.933685302734375	0.002900390625	194.302019509435
0.9381103515625	0.00296875	195.1870295072
0.942535400390625	0.00303466796875	196.072039504966
0.94696044921875	0.0031005859375	196.957049502731
0.951385498046875	0.00316741943359375	197.842059500497
0.955810546875	0.00323486328125	198.727069498262
0.960235595703125	0.00330535888671875	199.612079496028
0.96466064453125	0.00337493896484375	200.497089493794
0.969085693359375	0.0034442138671875	201.382099491559
0.9735107421875	0.00351654052734375	202.267109489325
0.977935791015625	0.00358428955078125	203.15211948709
0.98236083984375	0.003653564453125	204.037129484856
0.986785888671875	0.0037249755859375	204.922139482621
0.9912109375	0.00379669189453125	205.807149480387
0.995635986328125	0.00386688232421875	206.692159478152
1.00006103515625	0.00393646240234375	207.577169475918
0.995635986328125	0.00357452392578125	208.462179473684
0.9912109375	0.0032574462890625	209.347189471449
0.986785888671875	0.0029656982421875	210.232199469215
0.98236083984375	0.0026983642578125	211.11720946698
0.977935791015625	0.00245025634765625	212.002219464746
0.9735107421875	0.0022186279296875	212.887229462511
0.969085693359375	0.002000732421875	213.772239460277
0.96466064453125	0.00179718017578125	214.657249458043
0.960235595703125	0.00160308837890625	215.542259455808
0.955810546875	0.0014202880859375	216.427269453574
0.951385498046875	0.00124725341796875	217.312279451339
0.94696044921875	0.001083984375	218.197289449105
0.942535400390625	0.00092803955078125	219.08229944687
0.9381103515625	0.000780029296875	219.967309444636
0.933685302734375	0.00063751220703125	220.852319442401
0.92926025390625	0.00050384521484375	221.737329440167
0.924835205078125	0.00037689208984375	222.622339437933
0.92041015625	0.000256256103515625	223.507349435698
0.915985107421875	0.000141754150390625	224.392359433464
0.91156005859375	3.2757568359375E-05	225.277369431229
0.907135009765625	-7.0770263671875E-05	226.162379428995
0.9027099609375	-0.00016943359375	227.04738942676
0.898284912109375	-0.000262054443359375	227.932399424526
0.89385986328125	-0.00035064697265625	228.817409422292
0.889434814453125	-0.000434234619140625	229.702419420057
0.885009765625	-0.00051385498046875	230.587429417823
0.880584716796875	-0.000588836669921875	231.472439415588
0.87615966796875	-0.000659393310546875	232.357449413354
0.871734619140625	-0.00072601318359375	233.242459411119
0.8673095703125	-0.00078948974609375	234.127469408885
0.862884521484375	-0.00084869384765625	235.012479406651
0.85845947265625	-0.0009033203125	235.897489404416
0.854034423828125	-0.00095550537109375	236.782499402182
0.849609375	-0.00100494384765625	237.667509399947
0.845184326171875	-0.00105072021484375	238.552519397713
0.84075927734375	-0.001092529296875	239.437529395478
0.836334228515625	-0.0011309814453125	240.322539393244
0.8319091796875	-0.00116668701171875	241.207549391009
0.827484130859375	-0.00120025634765625	242.092559388775
0.82305908203125	-0.0012310791015625	242.977569386541
0.818634033203125	-0.00125823974609375	243.862579384306
0.814208984375	-0.00128387451171875	244.747589382072
0.809783935546875	-0.0013067626953125	245.632599379837
0.80535888671875	-0.001328125	246.517609377603
0.800933837890625	-0.0013458251953125	247.402619375368
0.7965087890625	-0.0013616943359375	248.287629373134
0.792083740234375	-0.00137542724609375	249.1726393709
0.78765869140625	-0.00138702392578125	250.057649368665
0.783233642578125	-0.00139678955078125	250.942659366431
0.77880859375	-0.00140380859375	251.827669364196
0.774383544921875	-0.00140960693359375	252.712679361962
0.76995849609375	-0.00141387939453125	253.597689359727
0.765533447265625	-0.00141754150390625	254.482699357493
0.7611083984375	-0.00141815185546875	255.367709355259
0.756683349609375	-0.001419677734375	256.252719353024
0.75225830078125	-0.00141845703125	257.13772935079
0.747833251953125	-0.00141754150390625	258.022739348555
0.743408203125	-0.00141357421875	258.907749346321
0.738983154296875	-0.0014093017578125	259.792759344086
0.73455810546875	-0.00140533447265625	260.677769341852
0.730133056640625	-0.0014013671875	261.562779339617
0.7257080078125	-0.00139495849609375	262.447789337383
0.721282958984375	-0.001387939453125	263.332799335149
0.71685791015625	-0.001380615234375	264.217809332914
0.712432861328125	-0.00137420654296875	265.10281933068
0.7080078125	-0.00136627197265625	265.987829328445
0.703582763671875	-0.0013580322265625	266.872839326211
0.69915771484375	-0.0013494873046875	267.757849323976
0.694732666015625	-0.00134033203125	268.642859321742
0.6903076171875	-0.0013323974609375	269.527869319508
0.685882568359375	-0.0013238525390625	270.412879317273
0.68145751953125	-0.00131622314453125	271.297889315039
0.677032470703125	-0.00130706787109375	272.182899312804
0.672607421875	-0.0012994384765625	273.06790931057
0.668182373046875	-0.001290283203125	273.952919308335
0.66375732421875	-0.00128204345703125	274.837929306101
0.659332275390625	-0.00127349853515625	275.722939303866
0.6549072265625	-0.00126678466796875	276.607949301632
0.650482177734375	-0.00125946044921875	277.492959299398
0.64605712890625	-0.00125213623046875	278.377969297163
0.641632080078125	-0.00124542236328125	279.262979294929
0.63720703125	-0.00123870849609375	280.147989292694
0.632781982421875	-0.00123199462890625	281.03299929046
0.62835693359375	-0.0012261962890625	281.918009288225
0.623931884765625	-0.00122283935546875	282.803019285991
0.6195068359375	-0.00121612548828125	283.688029283757
0.615081787109375	-0.00121063232421875	284.573039281522
0.61065673828125	-0.0012054443359375	285.458049279288
0.606231689453125	-0.00120025634765625	286.343059277053
0.601806640625	-0.00119598388671875	287.228069274819
0.597381591796875	-0.0011920166015625	288.113079272584
0.59295654296875	-0.00118804931640625	288.99808927035
0.588531494140625	-0.00118408203125	289.883099268116
0.5841064453125	-0.001180419921875	290.768109265881
0.579681396484375	-0.00117828369140625	291.653119263647
0.57525634765625	-0.00117523193359375	292.538129261412
0.570831298828125	-0.00117279052734375	293.423139259178
0.56640625	-0.00117156982421875	294.308149256943
0.561981201171875	-0.00116943359375	295.193159254709
0.55755615234375	-0.00116790771484375	296.078169252474
0.553131103515625	-0.0011663818359375	296.96317925024
0.5487060546875	-0.0011651611328125	297.848189248006
0.544281005859375	-0.00116363525390625	298.733199245771
0.53985595703125	-0.001163330078125	299.618209243537
0.535430908203125	-0.001163330078125	300.503219241302
0.531005859375	-0.00116302490234375	301.388229239068
0.526580810546875	-0.001163330078125	302.273239236833
0.52215576171875	-0.00116302490234375	303.158249234599
0.517730712890625	-0.001163330078125	304.043259232365
0.5133056640625	-0.0011639404296875	304.92826923013
0.508880615234375	-0.00116485595703125	305.813279227896
0.50445556640625	-0.00116607666015625	306.698289225661
0.500030517578125	-0.00116668701171875	307.583299223427
0.49560546875	-0.00116851806640625	308.468309221192
0.491180419921875	-0.00116912841796875	309.353319218958
0.48675537109375	-0.0011712646484375	310.238329216724
0.482330322265625	-0.001171875	311.123339214489
0.4779052734375	-0.00117462158203125	312.008349212255
0.473480224609375	-0.00117645263671875	312.89335921002
0.46905517578125	-0.0011785888671875	313.778369207786
0.464630126953125	-0.00118011474609375	314.663379205551
0.460205078125	-0.001182861328125	315.548389203317
0.455780029296875	-0.0011846923828125	316.433399201082
0.45135498046875	-0.00118621826171875	317.318409198848
0.446929931640625	-0.00118743896484375	318.203419196614
0.4425048828125	-0.00118927001953125	319.088429194379
0.438079833984375	-0.00119110107421875	319.973439192145
0.43365478515625	-0.00119384765625	320.85844918991
0.429229736328125	-0.0011944580078125	321.743459187676
0.4248046875	-0.0011956787109375	322.628469185441
0.420379638671875	-0.0011968994140625	323.513479183207
0.41595458984375	-0.00119842529296875	324.398489180973
0.411529541015625	-0.00120086669921875	325.283499178738
0.4071044921875	-0.001202392578125	326.168509176504
0.402679443359375	-0.00120361328125	327.053519174269
0.39825439453125	-0.00120330810546875	327.938529172035
0.393829345703125	-0.00120513916015625	328.8235391698
0.389404296875	-0.00120635986328125	329.708549167566
0.384979248046875	-0.0012078857421875	330.593559165331
0.38055419921875	-0.00120819091796875	331.478569163097
0.376129150390625	-0.00120941162109375	332.363579160863
0.3717041015625	-0.00121124267578125	333.248589158628
0.367279052734375	-0.0012127685546875	334.133599156394
0.36285400390625	-0.001214599609375	335.018609154159
0.358428955078125	-0.00121612548828125	335.903619151925
0.35400390625	-0.00121826171875	336.78862914969
0.349578857421875	-0.00121917724609375	337.673639147456
0.34515380859375	-0.001220703125	338.558649145222
0.340728759765625	-0.00122222900390625	339.443659142987
0.3363037109375	-0.00122467041015625	340.328669140753
0.331878662109375	-0.0012261962890625	341.213679138518
0.32745361328125	-0.00122711181640625	342.098689136284
0.323028564453125	-0.00122955322265625	342.983699134049
0.318603515625	-0.00123199462890625	343.868709131815
0.314178466796875	-0.001234130859375	344.753719129581
0.30975341796875	-0.0012371826171875	345.638729127346
0.305328369140625	-0.0012384033203125	346.523739125112
0.3009033203125	-0.00124053955078125	347.408749122877
0.296478271484375	-0.00124298095703125	348.293759120643
0.29205322265625	-0.0012457275390625	349.178769118408
0.287628173828125	-0.00124786376953125	350.063779116174
0.283203125	-0.00124969482421875	350.948789113939
0.278778076171875	-0.00125244140625	351.833799111705
0.27435302734375	-0.0012548828125	352.718809109471
0.269927978515625	-0.00125762939453125	353.603819107236
0.2655029296875	-0.00126007080078125	354.488829105002
0.261077880859375	-0.00126312255859375	355.373839102767
0.25665283203125	-0.001265869140625	356.258849100533
0.252227783203125	-0.001268310546875	357.143859098298
0.247802734375	-0.0012713623046875	358.028869096064
0.243377685546875	-0.00127410888671875	358.91387909383
0.23895263671875	-0.00127685546875	359.798889091595
0.234527587890625	-0.001279296875	360.683899089361
0.2301025390625	-0.00128204345703125	361.568909087126
0.225677490234375	-0.001285400390625	362.453919084892
0.22125244140625	-0.00128814697265625	363.338929082657
0.216827392578125	-0.00129150390625	364.223939080423
0.21240234375	-0.0012939453125	365.108949078189
0.207977294921875	-0.00129669189453125	365.993959075954
0.20355224609375	-0.00130035400390625	366.87896907372
0.199127197265625	-0.00130279541015625	367.763979071485
0.1947021484375	-0.0013055419921875	368.648989069251
0.190277099609375	-0.00130859375	369.533999067016
0.18585205078125	-0.0013116455078125	370.419009064782
0.181427001953125	-0.00131439208984375	371.304019062547
0.177001953125	-0.0013177490234375	372.189029060313
0.172576904296875	-0.00132049560546875	373.074039058079
0.16815185546875	-0.00132293701171875	373.959049055844
0.163726806640625	-0.001326904296875	374.84405905361
0.1593017578125	-0.00132965087890625	375.729069051375
0.154876708984375	-0.00133209228515625	376.614079049141
0.15045166015625	-0.001336669921875	377.499089046906
0.146026611328125	-0.00134033203125	378.384099044672
0.1416015625	-0.00134368896484375	379.269109042438
0.137176513671875	-0.00134765625	380.154119040203
0.13275146484375	-0.0013525390625	381.039129037969
0.128326416015625	-0.00135589599609375	381.924139035734
0.1239013671875	-0.00135986328125	382.8091490335
0.119476318359375	-0.00136444091796875	383.694159031265
0.11505126953125	-0.001368408203125	384.579169029031
0.110626220703125	-0.00137359619140625	385.464179026797
0.106201171875	-0.00137847900390625	386.349189024562
0.101776123046875	-0.00138336181640625	387.234199022328
0.09735107421875	-0.0013885498046875	388.119209020093
0.092926025390625	-0.00139434814453125	389.004219017859
0.0885009765625	-0.00140045166015625	389.889229015624
0.084075927734375	-0.001405029296875	390.77423901339
0.07965087890625	-0.00141082763671875	391.659249011155
0.075225830078125	-0.00141571044921875	392.544259008921
0.07080078125	-0.00142120361328125	393.429269006687
0.066375732421875	-0.001427001953125	394.314279004452
0.06195068359375	-0.00143280029296875	395.199289002218
0.057525634765625	-0.001439208984375	396.084298999983
0.0531005859375	-0.0014459228515625	396.969308997749
0.048675537109375	-0.0014520263671875	397.854318995514
0.04425048828125	-0.001458740234375	398.73932899328
0.039825439453125	-0.00146484375	399.624338991046
0.035400390625	-0.001470947265625	400.509348988811
0.030975341796875	-0.00147796630859375	401.394358986577
0.02655029296875	-0.0014837646484375	402.279368984342
0.022125244140625	-0.0014910888671875	403.164378982108
0.0177001953125	-0.0015008544921875	404.049388979873
0.013275146484375	-0.001507568359375	404.934398977639
0.00885009765625	-0.00151519775390625	405.819408975404
0.004425048828125	-0.00152435302734375	406.70441897317
0	-0.0015338134765625	407.589428970936
0.004425048828125	-0.00115997314453125	408.474438968701
0.00885009765625	-0.00085845947265625	409.359448966467
0.013275146484375	-0.0006103515625	410.244458964232
0.0177001953125	-0.000403900146484375	411.129468961998
0.022125244140625	-0.000229736328125	412.014478959763
0.02655029296875	-8.123779296875E-05	412.899488957529
0.030975341796875	4.549560546875E-05	413.784498955295
0.035400390625	0.000154266357421875	414.66950895306
0.039825439453125	0.0002484130859375	415.554518950826
0.04425048828125	0.000330047607421875	416.439528948591
0.048675537109375	0.000401336669921875	417.324538946357
0.0531005859375	0.000462982177734375	418.209548944122
0.057525634765625	0.000517608642578125	419.094558941888
0.06195068359375	0.000565460205078125	419.979568939654
0.066375732421875	0.00060711669921875	420.864578937419
0.07080078125	0.000643310546875	421.749588935185
0.075225830078125	0.00067657470703125	422.63459893295
0.07965087890625	0.0007049560546875	423.519608930716
0.084075927734375	0.00073089599609375	424.404618928481
0.0885009765625	0.00075439453125	425.289628926247
0.092926025390625	0.000775146484375	426.174638924012
0.09735107421875	0.00079345703125	427.059648921778
0.101776123046875	0.00081024169921875	427.944658919544
0.106201171875	0.00082489013671875	428.829668917309
0.110626220703125	0.00083831787109375	429.714678915075
0.11505126953125	0.0008514404296875	430.59968891284
0.119476318359375	0.0008612060546875	431.484698910606
0.1239013671875	0.00087127685546875	432.369708908371
0.128326416015625	0.00088165283203125	433.254718906137
0.13275146484375	0.00089019775390625	434.139728903903
0.137176513671875	0.00089874267578125	435.024738901668
0.1416015625	0.0009063720703125	435.909748899434
0.146026611328125	0.00091339111328125	436.794758897199
0.15045166015625	0.00092010498046875	437.679768894965
0.154876708984375	0.00092620849609375	438.56477889273
0.1593017578125	0.00093231201171875	439.449788890496
0.163726806640625	0.0009375	440.334798888262
0.16815185546875	0.0009429931640625	441.219808886027
0.172576904296875	0.00094879150390625	442.104818883793
0.177001953125	0.0009539794921875	442.989828881558
0.181427001953125	0.00095855712890625	443.874838879324
0.18585205078125	0.0009637451171875	444.759848877089
0.190277099609375	0.00096832275390625	445.644858874855
0.1947021484375	0.00097320556640625	446.52986887262
0.199127197265625	0.0009783935546875	447.414878870386
0.20355224609375	0.0009832763671875	448.299888868152
0.207977294921875	0.00098724365234375	449.184898865917
0.21240234375	0.00099212646484375	450.069908863683
0.216827392578125	0.00099639892578125	450.954918861448
0.22125244140625	0.0010009765625	451.839928859214
0.225677490234375	0.001005859375	452.724938856979
0.2301025390625	0.00101043701171875	453.609948854745
0.234527587890625	0.001014404296875	454.494958852511
0.23895263671875	0.0010186767578125	455.379968850276
0.243377685546875	0.00102294921875	456.264978848042
0.247802734375	0.0010272216796875	457.149988845807
0.252227783203125	0.0010321044921875	458.034998843573
0.25665283203125	0.0010369873046875	458.920008841338
0.261077880859375	0.00104217529296875	459.805018839104
0.2655029296875	0.00104644775390625	460.690028836869
0.269927978515625	0.00105133056640625	461.575038834635
0.27435302734375	0.0010565185546875	462.460048832401
0.278778076171875	0.00106109619140625	463.345058830166
0.283203125	0.00106658935546875	464.230068827932
0.287628173828125	0.0010711669921875	465.115078825697
0.29205322265625	0.00107635498046875	466.000088823463
0.296478271484375	0.00108184814453125	466.885098821228
0.3009033203125	0.00108673095703125	467.770108818994
0.305328369140625	0.0010919189453125	468.65511881676
0.30975341796875	0.0010968017578125	469.540128814525
0.314178466796875	0.0011041259765625	470.425138812291
0.318603515625	0.0011090087890625	471.310148810056
0.323028564453125	0.0011138916015625	472.195158807822
0.32745361328125	0.00111968994140625	473.080168805587
0.331878662109375	0.001124267578125	473.965178803353
0.3363037109375	0.00112945556640625	474.850188801119
0.340728759765625	0.00113433837890625	475.735198798884
0.34515380859375	0.00113983154296875	476.62020879665
0.349578857421875	0.00114501953125	477.505218794415
0.35400390625	0.0011492919921875	478.390228792181
0.358428955078125	0.00115478515625	479.275238789946
0.36285400390625	0.00116058349609375	480.160248787712
0.367279052734375	0.0011651611328125	481.045258785477
0.3717041015625	0.00117034912109375	481.930268783243
0.376129150390625	0.001175537109375	482.815278781009
0.38055419921875	0.0011798095703125	483.700288778774
0.384979248046875	0.001185302734375	484.58529877654
0.389404296875	0.00118927001953125	485.470308774305
0.393829345703125	0.00119293212890625	486.355318772071
0.39825439453125	0.00119598388671875	487.240328769836
0.402679443359375	0.00120025634765625	488.125338767602
0.4071044921875	0.00120361328125	489.010348765368
0.411529541015625	0.00120697021484375	489.895358763133
0.41595458984375	0.00121063232421875	490.780368760899
0.420379638671875	0.00121368408203125	491.665378758664
0.4248046875	0.0012164306640625	492.55038875643
0.429229736328125	0.00121917724609375	493.435398754195
0.43365478515625	0.00122222900390625	494.320408751961
0.438079833984375	0.0012249755859375	495.205418749727
0.4425048828125	0.0012274169921875	496.090428747492
0.446929931640625	0.00122955322265625	496.975438745258
0.45135498046875	0.0012322998046875	497.860448743023
0.455780029296875	0.0012347412109375	498.745458740789
0.460205078125	0.00123748779296875	499.630468738554
0.464630126953125	0.001239013671875	500.51547873632
0.46905517578125	0.00124114990234375	501.400488734085
0.473480224609375	0.001243896484375	502.285498731851
0.4779052734375	0.00124664306640625	503.170508729617
0.482330322265625	0.00124755859375	504.055518727382
0.48675537109375	0.0012493896484375	504.940528725148
0.491180419921875	0.00125091552734375	505.825538722913
0.49560546875	0.0012518310546875	506.710548720679
0.500030517578125	0.0012530517578125	507.595558718444
0.50445556640625	0.001253662109375	508.48056871621
0.508880615234375	0.00125396728515625	509.365578713976
0.5133056640625	0.0012542724609375	510.250588711741
0.517730712890625	0.0012542724609375	511.135598709507
0.52215576171875	0.00125396728515625	512.020608707272
0.526580810546875	0.00125457763671875	512.905618705038
0.531005859375	0.0012548828125	513.790628702803
0.535430908203125	0.0012542724609375	514.675638700569
0.53985595703125	0.00125335693359375	515.560648698334
0.544281005859375	0.0012530517578125	516.4456586961
0.5487060546875	0.00125213623046875	517.330668693866
0.553131103515625	0.00125091552734375	518.215678691631
0.55755615234375	0.0012506103515625	519.100688689397
0.561981201171875	0.00125030517578125	519.985698687162
0.56640625	0.00124969482421875	520.870708684928
0.570831298828125	0.0012493896484375	521.755718682693
0.57525634765625	0.0012493896484375	522.640728680459
0.579681396484375	0.001248779296875	523.525738678225
0.5841064453125	0.0012481689453125	524.41074867599
0.588531494140625	0.00124725341796875	525.295758673756
0.59295654296875	0.00124725341796875	526.180768671521
0.597381591796875	0.00124755859375	527.065778669287
0.601806640625	0.00124755859375	527.950788667052
0.606231689453125	0.00124786376953125	528.835798664818
0.61065673828125	0.00124847412109375	529.720808662584
0.615081787109375	0.001248779296875	530.605818660349
0.6195068359375	0.0012493896484375	531.490828658115
0.623931884765625	0.0012493896484375	532.37583865588
0.62835693359375	0.00125213623046875	533.260848653646
0.632781982421875	0.00125274658203125	534.145858651411
0.63720703125	0.0012530517578125	535.030868649177
0.641632080078125	0.00125396728515625	535.915878646942
0.64605712890625	0.00125518798828125	536.800888644708
0.650482177734375	0.00125762939453125	537.685898642474
0.6549072265625	0.001258544921875	538.570908640239
0.659332275390625	0.00126068115234375	539.455918638005
0.66375732421875	0.00126220703125	540.34092863577
0.668182373046875	0.0012652587890625	541.225938633536
0.672607421875	0.00126708984375	542.110948631301
0.677032470703125	0.00126953125	542.995958629067
0.68145751953125	0.00127197265625	543.880968626833
0.685882568359375	0.0012750244140625	544.765978624598
0.6903076171875	0.0012786865234375	545.650988622364
0.694732666015625	0.0012823486328125	546.535998620129
0.69915771484375	0.00128631591796875	547.421008617895
0.703582763671875	0.0012908935546875	548.30601861566
0.7080078125	0.0012957763671875	549.191028613426
0.712432861328125	0.00130096435546875	550.076038611192
0.71685791015625	0.00130645751953125	550.961048608957
0.721282958984375	0.00131195068359375	551.846058606723
0.7257080078125	0.00131927490234375	552.731068604488
0.730133056640625	0.0013250732421875	553.616078602254
0.73455810546875	0.00133209228515625	554.501088600019
0.738983154296875	0.00134002685546875	555.386098597785
0.743408203125	0.0013470458984375	556.27110859555
0.747833251953125	0.0013555908203125	557.156118593316
0.75225830078125	0.00136566162109375	558.041128591082
0.756683349609375	0.00137481689453125	558.926138588847
0.7611083984375	0.00138519287109375	559.811148586613
0.765533447265625	0.001396484375	560.696158584378
0.76995849609375	0.00140777587890625	561.581168582144
0.774383544921875	0.00141998291015625	562.466178579909
0.77880859375	0.00143310546875	563.351188577675
0.783233642578125	0.0014483642578125	564.236198575441
0.78765869140625	0.0014630126953125	565.121208573206
0.792083740234375	0.00147918701171875	566.006218570972
0.7965087890625	0.00149688720703125	566.891228568737
0.800933837890625	0.00151336669921875	567.776238566503
0.80535888671875	0.00153289794921875	568.661248564268
0.809783935546875	0.00155303955078125	569.546258562034
0.814208984375	0.00157379150390625	570.431268559799
0.818634033203125	0.0015960693359375	571.316278557565
0.82305908203125	0.00161865234375	572.201288555331
0.827484130859375	0.00164337158203125	573.086298553096
0.8319091796875	0.001668701171875	573.971308550862
0.836334228515625	0.00169586181640625	574.856318548627
0.84075927734375	0.0017242431640625	575.741328546393
0.845184326171875	0.00175323486328125	576.626338544158
0.849609375	0.001783447265625	577.511348541924
0.854034423828125	0.00181549072265625	578.39635853969
0.85845947265625	0.00184814453125	579.281368537455
0.862884521484375	0.00188232421875	580.166378535221
0.8673095703125	0.0019183349609375	581.051388532986
0.871734619140625	0.001954345703125	581.936398530752
0.87615966796875	0.0019921875	582.821408528517
0.880584716796875	0.00203155517578125	583.706418526283
0.885009765625	0.0020721435546875	584.591428524049
0.889434814453125	0.00211395263671875	585.476438521814
0.89385986328125	0.00215667724609375	586.36144851958
0.898284912109375	0.0022015380859375	587.246458517345
0.9027099609375	0.0022467041015625	588.131468515111
0.907135009765625	0.00229217529296875	589.016478512876
0.91156005859375	0.00233978271484375	589.901488510642
0.915985107421875	0.0023883056640625	590.786498508407
0.92041015625	0.00243621826171875	591.671508506173
0.924835205078125	0.002489013671875	592.556518503939
0.92926025390625	0.002540283203125	593.441528501704
0.933685302734375	0.0025927734375	594.32653849947
0.9381103515625	0.00264556884765625	595.211548497235
0.942535400390625	0.0027001953125	596.096558495001
0.94696044921875	0.002755126953125	596.981568492766
0.951385498046875	0.002811279296875	597.866578490532
0.955810546875	0.0028680419921875	598.751588488298
0.960235595703125	0.00292449951171875	599.636598486063
0.96466064453125	0.0029833984375	600.521608483829
0.969085693359375	0.00304107666015625	601.406618481594
0.9735107421875	0.00309722900390625	602.29162847936
0.977935791015625	0.0031561279296875	603.176638477125
0.98236083984375	0.00321533203125	604.061648474891
0.986785888671875	0.0032769775390625	604.946658472657
0.9912109375	0.00333740234375	605.831668470422
0.995635986328125	0.0033978271484375	606.716678468188
1.00006103515625	0.0034588623046875	607.601688465953
0.995635986328125	0.0030975341796875	608.486698463719
0.9912109375	0.0027801513671875	609.371708461484
0.986785888671875	0.002496337890625	610.25671845925
0.98236083984375	0.00223846435546875	611.141728457015
0.977935791015625	0.0020001220703125	612.026738454781
0.9735107421875	0.00178253173828125	612.911748452547
0.969085693359375	0.0015777587890625	613.796758450312
0.96466064453125	0.00138702392578125	614.681768448078
0.960235595703125	0.0012091064453125	615.566778445843
0.955810546875	0.00104217529296875	616.451788443609
0.951385498046875	0.00088531494140625	617.336798441374
0.94696044921875	0.00073760986328125	618.22180843914
0.942535400390625	0.00059844970703125	619.106818436906
0.9381103515625	0.00046649169921875	619.991828434671
0.933685302734375	0.000341156005859375	620.876838432437
0.92926025390625	0.0002239990234375	621.761848430202
0.924835205078125	0.000113372802734375	622.646858427968
0.92041015625	8.92333984375E-06	623.531868425733
0.915985107421875	-8.990478515625E-05	624.416878423499
0.91156005859375	-0.000183685302734375	625.301888421264
0.907135009765625	-0.00027252197265625	626.18689841903
0.9027099609375	-0.000356414794921875	627.071908416796
0.898284912109375	-0.000435272216796875	627.956918414561
0.89385986328125	-0.000509857177734375	628.841928412327
0.889434814453125	-0.000579925537109375	629.726938410092
0.885009765625	-0.000646240234375	630.611948407858
0.880584716796875	-0.0007086181640625	631.496958405623
0.87615966796875	-0.00076751708984375	632.381968403389
0.871734619140625	-0.00082305908203125	633.266978401155
0.8673095703125	-0.0008734130859375	634.15198839892
0.862884521484375	-0.00092193603515625	635.036998396686
0.85845947265625	-0.00096649169921875	635.922008394451
0.854034423828125	-0.00100921630859375	636.807018392217
0.849609375	-0.00104766845703125	637.692028389982
0.845184326171875	-0.00108306884765625	638.577038387748
0.84075927734375	-0.00111602783203125	639.462048385514
0.836334228515625	-0.00114776611328125	640.347058383279
0.8319091796875	-0.00117523193359375	641.232068381045
0.827484130859375	-0.001201171875	642.11707837881
0.82305908203125	-0.00122528076171875	643.002088376576
0.818634033203125	-0.0012457275390625	643.887098374341
0.814208984375	-0.0012640380859375	644.772108372107
0.809783935546875	-0.0012811279296875	645.657118369872
0.80535888671875	-0.00129669189453125	646.542128367638
0.800933837890625	-0.00130950927734375	647.427138365404
0.7965087890625	-0.00132080078125	648.312148363169
0.792083740234375	-0.00132965087890625	649.197158360935
0.78765869140625	-0.0013360595703125	650.0821683587
0.783233642578125	-0.0013427734375	650.967178356466
0.77880859375	-0.00134765625	651.852188354231
0.774383544921875	-0.00135040283203125	652.737198351997
0.76995849609375	-0.00135223388671875	653.622208349763
0.765533447265625	-0.00135284423828125	654.507218347528
0.7611083984375	-0.0013519287109375	655.392228345294
0.756683349609375	-0.00135040283203125	656.277238343059
0.75225830078125	-0.00134796142578125	657.162248340825
0.747833251953125	-0.00134429931640625	658.04725833859
0.743408203125	-0.00134063720703125	658.932268336356
0.738983154296875	-0.00133514404296875	659.817278334122
0.73455810546875	-0.00133026123046875	660.702288331887
0.730133056640625	-0.0013238525390625	661.587298329653
0.7257080078125	-0.001318359375	662.472308327418
0.721282958984375	-0.00131195068359375	663.357318325184
0.71685791015625	-0.00130584716796875	664.242328322949
0.712432861328125	-0.001298828125	665.127338320715
0.7080078125	-0.00129150390625	666.01234831848
0.703582763671875	-0.0012847900390625	666.897358316246
0.69915771484375	-0.00127593994140625	667.782368314012
0.694732666015625	-0.00126953125	668.667378311777
0.6903076171875	-0.00126129150390625	669.552388309543
0.685882568359375	-0.0012548828125	670.437398307308
0.68145751953125	-0.00124847412109375	671.322408305074
0.677032470703125	-0.001241455078125	672.207418302839
0.672607421875	-0.0012347412109375	673.092428300605
0.668182373046875	-0.00122802734375	673.977438298371
0.66375732421875	-0.00122039794921875	674.862448296136
0.659332275390625	-0.001214599609375	675.747458293902
0.6549072265625	-0.00120849609375	676.632468291667
0.650482177734375	-0.0012017822265625	677.517478289433
0.64605712890625	-0.00119598388671875	678.402488287198
0.641632080078125	-0.00119110107421875	679.287498284964
0.63720703125	-0.00118560791015625	680.172508282729
0.632781982421875	-0.001180419921875	681.057518280495
0.62835693359375	-0.0011749267578125	681.942528278261
0.623931884765625	-0.00117279052734375	682.827538276026
0.6195068359375	-0.00116790771484375	683.712548273792
0.615081787109375	-0.00116363525390625	684.597558271557
0.61065673828125	-0.00115966796875	685.482568269323
0.606231689453125	-0.001156005859375	686.367578267088
0.601806640625	-0.00115234375	687.252588264854
0.597381591796875	-0.0011492919921875	688.13759826262
0.59295654296875	-0.00114654541015625	689.022608260385
0.588531494140625	-0.00114410400390625	689.907618258151
0.5841064453125	-0.0011407470703125	690.792628255916
0.579681396484375	-0.0011383056640625	691.677638253682
0.57525634765625	-0.00113739013671875	692.562648251447
0.570831298828125	-0.00113525390625	693.447658249213
0.56640625	-0.00113525390625	694.332668246979
0.561981201171875	-0.001134033203125	695.217678244744
0.55755615234375	-0.00113372802734375	696.10268824251
0.553131103515625	-0.0011328125	696.987698240275
0.5487060546875	-0.00113250732421875	697.872708238041
0.544281005859375	-0.001131591796875	698.757718235806
0.53985595703125	-0.00113189697265625	699.642728233572
0.535430908203125	-0.00113250732421875	700.527738231337
0.531005859375	-0.00113250732421875	701.412748229103
0.526580810546875	-0.0011334228515625	702.297758226869
0.52215576171875	-0.001134033203125	703.182768224634
0.517730712890625	-0.00113555908203125	704.0677782224
0.5133056640625	-0.0011370849609375	704.952788220165
0.508880615234375	-0.0011383056640625	705.837798217931
0.50445556640625	-0.00114044189453125	706.722808215696
0.500030517578125	-0.00114166259765625	707.607818213462
0.49560546875	-0.0011444091796875	708.492828211228
0.491180419921875	-0.00114593505859375	709.377838208993
0.48675537109375	-0.001148681640625	710.262848206759
0.482330322265625	-0.00115142822265625	711.147858204524
0.4779052734375	-0.001153564453125	712.03286820229
0.473480224609375	-0.00115631103515625	712.917878200055
0.46905517578125	-0.00115875244140625	713.802888197821
0.464630126953125	-0.0011602783203125	714.687898195587
0.460205078125	-0.00116363525390625	715.572908193352
0.455780029296875	-0.001165771484375	716.457918191118
0.45135498046875	-0.00116851806640625	717.342928188883
0.446929931640625	-0.0011712646484375	718.227938186649
0.4425048828125	-0.00117340087890625	719.112948184414
0.438079833984375	-0.00117584228515625	719.99795818218
0.43365478515625	-0.0011785888671875	720.882968179945
0.429229736328125	-0.00118072509765625	721.767978177711
0.4248046875	-0.001182861328125	722.652988175477
0.420379638671875	-0.00118438720703125	723.537998173242
0.41595458984375	-0.00118621826171875	724.423008171008
0.411529541015625	-0.0011883544921875	725.308018168773
0.4071044921875	-0.00118988037109375	726.193028166539
0.402679443359375	-0.00119171142578125	727.078038164304
0.39825439453125	-0.0011932373046875	727.96304816207
0.393829345703125	-0.001195068359375	728.848058159836
0.389404296875	-0.0011962890625	729.733068157601
0.384979248046875	-0.00119781494140625	730.618078155367
0.38055419921875	-0.001199951171875	731.503088153132
0.376129150390625	-0.0012005615234375	732.388098150898
0.3717041015625	-0.00120208740234375	733.273108148663
0.367279052734375	-0.00120391845703125	734.158118146429
0.36285400390625	-0.001204833984375	735.043128144194
0.358428955078125	-0.0012060546875	735.92813814196
0.35400390625	-0.001207275390625	736.813148139726
0.349578857421875	-0.00120849609375	737.698158137491
0.34515380859375	-0.0012109375	738.583168135257
0.340728759765625	-0.00121307373046875	739.468178133022
0.3363037109375	-0.0012139892578125	740.353188130788
0.331878662109375	-0.00121551513671875	741.238198128553
0.32745361328125	-0.00121673583984375	742.123208126319
0.323028564453125	-0.00121856689453125	743.008218124085
0.318603515625	-0.001220703125	743.89322812185
0.314178466796875	-0.001221923828125	744.778238119616
0.30975341796875	-0.00122528076171875	745.663248117381
0.305328369140625	-0.001226806640625	746.548258115147
0.3009033203125	-0.00122802734375	747.433268112912
0.296478271484375	-0.00123016357421875	748.318278110678
0.29205322265625	-0.00123199462890625	749.203288108444
0.287628173828125	-0.001234130859375	750.088298106209
0.283203125	-0.00123565673828125	750.973308103975
0.278778076171875	-0.00123748779296875	751.85831810174
0.27435302734375	-0.00123992919921875	752.743328099506
0.269927978515625	-0.0012420654296875	753.628338097271
0.2655029296875	-0.0012445068359375	754.513348095037
0.261077880859375	-0.001246337890625	755.398358092802
0.25665283203125	-0.001248779296875	756.283368090568
0.252227783203125	-0.00125091552734375	757.168378088334
0.247802734375	-0.001253662109375	758.053388086099
0.243377685546875	-0.0012554931640625	758.938398083865
0.23895263671875	-0.00125823974609375	759.82340808163
0.234527587890625	-0.00126068115234375	760.708418079396
0.2301025390625	-0.00126220703125	761.593428077161
0.225677490234375	-0.0012652587890625	762.478438074927
0.22125244140625	-0.0012677001953125	763.363448072693
0.216827392578125	-0.0012701416015625	764.248458070458
0.21240234375	-0.00127197265625	765.133468068224
0.207977294921875	-0.0012750244140625	766.018478065989
0.20355224609375	-0.001278076171875	766.903488063755
0.199127197265625	-0.0012799072265625	767.78849806152
0.1947021484375	-0.0012823486328125	768.673508059286
0.190277099609375	-0.0012860107421875	769.558518057052
0.18585205078125	-0.00128814697265625	770.443528054817
0.181427001953125	-0.00129119873046875	771.328538052583
0.177001953125	-0.0012945556640625	772.213548050348
0.172576904296875	-0.00129638671875	773.098558048114
0.16815185546875	-0.0012994384765625	773.983568045879
0.163726806640625	-0.00130157470703125	774.868578043645
0.1593017578125	-0.001304931640625	775.75358804141
0.154876708984375	-0.00130828857421875	776.638598039176
0.15045166015625	-0.001312255859375	777.523608036942
0.146026611328125	-0.00131591796875	778.408618034707
0.1416015625	-0.00131927490234375	779.293628032473
0.137176513671875	-0.0013238525390625	780.178638030238
0.13275146484375	-0.0013275146484375	781.063648028004
0.128326416015625	-0.00133148193359375	781.948658025769
0.1239013671875	-0.00133636474609375	782.833668023535
0.119476318359375	-0.00134033203125	783.718678021301
0.11505126953125	-0.001343994140625	784.603688019066
0.110626220703125	-0.00134979248046875	785.488698016832
0.106201171875	-0.00135467529296875	786.373708014597
0.101776123046875	-0.00136016845703125	787.258718012363
0.09735107421875	-0.00136566162109375	788.143728010128
0.092926025390625	-0.001370849609375	789.028738007894
0.0885009765625	-0.0013763427734375	789.913748005659
0.084075927734375	-0.0013818359375	790.798758003425
0.07965087890625	-0.00138824462890625	791.683768001191
0.075225830078125	-0.0013934326171875	792.568777998956
0.07080078125	-0.00140045166015625	793.453787996722
0.066375732421875	-0.001407470703125	794.338797994487
0.06195068359375	-0.00141326904296875	795.223807992253
0.057525634765625	-0.001419677734375	796.108817990018
0.0531005859375	-0.001427001953125	796.993827987784
0.048675537109375	-0.0014337158203125	797.87883798555
0.04425048828125	-0.0014410400390625	798.763847983315
0.039825439453125	-0.00144805908203125	799.648857981081
0.035400390625	-0.00145599365234375	800.533867978846
0.030975341796875	-0.0014642333984375	801.418877976612
0.02655029296875	-0.00147216796875	802.303887974377
0.022125244140625	-0.00148040771484375	803.188897972143
0.0177001953125	-0.00148956298828125	804.073907969909
0.013275146484375	-0.0014996337890625	804.958917967674
0.00885009765625	-0.00150970458984375	805.84392796544
0.004425048828125	-0.0015203857421875	806.728937963205
0	-0.00153167724609375	807.613947960971
0.004425048828125	-0.00115814208984375	808.498957958736
0.00885009765625	-0.00085784912109375	809.383967956502
0.013275146484375	-0.0006097412109375	810.268977954267
0.0177001953125	-0.00040228271484375	811.153987952033
0.022125244140625	-0.000227203369140625	812.038997949799
0.02655029296875	-7.8338623046875E-05	812.924007947564
0.030975341796875	4.91943359375E-05	813.80901794533
0.035400390625	0.000159271240234375	814.694027943095
0.039825439453125	0.000254241943359375	815.579037940861
0.04425048828125	0.000337005615234375	816.464047938626
0.048675537109375	0.000408782958984375	817.349057936392
0.0531005859375	0.0004718017578125	818.234067934158
0.057525634765625	0.000527313232421875	819.119077931923
0.06195068359375	0.000575347900390625	820.004087929689
0.066375732421875	0.000617034912109375	820.889097927454
0.07080078125	0.00065460205078125	821.77410792522
0.075225830078125	0.0006878662109375	822.659117922985
0.07965087890625	0.00071685791015625	823.544127920751
0.084075927734375	0.00074371337890625	824.429137918517
0.0885009765625	0.00076751708984375	825.314147916282
0.092926025390625	0.00078826904296875	826.199157914048
0.09735107421875	0.00080718994140625	827.084167911813
0.101776123046875	0.00082427978515625	827.969177909579
0.106201171875	0.00083953857421875	828.854187907344
0.110626220703125	0.000853271484375	829.73919790511
0.11505126953125	0.0008648681640625	830.624207902875
0.119476318359375	0.0008758544921875	831.509217900641
0.1239013671875	0.0008856201171875	832.394227898407
0.128326416015625	0.0008953857421875	833.279237896172
0.13275146484375	0.0009039306640625	834.164247893938
0.137176513671875	0.000911865234375	835.049257891703
0.1416015625	0.00091888427734375	835.934267889469
0.146026611328125	0.00092529296875	836.819277887234
0.15045166015625	0.0009320068359375	837.704287885
0.154876708984375	0.0009381103515625	838.589297882766
0.1593017578125	0.000943603515625	839.474307880531
0.163726806640625	0.000948486328125	840.359317878297
0.16815185546875	0.00095306396484375	841.244327876062
0.172576904296875	0.00095855712890625	842.129337873828
0.177001953125	0.000963134765625	843.014347871593
0.181427001953125	0.00096710205078125	843.899357869359
0.18585205078125	0.00097137451171875	844.784367867125
0.190277099609375	0.000975341796875	845.66937786489
0.1947021484375	0.00097930908203125	846.554387862656
0.199127197265625	0.00098358154296875	847.439397860421
0.20355224609375	0.000987548828125	848.324407858187
0.207977294921875	0.0009912109375	849.209417855952
0.21240234375	0.000994873046875	850.094427853718
0.216827392578125	0.00099884033203125	850.979437851483
0.22125244140625	0.00100250244140625	851.864447849249
0.225677490234375	0.0010064697265625	852.749457847015
0.2301025390625	0.0010107421875	853.63446784478
0.234527587890625	0.00101287841796875	854.519477842546
0.23895263671875	0.00101715087890625	855.404487840311
0.243377685546875	0.00102081298828125	856.289497838077
0.247802734375	0.0010247802734375	857.174507835842
0.252227783203125	0.00102874755859375	858.059517833608
0.25665283203125	0.00103240966796875	858.944527831374
0.261077880859375	0.00103607177734375	859.829537829139
0.2655029296875	0.00104095458984375	860.714547826905
0.269927978515625	0.00104461669921875	861.59955782467
0.27435302734375	0.00104888916015625	862.484567822436
0.278778076171875	0.0010528564453125	863.369577820201
0.283203125	0.0010565185546875	864.254587817967
0.287628173828125	0.00106170654296875	865.139597815732
0.29205322265625	0.00106536865234375	866.024607813498
0.296478271484375	0.00107025146484375	866.909617811264
0.3009033203125	0.00107421875	867.794627809029
0.305328369140625	0.00107879638671875	868.679637806795
0.30975341796875	0.00108306884765625	869.56464780456
0.314178466796875	0.00108856201171875	870.449657802326
0.318603515625	0.00109283447265625	871.334667800091
0.323028564453125	0.0010968017578125	872.219677797857
0.32745361328125	0.0011016845703125	873.104687795623
0.331878662109375	0.00110595703125	873.989697793388
0.3363037109375	0.0011102294921875	874.874707791154
0.340728759765625	0.00111602783203125	875.759717788919
0.34515380859375	0.00112030029296875	876.644727786685
0.349578857421875	0.00112518310546875	877.52973778445
0.35400390625	0.00112884521484375	878.414747782216
0.358428955078125	0.0011334228515625	879.299757779982
0.36285400390625	0.0011376953125	880.184767777747
0.367279052734375	0.00114227294921875	881.069777775513
0.3717041015625	0.00114654541015625	881.954787773278
0.376129150390625	0.00115203857421875	882.839797771044
0.38055419921875	0.00115570068359375	883.724807768809
0.384979248046875	0.00115997314453125	884.609817766575
0.389404296875	0.0011639404296875	885.49482776434
0.393829345703125	0.00116729736328125	886.379837762106
0.39825439453125	0.0011712646484375	887.264847759872
0.402679443359375	0.00117431640625	888.149857757637
0.4071044921875	0.00117767333984375	889.034867755403
0.411529541015625	0.001180419921875	889.919877753168
0.41595458984375	0.0011846923828125	890.804887750934
0.420379638671875	0.001187744140625	891.689897748699
0.4248046875	0.0011907958984375	892.574907746465
0.429229736328125	0.00119354248046875	893.459917744231
0.43365478515625	0.0011962890625	894.344927741996
0.438079833984375	0.0011993408203125	895.229937739762
0.4425048828125	0.001201171875	896.114947737527
0.446929931640625	0.00120391845703125	896.999957735293
0.45135498046875	0.00120635986328125	897.884967733058
0.455780029296875	0.00120819091796875	898.769977730824
0.460205078125	0.00121124267578125	899.65498772859
0.464630126953125	0.0012139892578125	900.539997726355
0.46905517578125	0.0012158203125	901.425007724121
0.473480224609375	0.00121826171875	902.310017721886
0.4779052734375	0.001220703125	903.195027719652
0.482330322265625	0.00122222900390625	904.080037717417
0.48675537109375	0.0012249755859375	904.965047715183
0.491180419921875	0.001226806640625	905.850057712948
0.49560546875	0.00122772216796875	906.735067710714
0.500030517578125	0.00122894287109375	907.62007770848
0.50445556640625	0.0012298583984375	908.505087706245
0.508880615234375	0.00123016357421875	909.390097704011
0.5133056640625	0.00123138427734375	910.275107701776
0.517730712890625	0.00123260498046875	911.160117699542
0.52215576171875	0.00123260498046875	912.045127697307
0.526580810546875	0.00123382568359375	912.930137695073
0.531005859375	0.00123382568359375	913.815147692839
0.535430908203125	0.0012347412109375	914.700157690604
0.53985595703125	0.0012347412109375	915.58516768837
0.544281005859375	0.0012353515625	916.470177686135
0.5487060546875	0.00123443603515625	917.355187683901
0.553131103515625	0.00123504638671875	918.240197681666
0.55755615234375	0.0012347412109375	919.125207679432
0.561981201171875	0.0012353515625	920.010217677197
0.56640625	0.00123504638671875	920.895227674963
0.570831298828125	0.00123565673828125	921.780237672729
0.57525634765625	0.00123565673828125	922.665247670494
0.579681396484375	0.00123565673828125	923.55025766826
0.5841064453125	0.00123565673828125	924.435267666025
0.588531494140625	0.00123504638671875	925.320277663791
0.59295654296875	0.0012347412109375	926.205287661556
0.597381591796875	0.0012353515625	927.090297659322
0.601806640625	0.0012353515625	927.975307657088
0.606231689453125	0.0012353515625	928.860317654853
0.61065673828125	0.0012359619140625	929.745327652619
0.615081787109375	0.0012371826171875	930.630337650384
0.6195068359375	0.0012371826171875	931.51534764815
0.623931884765625	0.0012384033203125	932.400357645915
0.62835693359375	0.001241455078125	933.285367643681
0.632781982421875	0.0012420654296875	934.170377641447
0.63720703125	0.0012420654296875	935.055387639212
0.641632080078125	0.00124267578125	935.940397636978
0.64605712890625	0.00124359130859375	936.825407634743
0.650482177734375	0.001246337890625	937.710417632509
0.6549072265625	0.00124664306640625	938.595427630274
0.659332275390625	0.001248779296875	939.48043762804
0.66375732421875	0.00124969482421875	940.365447625805
0.668182373046875	0.0012518310546875	941.250457623571
0.672607421875	0.001253662109375	942.135467621337
0.677032470703125	0.0012554931640625	943.020477619102
0.68145751953125	0.00125823974609375	943.905487616868
0.685882568359375	0.001260986328125	944.790497614633
0.6903076171875	0.001263427734375	945.675507612399
0.694732666015625	0.00126708984375	946.560517610164
0.69915771484375	0.00127105712890625	947.44552760793
0.703582763671875	0.0012744140625	948.330537605696
0.7080078125	0.00127838134765625	949.215547603461
0.712432861328125	0.00128326416015625	950.100557601227
0.71685791015625	0.00128753662109375	950.985567598992
0.721282958984375	0.0012921142578125	951.870577596758
0.7257080078125	0.00129791259765625	952.755587594523
0.730133056640625	0.00130340576171875	953.640597592289
0.73455810546875	0.00130828857421875	954.525607590055
0.738983154296875	0.00131561279296875	955.41061758782
0.743408203125	0.0013214111328125	956.295627585586
0.747833251953125	0.001329345703125	957.180637583351
0.75225830078125	0.00133636474609375	958.065647581117
0.756683349609375	0.00134521484375	958.950657578882
0.7611083984375	0.001353759765625	959.835667576648
0.765533447265625	0.00136383056640625	960.720677574413
0.76995849609375	0.0013739013671875	961.605687572179
0.774383544921875	0.00138458251953125	962.490697569945
0.77880859375	0.00139556884765625	963.37570756771
0.783233642578125	0.00140625	964.260717565476
0.78765869140625	0.00142120361328125	965.145727563241
0.792083740234375	0.00143310546875	966.030737561007
0.7965087890625	0.001448974609375	966.915747558772
0.800933837890625	0.0014642333984375	967.800757556538
0.80535888671875	0.00148101806640625	968.685767554304
0.809783935546875	0.0014990234375	969.570777552069
0.814208984375	0.00151611328125	970.455787549835
0.818634033203125	0.00153594970703125	971.3407975476
0.82305908203125	0.001556396484375	972.225807545366
0.827484130859375	0.0015777587890625	973.110817543131
0.8319091796875	0.00159942626953125	973.995827540897
0.836334228515625	0.00162384033203125	974.880837538662
0.84075927734375	0.0016485595703125	975.765847536428
0.845184326171875	0.00167388916015625	976.650857534194
0.849609375	0.0017010498046875	977.535867531959
0.854034423828125	0.00172882080078125	978.420877529725
0.85845947265625	0.0017578125	979.30588752749
0.862884521484375	0.001788330078125	980.190897525256
0.8673095703125	0.0018194580078125	981.075907523021
0.871734619140625	0.001851806640625	981.960917520787
0.87615966796875	0.00188568115234375	982.845927518553
0.880584716796875	0.001920166015625	983.730937516318
0.885009765625	0.0019573974609375	984.615947514084
0.889434814453125	0.00199432373046875	985.500957511849
0.89385986328125	0.00203216552734375	986.385967509615
0.898284912109375	0.0020721435546875	987.27097750738
0.9027099609375	0.00211212158203125	988.155987505146
0.907135009765625	0.0021527099609375	989.040997502912
0.91156005859375	0.00219451904296875	989.926007500677
0.915985107421875	0.00223724365234375	990.811017498443
0.92041015625	0.0022808837890625	991.696027496208
0.924835205078125	0.00232635498046875	992.581037493974
0.92926025390625	0.00237152099609375	993.466047491739
0.933685302734375	0.00241851806640625	994.351057489505
0.9381103515625	0.002467041015625	995.23606748727
0.942535400390625	0.002513427734375	996.121077485036
0.94696044921875	0.0025616455078125	997.006087482802
0.951385498046875	0.00261138916015625	997.891097480567
0.955810546875	0.00265869140625	998.776107478333
0.960235595703125	0.00270965576171875	999.661117476098
0.96466064453125	0.00276092529296875	1000.54612747386
0.969085693359375	0.00281005859375	1001.43113747163
0.9735107421875	0.002861328125	1002.31614746939
0.977935791015625	0.002911376953125	1003.20115746716
0.98236083984375	0.0029638671875	1004.08616746493
0.986785888671875	0.00301513671875	1004.97117746269
0.9912109375	0.00306793212890625	1005.85618746046
0.995635986328125	0.00312042236328125	1006.74119745822
1.00006103515625	0.00317230224609375	1007.62620745599
0.995635986328125	0.0028082275390625	1008.51121745375
0.9912109375	0.00249176025390625	1009.39622745152
0.986785888671875	0.00221160888671875	1010.28123744929
0.98236083984375	0.00195831298828125	1011.16624744705
0.977935791015625	0.00172821044921875	1012.05125744482
0.9735107421875	0.00151824951171875	1012.93626744258
0.969085693359375	0.00132415771484375	1013.82127744035
0.96466064453125	0.00114349365234375	1014.70628743811
0.960235595703125	0.00097625732421875	1015.59129743588
0.955810546875	0.00081939697265625	1016.47630743364
0.951385498046875	0.00067352294921875	1017.36131743141
0.94696044921875	0.00053680419921875	1018.24632742918
0.942535400390625	0.000408111572265625	1019.13133742694
0.9381103515625	0.00028765869140625	1020.01634742471
0.933685302734375	0.000172760009765625	1020.90135742247
0.92926025390625	6.640625E-05	1021.78636742024
0.924835205078125	-3.36700439453125E-05	1022.671377418
0.92041015625	-0.00012841796875	1023.55638741577
0.915985107421875	-0.0002171630859375	1024.44139741353
0.91156005859375	-0.00030145263671875	1025.3264074113
0.907135009765625	-0.00038031005859375	1026.21141740907
0.9027099609375	-0.000454803466796875	1027.09642740683
0.898284912109375	-0.000524566650390625	1027.9814374046
0.89385986328125	-0.000590545654296875	1028.86644740236
0.889434814453125	-0.00065289306640625	1029.75145740013
0.885009765625	-0.0007110595703125	1030.63646739789
0.880584716796875	-0.0007659912109375	1031.52147739566
0.87615966796875	-0.00081634521484375	1032.40648739342
0.871734619140625	-0.00086456298828125	1033.29149739119
0.8673095703125	-0.00090911865234375	1034.17650738896
0.862884521484375	-0.00095062255859375	1035.06151738672
0.85845947265625	-0.00098907470703125	1035.94652738449
0.854034423828125	-0.00102569580078125	1036.83153738225
0.849609375	-0.0010589599609375	1037.71654738002
0.845184326171875	-0.0010882568359375	1038.60155737778
0.84075927734375	-0.0011163330078125	1039.48656737555
0.836334228515625	-0.001142578125	1040.37157737331
0.8319091796875	-0.0011651611328125	1041.25658737108
0.827484130859375	-0.00118560791015625	1042.14159736885
0.82305908203125	-0.00120452880859375	1043.02660736661
0.818634033203125	-0.001221923828125	1043.91161736438
0.814208984375	-0.001236572265625	1044.79662736214
0.809783935546875	-0.00125	1045.68163735991
0.80535888671875	-0.0012615966796875	1046.56664735767
0.800933837890625	-0.00127105712890625	1047.45165735544
0.7965087890625	-0.00127960205078125	1048.3366673532
0.792083740234375	-0.0012860107421875	1049.22167735097
0.78765869140625	-0.001292724609375	1050.10668734874
0.783233642578125	-0.00129669189453125	1050.9916973465
0.77880859375	-0.0012994384765625	1051.87670734427
0.774383544921875	-0.00130126953125	1052.76171734203
0.76995849609375	-0.00130096435546875	1053.6467273398
0.765533447265625	-0.00130035400390625	1054.53173733756
0.7611083984375	-0.0012982177734375	1055.41674733533
0.756683349609375	-0.00129638671875	1056.30175733309
0.75225830078125	-0.00129425048828125	1057.18676733086
0.747833251953125	-0.00129058837890625	1058.07177732863
0.743408203125	-0.00128631591796875	1058.95678732639
0.738983154296875	-0.0012799072265625	1059.84179732416
0.73455810546875	-0.001275634765625	1060.72680732192
0.730133056640625	-0.0012701416015625	1061.61181731969
0.7257080078125	-0.00126434326171875	1062.49682731745
0.721282958984375	-0.00125823974609375	1063.38183731522
0.71685791015625	-0.00125244140625	1064.26684731298
0.712432861328125	-0.00124786376953125	1065.15185731075
0.7080078125	-0.0012408447265625	1066.03686730852
0.703582763671875	-0.00123382568359375	1066.92187730628
0.69915771484375	-0.001226806640625	1067.80688730405
0.694732666015625	-0.001220703125	1068.69189730181
0.6903076171875	-0.0012152099609375	1069.57690729958
0.685882568359375	-0.0012091064453125	1070.46191729734
0.68145751953125	-0.001202392578125	1071.34692729511
0.677032470703125	-0.0011962890625	1072.23193729287
0.672607421875	-0.0011907958984375	1073.11694729064
0.668182373046875	-0.0011859130859375	1074.00195728841
0.66375732421875	-0.00118011474609375	1074.88696728617
0.659332275390625	-0.0011749267578125	1075.77197728394
0.6549072265625	-0.00117034912109375	1076.6569872817
0.650482177734375	-0.00116455078125	1077.54199727947
0.64605712890625	-0.0011602783203125	1078.42700727723
0.641632080078125	-0.00115570068359375	1079.312017275
0.63720703125	-0.001151123046875	1080.19702727276
0.632781982421875	-0.0011474609375	1081.08203727053
0.62835693359375	-0.00114410400390625	1081.9670472683
0.623931884765625	-0.001141357421875	1082.85205726606
0.6195068359375	-0.0011383056640625	1083.73706726383
0.615081787109375	-0.00113525390625	1084.62207726159
0.61065673828125	-0.0011328125	1085.50708725936
0.606231689453125	-0.001129150390625	1086.39209725712
0.601806640625	-0.00112823486328125	1087.27710725489
0.597381591796875	-0.00112518310546875	1088.16211725265
0.59295654296875	-0.00112335205078125	1089.04712725042
0.588531494140625	-0.00112213134765625	1089.93213724819
0.5841064453125	-0.00111968994140625	1090.81714724595
0.579681396484375	-0.0011175537109375	1091.70215724372
0.57525634765625	-0.00111724853515625	1092.58716724148
0.570831298828125	-0.00111724853515625	1093.47217723925
0.56640625	-0.00111663818359375	1094.35718723701
0.561981201171875	-0.0011175537109375	1095.24219723478
0.55755615234375	-0.0011181640625	1096.12720723254
0.553131103515625	-0.0011181640625	1097.01221723031
0.5487060546875	-0.00111846923828125	1097.89722722808
0.544281005859375	-0.00111968994140625	1098.78223722584
0.53985595703125	-0.00112060546875	1099.66724722361
0.535430908203125	-0.0011212158203125	1100.55225722137
0.531005859375	-0.00112274169921875	1101.43726721914
0.526580810546875	-0.001124267578125	1102.3222772169
0.52215576171875	-0.0011260986328125	1103.20728721467
0.517730712890625	-0.0011285400390625	1104.09229721243
0.5133056640625	-0.0011309814453125	1104.9773072102
0.508880615234375	-0.00113250732421875	1105.86231720797
0.50445556640625	-0.0011346435546875	1106.74732720573
0.500030517578125	-0.00113800048828125	1107.6323372035
0.49560546875	-0.00114105224609375	1108.51734720126
0.491180419921875	-0.001143798828125	1109.40235719903
0.48675537109375	-0.0011468505859375	1110.28736719679
0.482330322265625	-0.00114990234375	1111.17237719456
0.4779052734375	-0.001153564453125	1112.05738719232
0.473480224609375	-0.0011566162109375	1112.94239719009
0.46905517578125	-0.00115936279296875	1113.82740718786
0.464630126953125	-0.00116241455078125	1114.71241718562
0.460205078125	-0.0011651611328125	1115.59742718339
0.455780029296875	-0.00116943359375	1116.48243718115
0.45135498046875	-0.00117156982421875	1117.36744717892
0.446929931640625	-0.00117462158203125	1118.25245717668
0.4425048828125	-0.0011761474609375	1119.13746717445
0.438079833984375	-0.00117919921875	1120.02247717222
0.43365478515625	-0.00118194580078125	1120.90748716998
0.429229736328125	-0.0011846923828125	1121.79249716775
0.4248046875	-0.0011859130859375	1122.67750716551
0.420379638671875	-0.0011883544921875	1123.56251716328
0.41595458984375	-0.00119110107421875	1124.44752716104
0.411529541015625	-0.00119384765625	1125.33253715881
0.4071044921875	-0.0011956787109375	1126.21754715657
0.402679443359375	-0.00119659423828125	1127.10255715434
0.39825439453125	-0.00119781494140625	1127.98756715211
0.393829345703125	-0.00120025634765625	1128.87257714987
0.389404296875	-0.0012017822265625	1129.75758714764
0.384979248046875	-0.0012042236328125	1130.6425971454
0.38055419921875	-0.001204833984375	1131.52760714317
0.376129150390625	-0.00120513916015625	1132.41261714093
0.3717041015625	-0.00120697021484375	1133.2976271387
0.367279052734375	-0.00120819091796875	1134.18263713646
0.36285400390625	-0.00120819091796875	1135.06764713423
0.358428955078125	-0.0012103271484375	1135.952657132
0.35400390625	-0.0012115478515625	1136.83766712976
0.349578857421875	-0.00121246337890625	1137.72267712753
0.34515380859375	-0.00121368408203125	1138.60768712529
0.340728759765625	-0.0012139892578125	1139.49269712306
0.3363037109375	-0.001217041015625	1140.37770712082
0.331878662109375	-0.00121673583984375	1141.26271711859
0.32745361328125	-0.00121917724609375	1142.14772711635
0.323028564453125	-0.001220703125	1143.03273711412
0.318603515625	-0.00122039794921875	1143.91774711189
0.314178466796875	-0.00122314453125	1144.80275710965
0.30975341796875	-0.0012261962890625	1145.68776710742
0.305328369140625	-0.00122711181640625	1146.57277710518
0.3009033203125	-0.00122833251953125	1147.45778710295
0.296478271484375	-0.0012286376953125	1148.34279710071
0.29205322265625	-0.00123046875	1149.22780709848
0.287628173828125	-0.00123260498046875	1150.11281709624
0.283203125	-0.00123291015625	1150.99782709401
0.278778076171875	-0.00123504638671875	1151.88283709178
0.27435302734375	-0.001236572265625	1152.76784708954
0.269927978515625	-0.00123870849609375	1153.65285708731
0.2655029296875	-0.0012396240234375	1154.53786708507
0.261077880859375	-0.0012432861328125	1155.42287708284
0.25665283203125	-0.00124420166015625	1156.3078870806
0.252227783203125	-0.001246337890625	1157.19289707837
0.247802734375	-0.001248779296875	1158.07790707613
0.243377685546875	-0.00125152587890625	1158.9629170739
0.23895263671875	-0.0012530517578125	1159.84792707167
0.234527587890625	-0.001256103515625	1160.73293706943
0.2301025390625	-0.00125701904296875	1161.6179470672
0.225677490234375	-0.00125701904296875	1162.50295706496
0.22125244140625	-0.001259765625	1163.38796706273
0.216827392578125	-0.00126251220703125	1164.27297706049
0.21240234375	-0.00126312255859375	1165.15798705826
0.207977294921875	-0.001265869140625	1166.04299705602
0.20355224609375	-0.00126922607421875	1166.92800705379
0.199127197265625	-0.00127197265625	1167.81301705156
0.1947021484375	-0.00127410888671875	1168.69802704932
0.190277099609375	-0.001278076171875	1169.58303704709
0.18585205078125	-0.00128021240234375	1170.46804704485
0.181427001953125	-0.00128204345703125	1171.35305704262
0.177001953125	-0.00128448486328125	1172.23806704038
0.172576904296875	-0.00128753662109375	1173.12307703815
0.16815185546875	-0.001290283203125	1174.00808703591
0.163726806640625	-0.0012933349609375	1174.89309703368
0.1593017578125	-0.0012957763671875	1175.77810703145
0.154876708984375	-0.001298828125	1176.66311702921
0.15045166015625	-0.0013018798828125	1177.54812702698
0.146026611328125	-0.00130523681640625	1178.43313702474
0.1416015625	-0.0013079833984375	1179.31814702251
0.137176513671875	-0.0013134765625	1180.20315702027
0.13275146484375	-0.00131805419921875	1181.08816701804
0.128326416015625	-0.0013226318359375	1181.9731770158
0.1239013671875	-0.0013250732421875	1182.85818701357
0.119476318359375	-0.00133056640625	1183.74319701134
0.11505126953125	-0.00133453369140625	1184.6282070091
0.110626220703125	-0.00134124755859375	1185.51321700687
0.106201171875	-0.0013433837890625	1186.39822700463
0.101776123046875	-0.0013494873046875	1187.2832370024
0.09735107421875	-0.00135345458984375	1188.16824700016
0.092926025390625	-0.00135986328125	1189.05325699793
0.0885009765625	-0.00136627197265625	1189.93826699569
0.084075927734375	-0.00137298583984375	1190.82327699346
0.07965087890625	-0.001378173828125	1191.70828699123
0.075225830078125	-0.0013836669921875	1192.59329698899
0.07080078125	-0.00139190673828125	1193.47830698676
0.066375732421875	-0.0013983154296875	1194.36331698452
0.06195068359375	-0.00140594482421875	1195.24832698229
0.057525634765625	-0.001412353515625	1196.13333698005
0.0531005859375	-0.00141845703125	1197.01834697782
0.048675537109375	-0.001427001953125	1197.90335697558
0.04425048828125	-0.00143463134765625	1198.78836697335
0.039825439453125	-0.00144317626953125	1199.67337697112
0.035400390625	-0.00145263671875	1200.55838696888
0.030975341796875	-0.001461181640625	1201.44339696665
0.02655029296875	-0.00147003173828125	1202.32840696441
0.022125244140625	-0.001480712890625	1203.21341696218
0.0177001953125	-0.0014910888671875	1204.09842695994
0.013275146484375	-0.00150115966796875	1204.98343695771
0.00885009765625	-0.0015130615234375	1205.86844695547
0.004425048828125	-0.00152618408203125	1206.75345695324
0	-0.001539306640625	1207.63846695101
0.004425048828125	-0.00116302490234375	1208.52347694877
0.00885009765625	-0.00085906982421875	1209.40848694654
0.013275146484375	-0.00061065673828125	1210.2934969443
0.0177001953125	-0.000401947021484375	1211.17850694207
0.022125244140625	-0.00022589111328125	1212.06351693983
0.02655029296875	-7.598876953125E-05	1212.9485269376
0.030975341796875	5.2581787109375E-05	1213.83353693536
0.035400390625	0.000163360595703125	1214.71854693313
0.039825439453125	0.000259246826171875	1215.6035569309
0.04425048828125	0.000342559814453125	1216.48856692866
0.048675537109375	0.000415618896484375	1217.37357692643
0.0531005859375	0.000478912353515625	1218.25858692419
0.057525634765625	0.000535308837890625	1219.14359692196
0.06195068359375	0.0005821533203125	1220.02860691972
0.066375732421875	0.000625	1220.91361691749
0.07080078125	0.00066131591796875	1221.79862691525
0.075225830078125	0.00069580078125	1222.68363691302
0.07965087890625	0.00072479248046875	1223.56864691079
0.084075927734375	0.00075225830078125	1224.45365690855
0.0885009765625	0.00077667236328125	1225.33866690632
0.092926025390625	0.00079681396484375	1226.22367690408
0.09735107421875	0.00081512451171875	1227.10868690185
0.101776123046875	0.0008331298828125	1227.99369689961
0.106201171875	0.00084869384765625	1228.87870689738
0.110626220703125	0.00086090087890625	1229.76371689515
0.11505126953125	0.0008740234375	1230.64872689291
0.119476318359375	0.00088348388671875	1231.53373689068
0.1239013671875	0.0008941650390625	1232.41874688844
0.128326416015625	0.00090423583984375	1233.30375688621
0.13275146484375	0.00091094970703125	1234.18876688397
0.137176513671875	0.00091888427734375	1235.07377688174
0.1416015625	0.0009271240234375	1235.9587868795
0.146026611328125	0.0009326171875	1236.84379687727
0.15045166015625	0.000938720703125	1237.72880687504
0.154876708984375	0.00094390869140625	1238.6138168728
0.1593017578125	0.000948486328125	1239.49882687057
0.163726806640625	0.00095245361328125	1240.38383686833
0.16815185546875	0.00095855712890625	1241.2688468661
0.172576904296875	0.00096099853515625	1242.15385686386
0.177001953125	0.0009661865234375	1243.03886686163
0.181427001953125	0.000970458984375	1243.92387685939
0.18585205078125	0.0009747314453125	1244.80888685716
0.190277099609375	0.00097900390625	1245.69389685493
0.1947021484375	0.000982666015625	1246.57890685269
0.199127197265625	0.0009857177734375	1247.46391685046
0.20355224609375	0.000989990234375	1248.34892684822
0.207977294921875	0.00099273681640625	1249.23393684599
0.21240234375	0.0009954833984375	1250.11894684375
0.216827392578125	0.00099945068359375	1251.00395684152
0.22125244140625	0.0010028076171875	1251.88896683928
0.225677490234375	0.00100616455078125	1252.77397683705
0.2301025390625	0.00100982666015625	1253.65898683482
0.234527587890625	0.0010113525390625	1254.54399683258
0.23895263671875	0.00101654052734375	1255.42900683035
0.243377685546875	0.00101898193359375	1256.31401682811
0.247802734375	0.0010235595703125	1257.19902682588
0.252227783203125	0.00102569580078125	1258.08403682364
0.25665283203125	0.00102874755859375	1258.96904682141
0.261077880859375	0.00103363037109375	1259.85405681917
0.2655029296875	0.001036376953125	1260.73906681694
0.269927978515625	0.00103851318359375	1261.62407681471
0.27435302734375	0.0010418701171875	1262.50908681247
0.278778076171875	0.001044921875	1263.39409681024
0.283203125	0.001048583984375	1264.279106808
0.287628173828125	0.0010540771484375	1265.16411680577
0.29205322265625	0.00105712890625	1266.04912680353
0.296478271484375	0.00106048583984375	1266.9341368013
0.3009033203125	0.00106414794921875	1267.81914679906
0.305328369140625	0.0010675048828125	1268.70415679683
0.30975341796875	0.0010723876953125	1269.5891667946
0.314178466796875	0.00107757568359375	1270.47417679236
0.318603515625	0.00108062744140625	1271.35918679013
0.323028564453125	0.00108367919921875	1272.24419678789
0.32745361328125	0.0010894775390625	1273.12920678566
0.331878662109375	0.001092529296875	1274.01421678342
0.3363037109375	0.0010968017578125	1274.89922678119
0.340728759765625	0.00110107421875	1275.78423677895
0.34515380859375	0.0011053466796875	1276.66924677672
0.349578857421875	0.001109619140625	1277.55425677449
0.35400390625	0.001112060546875	1278.43926677225
0.358428955078125	0.0011175537109375	1279.32427677002
0.36285400390625	0.00112060546875	1280.20928676778
0.367279052734375	0.0011260986328125	1281.09429676555
0.3717041015625	0.0011297607421875	1281.97930676331
0.376129150390625	0.00113311767578125	1282.86431676108
0.38055419921875	0.001136474609375	1283.74932675884
0.384979248046875	0.00114044189453125	1284.63433675661
0.389404296875	0.0011431884765625	1285.51934675438
0.393829345703125	0.0011468505859375	1286.40435675214
0.39825439453125	0.0011505126953125	1287.28936674991
0.402679443359375	0.001153564453125	1288.17437674767
0.4071044921875	0.0011566162109375	1289.05938674544
0.411529541015625	0.0011602783203125	1289.9443967432
0.41595458984375	0.00116302490234375	1290.82940674097
0.420379638671875	0.0011663818359375	1291.71441673873
0.4248046875	0.0011688232421875	1292.5994267365
0.429229736328125	0.001171875	1293.48443673427
0.43365478515625	0.00117431640625	1294.36944673203
0.438079833984375	0.00117767333984375	1295.2544567298
0.4425048828125	0.001180419921875	1296.13946672756
0.446929931640625	0.001182861328125	1297.02447672533
0.45135498046875	0.00118621826171875	1297.90948672309
0.455780029296875	0.00118896484375	1298.79449672086
0.460205078125	0.00119171142578125	1299.67950671862
0.464630126953125	0.00119354248046875	1300.56451671639
0.46905517578125	0.0011956787109375	1301.44952671416
0.473480224609375	0.00119903564453125	1302.33453671192
0.4779052734375	0.00120208740234375	1303.21954670969
0.482330322265625	0.0012042236328125	1304.10455670745
0.48675537109375	0.0012054443359375	1304.98956670522
0.491180419921875	0.00120758056640625	1305.87457670298
0.49560546875	0.00120880126953125	1306.75958670075
0.500030517578125	0.0012109375	1307.64459669851
0.50445556640625	0.0012115478515625	1308.52960669628
0.508880615234375	0.0012127685546875	1309.41461669405
0.5133056640625	0.00121307373046875	1310.29962669181
0.517730712890625	0.001214599609375	1311.18463668958
0.52215576171875	0.0012164306640625	1312.06964668734
0.526580810546875	0.001217041015625	1312.95465668511
0.531005859375	0.00121795654296875	1313.83966668287
0.535430908203125	0.00121856689453125	1314.72467668064
0.53985595703125	0.00121826171875	1315.6096866784
0.544281005859375	0.0012188720703125	1316.49469667617
0.5487060546875	0.001219482421875	1317.37970667394
0.553131103515625	0.00121978759765625	1318.2647166717
0.55755615234375	0.001219482421875	1319.14972666947
0.561981201171875	0.00122100830078125	1320.03473666723
0.56640625	0.001220703125	1320.919746665
0.570831298828125	0.00122161865234375	1321.80475666276
0.57525634765625	0.00122222900390625	1322.68976666053
0.579681396484375	0.00122161865234375	1323.57477665829
0.5841064453125	0.001221923828125	1324.45978665606
0.588531494140625	0.00122222900390625	1325.34479665383
0.59295654296875	0.00122283935546875	1326.22980665159
0.597381591796875	0.00122406005859375	1327.11481664936
0.601806640625	0.00122314453125	1327.99982664712
0.606231689453125	0.00122406005859375	1328.88483664489
0.61065673828125	0.00122406005859375	1329.76984664265
0.615081787109375	0.0012249755859375	1330.65485664042
0.6195068359375	0.0012261962890625	1331.53986663819
0.623931884765625	0.0012255859375	1332.42487663595
0.62835693359375	0.001229248046875	1333.30988663372
0.632781982421875	0.00123016357421875	1334.19489663148
0.63720703125	0.00123077392578125	1335.07990662925
0.641632080078125	0.0012310791015625	1335.96491662701
0.64605712890625	0.00123291015625	1336.84992662478
0.650482177734375	0.0012335205078125	1337.73493662254
0.6549072265625	0.0012353515625	1338.61994662031
0.659332275390625	0.00123779296875	1339.50495661808
0.66375732421875	0.0012396240234375	1340.38996661584
0.668182373046875	0.001240234375	1341.27497661361
0.672607421875	0.00124053955078125	1342.15998661137
0.677032470703125	0.00124267578125	1343.04499660914
0.68145751953125	0.0012451171875	1343.9300066069
0.685882568359375	0.00124755859375	1344.81501660467
0.6903076171875	0.00124969482421875	1345.70002660243
0.694732666015625	0.001253662109375	1346.5850366002
0.69915771484375	0.001258544921875	1347.47004659797
0.703582763671875	0.0012603759765625	1348.35505659573
0.7080078125	0.00126434326171875	1349.2400665935
0.712432861328125	0.0012677001953125	1350.12507659126
0.71685791015625	0.00127166748046875	1351.01008658903
0.721282958984375	0.0012762451171875	1351.89509658679
0.7257080078125	0.00128204345703125	1352.78010658456
0.730133056640625	0.00128570556640625	1353.66511658232
0.73455810546875	0.00129180908203125	1354.55012658009
0.738983154296875	0.001297607421875	1355.43513657786
0.743408203125	0.0013018798828125	1356.32014657562
0.747833251953125	0.001309814453125	1357.20515657339
0.75225830078125	0.0013177490234375	1358.09016657115
0.756683349609375	0.00132537841796875	1358.97517656892
0.7611083984375	0.0013330078125	1359.86018656668
0.765533447265625	0.00134124755859375	1360.74519656445
0.76995849609375	0.0013507080078125	1361.63020656221
0.774383544921875	0.00136138916015625	1362.51521655998
0.77880859375	0.00137115478515625	1363.40022655775
0.783233642578125	0.00138214111328125	1364.28523655551
0.78765869140625	0.00139373779296875	1365.17024655328
0.792083740234375	0.0014056396484375	1366.05525655104
0.7965087890625	0.0014202880859375	1366.94026654881
0.800933837890625	0.001434326171875	1367.82527654657
0.80535888671875	0.00144775390625	1368.71028654434
0.809783935546875	0.00146240234375	1369.5952965421
0.814208984375	0.0014794921875	1370.48030653987
0.818634033203125	0.00149810791015625	1371.36531653764
0.82305908203125	0.00151824951171875	1372.2503265354
0.827484130859375	0.001536865234375	1373.13533653317
0.8319091796875	0.00155731201171875	1374.02034653093
0.836334228515625	0.00157867431640625	1374.9053565287
0.84075927734375	0.001602783203125	1375.79036652646
0.845184326171875	0.0016259765625	1376.67537652423
0.849609375	0.001651611328125	1377.56038652199
0.854034423828125	0.0016766357421875	1378.44539651976
0.85845947265625	0.00170440673828125	1379.33040651753
0.862884521484375	0.00173126220703125	1380.21541651529
0.8673095703125	0.00176055908203125	1381.10042651306
0.871734619140625	0.00179168701171875	1381.98543651082
0.87615966796875	0.0018243408203125	1382.87044650859
0.880584716796875	0.00185546875	1383.75545650635
0.885009765625	0.0018896484375	1384.64046650412
0.889434814453125	0.00192474365234375	1385.52547650188
0.89385986328125	0.0019598388671875	1386.41048649965
0.898284912109375	0.001995849609375	1387.29549649742
0.9027099609375	0.0020330810546875	1388.18050649518
0.907135009765625	0.002071533203125	1389.06551649295
0.91156005859375	0.00211090087890625	1389.95052649071
0.915985107421875	0.00215087890625	1390.83553648848
0.92041015625	0.002191162109375	1391.72054648624
0.924835205078125	0.0022332763671875	1392.60555648401
0.92926025390625	0.002275390625	1393.49056648177
0.933685302734375	0.00231781005859375	1394.37557647954
0.9381103515625	0.00236328125	1395.26058647731
0.942535400390625	0.00240692138671875	1396.14559647507
0.94696044921875	0.00245025634765625	1397.03060647284
0.951385498046875	0.0024945068359375	1397.9156164706
0.955810546875	0.00253814697265625	1398.80062646837
0.960235595703125	0.0025836181640625	1399.68563646613
0.96466064453125	0.00262939453125	1400.5706464639
0.969085693359375	0.002674560546875	1401.45565646166
0.9735107421875	0.002720947265625	1402.34066645943
0.977935791015625	0.0027667236328125	1403.2256764572
0.98236083984375	0.0028118896484375	1404.11068645496
0.986785888671875	0.00285980224609375	1404.99569645273
0.9912109375	0.002906494140625	1405.88070645049
