Potential applied (V)	WE(1).Current (A)	Time (s)
0.004425048828125	-0.00301025390625	6.7750289828947
0.00885009765625	-0.00275726318359375	6.78387898287235
0.013275146484375	-0.00250518798828125	6.79272898285001
0.0177001953125	-0.0022552490234375	6.80157898282766
0.022125244140625	-0.00200714111328125	6.81042898280532
0.02655029296875	-0.00175811767578125	6.81927898278298
0.030975341796875	-0.00151214599609375	6.82812898276063
0.035400390625	-0.0012677001953125	6.83697898273829
0.039825439453125	-0.00102294921875	6.84582898271594
0.04425048828125	-0.000780029296875	6.8546789826936
0.048675537109375	-0.000537109375	6.86352898267126
0.0531005859375	-0.000295623779296875	6.87237898264891
0.057525634765625	-5.4931640625E-05	6.88122898262657
0.06195068359375	0.000185028076171875	6.89007898260422
0.066375732421875	0.00042401123046875	6.89892898258188
0.07080078125	0.00066253662109375	6.90777898255953
0.075225830078125	0.00090057373046875	6.91662898253719
0.07965087890625	0.00113677978515625	6.92547898251485
0.084075927734375	0.0013726806640625	6.9343289824925
0.0885009765625	0.00160888671875	6.94317898247016
0.092926025390625	0.00184417724609375	6.95202898244781
0.09735107421875	0.0020794677734375	6.96087898242547
0.101776123046875	0.00231475830078125	6.96972898240313
0.106201171875	0.00254791259765625	6.97857898238078
0.110626220703125	0.0027813720703125	6.98742898235844
0.11505126953125	0.003013916015625	6.99627898233609
0.119476318359375	0.00324615478515625	7.00512898231375
0.1239013671875	0.0034783935546875	7.01397898229141
0.128326416015625	0.003709716796875	7.02282898226906
0.13275146484375	0.0039404296875	7.03167898224672
0.137176513671875	0.00417327880859375	7.04052898222437
0.1416015625	0.0044024658203125	7.04937898220203
0.146026611328125	0.0046319580078125	7.05822898217968
0.15045166015625	0.00486328125	7.06707898215734
0.154876708984375	0.0050927734375	7.075928982135
0.1593017578125	0.00532135009765625	7.08477898211265
0.163726806640625	0.005550537109375	7.09362898209031
0.16815185546875	0.00578155517578125	7.10247898206796
0.172576904296875	0.0060101318359375	7.11132898204562
0.177001953125	0.0062530517578125	7.12017898202328
0.181427001953125	0.006475830078125	7.12902898200093
0.18585205078125	0.0067047119140625	7.13787898197859
0.190277099609375	0.00693359375	7.14672898195624
0.1947021484375	0.0071624755859375	7.1555789819339
0.199127197265625	0.0073883056640625	7.16442898191156
0.20355224609375	0.0076141357421875	7.17327898188921
0.207977294921875	0.0078369140625	7.18212898186687
0.21240234375	0.0080596923828125	7.19097898184452
0.216827392578125	0.00828857421875	7.19982898182218
0.22125244140625	0.008514404296875	7.20867898179984
0.225677490234375	0.008740234375	7.21752898177749
0.2301025390625	0.008966064453125	7.22637898175515
0.234527587890625	0.0091888427734375	7.2352289817328
0.23895263671875	0.00941162109375	7.24407898171046
0.243377685546875	0.0096343994140625	7.25292898168811
0.247802734375	0.009857177734375	7.26177898166577
0.252227783203125	0.0100830078125	7.27062898164343
0.25665283203125	0.010308837890625	7.27947898162108
0.261077880859375	0.0105316162109375	7.28832898159874
0.2655029296875	0.010748291015625	7.29717898157639
0.269927978515625	0.01097412109375	7.30602898155405
0.27435302734375	0.0111968994140625	7.31487898153171
0.278778076171875	0.0114166259765625	7.32372898150936
0.283203125	0.011639404296875	7.33257898148702
0.287628173828125	0.0118621826171875	7.34142898146467
0.29205322265625	0.0120880126953125	7.35027898144233
0.296478271484375	0.0123138427734375	7.35912898141999
0.3009033203125	0.012530517578125	7.36797898139764
0.305328369140625	0.012750244140625	7.3768289813753
0.30975341796875	0.01297607421875	7.38567898135295
0.314178466796875	0.0131988525390625	7.39452898133061
0.318603515625	0.01341552734375	7.40337898130826
0.323028564453125	0.01363525390625	7.41222898128592
0.32745361328125	0.01385498046875	7.42107898126358
0.331878662109375	0.0140716552734375	7.42992898124123
0.3363037109375	0.0142852783203125	7.43877898121889
0.340728759765625	0.014501953125	7.44762898119654
0.34515380859375	0.014715576171875	7.4564789811742
0.349578857421875	0.014935302734375	7.46532898115186
0.35400390625	0.015155029296875	7.47417898112951
0.358428955078125	0.0153778076171875	7.48302898110717
0.36285400390625	0.01558837890625	7.49187898108482
0.367279052734375	0.0158050537109375	7.50072898106248
0.3717041015625	0.016021728515625	7.50957898104014
0.376129150390625	0.0162445068359375	7.51842898101779
0.38055419921875	0.016455078125	7.52727898099545
0.384979248046875	0.0166717529296875	7.5361289809731
0.389404296875	0.016876220703125	7.54497898095076
0.393829345703125	0.0170928955078125	7.55382898092842
0.39825439453125	0.017303466796875	7.56267898090607
0.402679443359375	0.01751708984375	7.57152898088373
0.4071044921875	0.017730712890625	7.58037898086138
0.411529541015625	0.0179412841796875	7.58922898083904
0.41595458984375	0.01815185546875	7.59807898081669
0.420379638671875	0.0183685302734375	7.60692898079435
0.4248046875	0.0185821533203125	7.61577898077201
0.429229736328125	0.0187896728515625	7.62462898074966
0.43365478515625	0.01900634765625	7.63347898072732
0.438079833984375	0.0192169189453125	7.64232898070497
0.4425048828125	0.0194366455078125	7.65117898068263
0.446929931640625	0.0196380615234375	7.66002898066029
0.45135498046875	0.0198486328125	7.66887898063794
0.455780029296875	0.020068359375	7.6777289806156
0.460205078125	0.02027587890625	7.68657898059325
0.464630126953125	0.020477294921875	7.69542898057091
0.46905517578125	0.02069091796875	7.70427898054857
0.473480224609375	0.0208984375	7.71312898052622
0.4779052734375	0.0211090087890625	7.72197898050388
0.482330322265625	0.0213134765625	7.73082898048153
0.48675537109375	0.0215118408203125	7.73967898045919
0.491180419921875	0.0217254638671875	7.74852898043684
0.49560546875	0.021929931640625	7.7573789804145
0.500030517578125	0.022137451171875	7.76622898039216
0.50445556640625	0.0223419189453125	7.77507898036981
0.508880615234375	0.0225433349609375	7.78392898034747
0.5133056640625	0.022747802734375	7.79277898032512
0.517730712890625	0.022955322265625	7.80162898030278
0.52215576171875	0.023162841796875	7.81047898028044
0.526580810546875	0.023370361328125	7.81932898025809
0.531005859375	0.023565673828125	7.82817898023575
0.535430908203125	0.02376708984375	7.8370289802134
0.53985595703125	0.023968505859375	7.84587898019106
0.544281005859375	0.0241851806640625	7.85472898016872
0.5487060546875	0.0243804931640625	7.86357898014637
0.553131103515625	0.0245819091796875	7.87242898012403
0.55755615234375	0.024774169921875	7.88127898010168
0.561981201171875	0.024981689453125	7.89012898007934
0.56640625	0.0251739501953125	7.898978980057
0.570831298828125	0.0253875732421875	7.90782898003465
0.57525634765625	0.0255828857421875	7.91667898001231
0.579681396484375	0.0257843017578125	7.92552897998996
0.5841064453125	0.0259857177734375	7.93437897996762
0.588531494140625	0.0261749267578125	7.94322897994527
0.59295654296875	0.0263824462890625	7.95207897992293
0.597381591796875	0.02657470703125	7.96092897990059
0.601806640625	0.02677001953125	7.96977897987824
0.606231689453125	0.0269622802734375	7.9786289798559
0.61065673828125	0.027166748046875	7.98747897983355
0.615081787109375	0.027362060546875	7.99632897981121
0.6195068359375	0.0275604248046875	8.00517897978887
0.623931884765625	0.0277618408203125	8.01402897976652
0.62835693359375	0.0279571533203125	8.02287897974418
0.632781982421875	0.0281463623046875	8.03172897972183
0.63720703125	0.0283538818359375	8.04057897969949
0.641632080078125	0.0285491943359375	8.04942897967715
0.64605712890625	0.0287384033203125	8.0582789796548
0.650482177734375	0.0289306640625	8.06712897963246
0.6549072265625	0.0291259765625	8.07597897961011
0.659332275390625	0.029327392578125	8.08482897958777
0.66375732421875	0.0295166015625	8.09367897956542
0.668182373046875	0.0297088623046875	8.10252897954308
0.672607421875	0.02989501953125	8.11137897952074
0.677032470703125	0.0301025390625	8.12022897949839
0.68145751953125	0.030279541015625	8.12907897947605
0.685882568359375	0.030474853515625	8.1379289794537
0.6903076171875	0.0306793212890625	8.14677897943136
0.694732666015625	0.030859375	8.15562897940902
0.69915771484375	0.0310546875	8.16447897938667
0.703582763671875	0.031243896484375	8.17332897936433
0.7080078125	0.0314300537109375	8.18217897934198
0.712432861328125	0.0316253662109375	8.19102897931964
0.71685791015625	0.0318115234375	8.1998789792973
0.721282958984375	0.0320037841796875	8.20872897927495
0.7257080078125	0.0321929931640625	8.21757897925261
0.730133056640625	0.0323822021484375	8.22642897923026
0.73455810546875	0.032562255859375	8.23527897920792
0.738983154296875	0.0327484130859375	8.24412897918558
0.743408203125	0.0329254150390625	8.25297897916323
0.747833251953125	0.03311767578125	8.26182897914089
0.75225830078125	0.03331298828125	8.27067897911854
0.756683349609375	0.033489990234375	8.2795289790962
0.7611083984375	0.0336822509765625	8.28837897907385
0.765533447265625	0.033880615234375	8.29722897905151
0.76995849609375	0.0340606689453125	8.30607897902917
0.774383544921875	0.034246826171875	8.31492897900682
0.77880859375	0.03441162109375	8.32377897898448
0.783233642578125	0.0346038818359375	8.33262897896213
0.78765869140625	0.0347869873046875	8.34147897893979
0.792083740234375	0.03497314453125	8.35032897891745
0.7965087890625	0.0351531982421875	8.3591789788951
0.800933837890625	0.035345458984375	8.36802897887276
0.80535888671875	0.0355255126953125	8.37687897885041
0.809783935546875	0.0357208251953125	8.38572897882807
0.814208984375	0.03590087890625	8.39457897880573
0.818634033203125	0.0360748291015625	8.40342897878338
0.82305908203125	0.0362548828125	8.41227897876104
0.827484130859375	0.0364471435546875	8.42112897873869
0.8319091796875	0.036639404296875	8.42997897871635
0.836334228515625	0.036810302734375	8.438828978694
0.84075927734375	0.0369964599609375	8.44767897867166
0.845184326171875	0.03717041015625	8.45652897864932
0.849609375	0.037353515625	8.46537897862697
0.854034423828125	0.0375335693359375	8.47422897860463
0.85845947265625	0.0377105712890625	8.48307897858228
0.862884521484375	0.0378875732421875	8.49192897855994
0.8673095703125	0.0380828857421875	8.5007789785376
0.871734619140625	0.0382598876953125	8.50962897851525
0.87615966796875	0.038433837890625	8.51847897849291
0.880584716796875	0.038623046875	8.52732897847056
0.885009765625	0.038800048828125	8.53617897844822
0.889434814453125	0.0389892578125	8.54502897842588
0.89385986328125	0.0391815185546875	8.55387897840353
0.898284912109375	0.03935546875	8.56272897838119
0.9027099609375	0.03953857421875	8.57157897835884
0.907135009765625	0.0397125244140625	8.5804289783365
0.91156005859375	0.0398773193359375	8.58927897831416
0.915985107421875	0.040057373046875	8.59812897829181
0.92041015625	0.0402435302734375	8.60697897826947
0.924835205078125	0.0404083251953125	8.61582897824712
0.92926025390625	0.04058837890625	8.62467897822478
0.933685302734375	0.0407684326171875	8.63352897820243
0.9381103515625	0.040948486328125	8.64237897818009
0.942535400390625	0.041131591796875	8.65122897815775
0.94696044921875	0.0412994384765625	8.6600789781354
0.951385498046875	0.04149169921875	8.66892897811306
0.955810546875	0.04168701171875	8.67777897809071
0.960235595703125	0.041876220703125	8.68662897806837
0.96466064453125	0.0420440673828125	8.69547897804603
0.969085693359375	0.0422088623046875	8.70432897802368
0.9735107421875	0.042388916015625	8.71317897800134
0.977935791015625	0.0425567626953125	8.72202897797899
0.98236083984375	0.0427154541015625	8.73087897795665
0.986785888671875	0.0429046630859375	8.73972897793431
0.9912109375	0.043096923828125	8.74857897791196
0.995635986328125	0.04326171875	8.75742897788962
1.00006103515625	0.0434478759765625	8.76627897786727
0.995635986328125	0.0429656982421875	8.77512897784493
0.9912109375	0.042486572265625	8.78397897782258
0.986785888671875	0.0420379638671875	8.79282897780024
0.98236083984375	0.0415679931640625	8.8016789777779
0.977935791015625	0.0411102294921875	8.81052897775555
0.9735107421875	0.040655517578125	8.81937897773321
0.969085693359375	0.0402130126953125	8.82822897771086
0.96466064453125	0.0397735595703125	8.83707897768852
0.960235595703125	0.0393218994140625	8.84592897766618
0.955810546875	0.03887939453125	8.85477897764383
0.951385498046875	0.0384490966796875	8.86362897762149
0.94696044921875	0.0380279541015625	8.87247897759914
0.942535400390625	0.037603759765625	8.8813289775768
0.9381103515625	0.0371673583984375	8.89017897755446
0.933685302734375	0.0367401123046875	8.89902897753211
0.92926025390625	0.0363037109375	8.90787897750977
0.924835205078125	0.035882568359375	8.91672897748742
0.92041015625	0.035467529296875	8.92557897746508
0.915985107421875	0.035052490234375	8.93442897744274
0.91156005859375	0.034637451171875	8.94327897742039
0.907135009765625	0.0342376708984375	8.95212897739805
0.9027099609375	0.033843994140625	8.9609789773757
0.898284912109375	0.033441162109375	8.96982897735336
0.89385986328125	0.033038330078125	8.97867897733101
0.889434814453125	0.0326324462890625	8.98752897730867
0.885009765625	0.0322357177734375	8.99637897728633
0.880584716796875	0.031842041015625	9.00522897726398
0.87615966796875	0.0314453125	9.01407897724164
0.871734619140625	0.0310699462890625	9.02292897721929
0.8673095703125	0.0306884765625	9.03177897719695
0.862884521484375	0.030303955078125	9.04062897717461
0.85845947265625	0.029937744140625	9.04947897715226
0.854034423828125	0.029559326171875	9.05832897712992
0.849609375	0.02918701171875	9.06717897710757
0.845184326171875	0.028814697265625	9.07602897708523
0.84075927734375	0.0284332275390625	9.08487897706289
0.836334228515625	0.028070068359375	9.09372897704054
0.8319091796875	0.02769775390625	9.1025789770182
0.827484130859375	0.027337646484375	9.11142897699585
0.82305908203125	0.026971435546875	9.12027897697351
0.818634033203125	0.026611328125	9.12912897695116
0.814208984375	0.0262542724609375	9.13797897692882
0.809783935546875	0.0258941650390625	9.14682897690648
0.80535888671875	0.0255462646484375	9.15567897688413
0.800933837890625	0.0251953125	9.16452897686179
0.7965087890625	0.024853515625	9.17337897683944
0.792083740234375	0.02449951171875	9.1822289768171
0.78765869140625	0.0241455078125	9.19107897679476
0.783233642578125	0.0238006591796875	9.19992897677241
0.77880859375	0.0234619140625	9.20877897675007
0.774383544921875	0.0231170654296875	9.21762897672772
0.76995849609375	0.0227783203125	9.22647897670538
0.765533447265625	0.022442626953125	9.23532897668304
0.7611083984375	0.0221099853515625	9.24417897666069
0.756683349609375	0.021771240234375	9.25302897663835
0.75225830078125	0.021441650390625	9.261878976616
0.747833251953125	0.0211151123046875	9.27072897659366
0.743408203125	0.0207794189453125	9.27957897657132
0.738983154296875	0.0204498291015625	9.28842897654897
0.73455810546875	0.0201324462890625	9.29727897652663
0.730133056640625	0.0197967529296875	9.30612897650428
0.7257080078125	0.019482421875	9.31497897648194
0.721282958984375	0.0191680908203125	9.32382897645959
0.71685791015625	0.01884765625	9.33267897643725
0.712432861328125	0.0185333251953125	9.34152897641491
0.7080078125	0.018212890625	9.35037897639256
0.703582763671875	0.0179046630859375	9.35922897637022
0.69915771484375	0.01759033203125	9.36807897634787
0.694732666015625	0.017279052734375	9.37692897632553
0.6903076171875	0.016973876953125	9.38577897630319
0.685882568359375	0.0166656494140625	9.39462897628084
0.68145751953125	0.0163604736328125	9.4034789762585
0.677032470703125	0.016058349609375	9.41232897623615
0.672607421875	0.015753173828125	9.42117897621381
0.668182373046875	0.0154510498046875	9.43002897619147
0.66375732421875	0.0151519775390625	9.43887897616912
0.659332275390625	0.01485595703125	9.44772897614678
0.6549072265625	0.0145599365234375	9.45657897612443
0.650482177734375	0.0142608642578125	9.46542897610209
0.64605712890625	0.0139678955078125	9.47427897607975
0.641632080078125	0.0136749267578125	9.4831289760574
0.63720703125	0.0133819580078125	9.49197897603506
0.632781982421875	0.013092041015625	9.50082897601271
0.62835693359375	0.01280517578125	9.50967897599037
0.623931884765625	0.0125152587890625	9.51852897596802
0.6195068359375	0.0122344970703125	9.52737897594568
0.615081787109375	0.0119537353515625	9.53622897592334
0.61065673828125	0.0116729736328125	9.54507897590099
0.606231689453125	0.01138916015625	9.55392897587865
0.601806640625	0.011114501953125	9.5627789758563
0.597381591796875	0.01083984375	9.57162897583396
0.59295654296875	0.0105560302734375	9.58047897581162
0.588531494140625	0.0102813720703125	9.58932897578927
0.5841064453125	0.010009765625	9.59817897576693
0.579681396484375	0.0097320556640625	9.60702897574458
0.57525634765625	0.0094635009765625	9.61587897572224
0.570831298828125	0.009197998046875	9.6247289756999
0.56640625	0.0089263916015625	9.63357897567755
0.561981201171875	0.0086578369140625	9.64242897565521
0.55755615234375	0.008392333984375	9.65127897563286
0.553131103515625	0.0081329345703125	9.66012897561052
0.5487060546875	0.007867431640625	9.66897897558817
0.544281005859375	0.007611083984375	9.67782897556583
0.53985595703125	0.0073516845703125	9.68667897554349
0.535430908203125	0.0070892333984375	9.69552897552114
0.531005859375	0.0068359375	9.7043789754988
0.526580810546875	0.0065765380859375	9.71322897547645
0.52215576171875	0.006317138671875	9.72207897545411
0.517730712890625	0.0060638427734375	9.73092897543177
0.5133056640625	0.005810546875	9.73977897540942
0.508880615234375	0.0055572509765625	9.74862897538708
0.50445556640625	0.005303955078125	9.75747897536473
0.500030517578125	0.0050537109375	9.76632897534239
0.49560546875	0.00480560302734375	9.77517897532005
0.491180419921875	0.00455841064453125	9.7840289752977
0.48675537109375	0.004310302734375	9.79287897527536
0.482330322265625	0.004063720703125	9.80172897525301
0.4779052734375	0.00381805419921875	9.81057897523067
0.473480224609375	0.00357818603515625	9.81942897520833
0.46905517578125	0.0033331298828125	9.82827897518598
0.464630126953125	0.00309051513671875	9.83712897516364
0.460205078125	0.00284820556640625	9.84597897514129
0.455780029296875	0.002607421875	9.85482897511895
0.45135498046875	0.00236602783203125	9.8636789750966
0.446929931640625	0.00212615966796875	9.87252897507426
0.4425048828125	0.00188720703125	9.88137897505192
0.438079833984375	0.0016497802734375	9.89022897502957
0.43365478515625	0.0014117431640625	9.89907897500723
0.429229736328125	0.0011761474609375	9.90792897498488
0.4248046875	0.00093963623046875	9.91677897496254
0.420379638671875	0.000704345703125	9.9256289749402
0.41595458984375	0.000470062255859375	9.93447897491785
0.411529541015625	0.000235687255859375	9.94332897489551
0.4071044921875	2.227783203125E-06	9.95217897487316
0.402679443359375	-0.00023065185546875	9.96102897485082
0.39825439453125	-0.000462982177734375	9.96987897482848
0.393829345703125	-0.00069512939453125	9.97872897480613
0.389404296875	-0.0009259033203125	9.98757897478379
0.384979248046875	-0.0011566162109375	9.99642897476144
0.38055419921875	-0.00138763427734375	10.0052789747391
0.376129150390625	-0.00161712646484375	10.0141289747168
0.3717041015625	-0.00184661865234375	10.0229789746944
0.367279052734375	-0.002076416015625	10.0318289746721
0.36285400390625	-0.0023052978515625	10.0406789746497
0.358428955078125	-0.00253387451171875	10.0495289746274
0.35400390625	-0.00276275634765625	10.058378974605
0.349578857421875	-0.00298736572265625	10.0672289745827
0.34515380859375	-0.0032171630859375	10.0760789745603
0.340728759765625	-0.00344451904296875	10.084928974538
0.3363037109375	-0.00367156982421875	10.0937789745157
0.331878662109375	-0.00389984130859375	10.1026289744933
0.32745361328125	-0.004127197265625	10.111478974471
0.323028564453125	-0.0043524169921875	10.1203289744486
0.318603515625	-0.004578857421875	10.1291789744263
0.314178466796875	-0.00480621337890625	10.1380289744039
0.30975341796875	-0.005032958984375	10.1468789743816
0.305328369140625	-0.00526092529296875	10.1557289743592
0.3009033203125	-0.00548248291015625	10.1645789743369
0.296478271484375	-0.0057086181640625	10.1734289743146
0.29205322265625	-0.00593597412109375	10.1822789742922
0.287628173828125	-0.0061614990234375	10.1911289742699
0.283203125	-0.00640869140625	10.1999789742475
0.278778076171875	-0.0066253662109375	10.2088289742252
0.27435302734375	-0.006842041015625	10.2176789742028
0.269927978515625	-0.0070648193359375	10.2265289741805
0.2655029296875	-0.00728759765625	10.2353789741582
0.261077880859375	-0.0075164794921875	10.2442289741358
0.25665283203125	-0.0077362060546875	10.2530789741135
0.252227783203125	-0.0079559326171875	10.2619289740911
0.247802734375	-0.008184814453125	10.2707789740688
0.243377685546875	-0.008404541015625	10.2796289740464
0.23895263671875	-0.0086273193359375	10.2884789740241
0.234527587890625	-0.00885009765625	10.2973289740017
0.2301025390625	-0.009075927734375	10.3061789739794
0.225677490234375	-0.009295654296875	10.3150289739571
0.22125244140625	-0.0095184326171875	10.3238789739347
0.216827392578125	-0.0097442626953125	10.3327289739124
0.21240234375	-0.0099639892578125	10.34157897389
0.207977294921875	-0.0101898193359375	10.3504289738677
0.20355224609375	-0.0104095458984375	10.3592789738453
0.199127197265625	-0.0106292724609375	10.368128973823
0.1947021484375	-0.01085205078125	10.3769789738006
0.190277099609375	-0.011065673828125	10.3858289737783
0.18585205078125	-0.01129150390625	10.394678973756
0.181427001953125	-0.0115142822265625	10.4035289737336
0.177001953125	-0.011737060546875	10.4123789737113
0.172576904296875	-0.0119537353515625	10.4212289736889
0.16815185546875	-0.0121734619140625	10.4300789736666
0.163726806640625	-0.0123992919921875	10.4389289736442
0.1593017578125	-0.012615966796875	10.4477789736219
0.154876708984375	-0.012835693359375	10.4566289735995
0.15045166015625	-0.0130584716796875	10.4654789735772
0.146026611328125	-0.0132720947265625	10.4743289735549
0.1416015625	-0.01348876953125	10.4831789735325
0.137176513671875	-0.0137115478515625	10.4920289735102
0.13275146484375	-0.0139312744140625	10.5008789734878
0.128326416015625	-0.01414794921875	10.5097289734655
0.1239013671875	-0.014361572265625	10.5185789734431
0.119476318359375	-0.0145904541015625	10.5274289734208
0.11505126953125	-0.0148040771484375	10.5362789733985
0.110626220703125	-0.0150238037109375	10.5451289733761
0.106201171875	-0.0152435302734375	10.5539789733538
0.101776123046875	-0.015460205078125	10.5628289733314
0.09735107421875	-0.0156768798828125	10.5716789733091
0.092926025390625	-0.015899658203125	10.5805289732867
0.0885009765625	-0.016119384765625	10.5893789732644
0.084075927734375	-0.0163360595703125	10.598228973242
0.07965087890625	-0.016552734375	10.6070789732197
0.075225830078125	-0.0167694091796875	10.6159289731974
0.07080078125	-0.0169830322265625	10.624778973175
0.066375732421875	-0.0171966552734375	10.6336289731527
0.06195068359375	-0.017413330078125	10.6424789731303
0.057525634765625	-0.017626953125	10.651328973108
0.0531005859375	-0.017852783203125	10.6601789730856
0.048675537109375	-0.0180633544921875	10.6690289730633
0.04425048828125	-0.01827392578125	10.6778789730409
0.039825439453125	-0.018487548828125	10.6867289730186
0.035400390625	-0.0186981201171875	10.6955789729963
0.030975341796875	-0.0189208984375	10.7044289729739
0.02655029296875	-0.019134521484375	10.7132789729516
0.022125244140625	-0.019354248046875	10.7221289729292
0.0177001953125	-0.0195648193359375	10.7309789729069
0.013275146484375	-0.0197845458984375	10.7398289728845
0.00885009765625	-0.0199951171875	10.7486789728622
0.004425048828125	-0.0202117919921875	10.7575289728399
0	-0.0204193115234375	10.7663789728175
0.004425048828125	-0.0200592041015625	10.7752289727952
0.00885009765625	-0.0197021484375	10.7840789727728
0.013275146484375	-0.0193450927734375	10.7929289727505
0.0177001953125	-0.018994140625	10.8017789727281
0.022125244140625	-0.018646240234375	10.8106289727058
0.02655029296875	-0.0183013916015625	10.8194789726834
0.030975341796875	-0.01795654296875	10.8283289726611
0.035400390625	-0.01761474609375	10.8371789726388
0.039825439453125	-0.0172821044921875	10.8460289726164
0.04425048828125	-0.016949462890625	10.8548789725941
0.048675537109375	-0.0166107177734375	10.8637289725717
0.0531005859375	-0.016278076171875	10.8725789725494
0.057525634765625	-0.0159576416015625	10.881428972527
0.06195068359375	-0.015631103515625	10.8902789725047
0.066375732421875	-0.0153045654296875	10.8991289724823
0.07080078125	-0.014990234375	10.90797897246
0.075225830078125	-0.014666748046875	10.9168289724377
0.07965087890625	-0.01435546875	10.9256789724153
0.084075927734375	-0.014044189453125	10.934528972393
0.0885009765625	-0.01373291015625	10.9433789723706
0.092926025390625	-0.0134246826171875	10.9522289723483
0.09735107421875	-0.013116455078125	10.9610789723259
0.101776123046875	-0.0128173828125	10.9699289723036
0.106201171875	-0.0125091552734375	10.9787789722812
0.110626220703125	-0.012213134765625	10.9876289722589
0.11505126953125	-0.0119110107421875	10.9964789722366
0.119476318359375	-0.0116119384765625	11.0053289722142
0.1239013671875	-0.0113189697265625	11.0141789721919
0.128326416015625	-0.0110198974609375	11.0230289721695
0.13275146484375	-0.0107269287109375	11.0318789721472
0.137176513671875	-0.01043701171875	11.0407289721248
0.1416015625	-0.010150146484375	11.0495789721025
0.146026611328125	-0.00986328125	11.0584289720802
0.15045166015625	-0.009576416015625	11.0672789720578
0.154876708984375	-0.00928955078125	11.0761289720355
0.1593017578125	-0.0090118408203125	11.0849789720131
0.163726806640625	-0.00872802734375	11.0938289719908
0.16815185546875	-0.0084503173828125	11.1026789719684
0.172576904296875	-0.0081695556640625	11.1115289719461
0.177001953125	-0.0078948974609375	11.1203789719237
0.181427001953125	-0.0076263427734375	11.1292289719014
0.18585205078125	-0.0073486328125	11.1380789718791
0.190277099609375	-0.0070770263671875	11.1469289718567
0.1947021484375	-0.0068084716796875	11.1557789718344
0.199127197265625	-0.0065399169921875	11.164628971812
0.20355224609375	-0.0062713623046875	11.1734789717897
0.207977294921875	-0.0060089111328125	11.1823289717673
0.21240234375	-0.005743408203125	11.191178971745
0.216827392578125	-0.005474853515625	11.2000289717226
0.22125244140625	-0.0052154541015625	11.2088789717003
0.225677490234375	-0.00495697021484375	11.217728971678
0.2301025390625	-0.004697265625	11.2265789716556
0.234527587890625	-0.00444061279296875	11.2354289716333
0.23895263671875	-0.00418426513671875	11.2442789716109
0.243377685546875	-0.0039263916015625	11.2531289715886
0.247802734375	-0.0036859130859375	11.2619789715662
0.252227783203125	-0.00343109130859375	11.2708289715439
0.25665283203125	-0.00317779541015625	11.2796789715215
0.261077880859375	-0.0029254150390625	11.2885289714992
0.2655029296875	-0.00267364501953125	11.2973789714769
0.269927978515625	-0.002423095703125	11.3062289714545
0.27435302734375	-0.0021734619140625	11.3150789714322
0.278778076171875	-0.0019256591796875	11.3239289714098
0.283203125	-0.00167877197265625	11.3327789713875
0.287628173828125	-0.00143310546875	11.3416289713651
0.29205322265625	-0.00118682861328125	11.3504789713428
0.296478271484375	-0.0009417724609375	11.3593289713205
0.3009033203125	-0.0006976318359375	11.3681789712981
0.305328369140625	-0.000454437255859375	11.3770289712758
0.30975341796875	-0.00021160888671875	11.3858789712534
0.314178466796875	3.21319580078125E-05	11.3947289712311
0.318603515625	0.000273284912109375	11.4035789712087
0.323028564453125	0.000513916015625	11.4124289711864
0.32745361328125	0.00075408935546875	11.421278971164
0.331878662109375	0.00099334716796875	11.4301289711417
0.3363037109375	0.001231689453125	11.4389789711194
0.340728759765625	0.0014697265625	11.447828971097
0.34515380859375	0.00170745849609375	11.4566789710747
0.349578857421875	0.00194488525390625	11.4655289710523
0.35400390625	0.00218048095703125	11.47437897103
0.358428955078125	0.0024169921875	11.4832289710076
0.36285400390625	0.002652587890625	11.4920789709853
0.367279052734375	0.0028887939453125	11.5009289709629
0.3717041015625	0.00312255859375	11.5097789709406
0.376129150390625	0.0033575439453125	11.5186289709183
0.38055419921875	0.00359222412109375	11.5274789708959
0.384979248046875	0.00382598876953125	11.5363289708736
0.389404296875	0.004061279296875	11.5451789708512
0.393829345703125	0.00429229736328125	11.5540289708289
0.39825439453125	0.0045263671875	11.5628789708065
0.402679443359375	0.00475799560546875	11.5717289707842
0.4071044921875	0.00499053955078125	11.5805789707618
0.411529541015625	0.00522247314453125	11.5894289707395
0.41595458984375	0.00545318603515625	11.5982789707172
0.420379638671875	0.0056866455078125	11.6071289706948
0.4248046875	0.00591705322265625	11.6159789706725
0.429229736328125	0.00614837646484375	11.6248289706501
0.43365478515625	0.00638427734375	11.6336789706278
0.438079833984375	0.0066162109375	11.6425289706054
0.4425048828125	0.00684814453125	11.6513789705831
0.446929931640625	0.0070770263671875	11.6602289705608
0.45135498046875	0.0073089599609375	11.6690789705384
0.455780029296875	0.007537841796875	11.6779289705161
0.460205078125	0.007769775390625	11.6867789704937
0.464630126953125	0.00799560546875	11.6956289704714
0.46905517578125	0.0082244873046875	11.704478970449
0.473480224609375	0.008453369140625	11.7133289704267
0.4779052734375	0.0086822509765625	11.7221789704043
0.482330322265625	0.0089080810546875	11.731028970382
0.48675537109375	0.009136962890625	11.7398789703597
0.491180419921875	0.0093658447265625	11.7487289703373
0.49560546875	0.0095916748046875	11.757578970315
0.500030517578125	0.0098175048828125	11.7664289702926
0.50445556640625	0.01004638671875	11.7752789702703
0.508880615234375	0.0102752685546875	11.7841289702479
0.5133056640625	0.0105010986328125	11.7929789702256
0.517730712890625	0.0107269287109375	11.8018289702032
0.52215576171875	0.01094970703125	11.8106789701809
0.526580810546875	0.011175537109375	11.8195289701586
0.531005859375	0.0114044189453125	11.8283789701362
0.535430908203125	0.01163330078125	11.8372289701139
0.53985595703125	0.0118560791015625	11.8460789700915
0.544281005859375	0.0120849609375	11.8549289700692
0.5487060546875	0.0123077392578125	11.8637789700468
0.553131103515625	0.012530517578125	11.8726289700245
0.55755615234375	0.0127593994140625	11.8814789700021
0.561981201171875	0.0129852294921875	11.8903289699798
0.56640625	0.0132110595703125	11.8991789699575
0.570831298828125	0.013433837890625	11.9080289699351
0.57525634765625	0.013653564453125	11.9168789699128
0.579681396484375	0.0138824462890625	11.9257289698904
0.5841064453125	0.01409912109375	11.9345789698681
0.588531494140625	0.01431884765625	11.9434289698457
0.59295654296875	0.0145416259765625	11.9522789698234
0.597381591796875	0.014764404296875	11.9611289698011
0.601806640625	0.01497802734375	11.9699789697787
0.606231689453125	0.0152008056640625	11.9788289697564
0.61065673828125	0.0154296875	11.987678969734
0.615081787109375	0.0156402587890625	11.9965289697117
0.6195068359375	0.015869140625	12.0053789696893
0.623931884765625	0.016082763671875	12.014228969667
0.62835693359375	0.0163055419921875	12.0230789696446
0.632781982421875	0.0165283203125	12.0319289696223
0.63720703125	0.0167510986328125	12.0407789696
0.641632080078125	0.0169647216796875	12.0496289695776
0.64605712890625	0.0171875	12.0584789695553
0.650482177734375	0.0174102783203125	12.0673289695329
0.6549072265625	0.017620849609375	12.0761789695106
0.659332275390625	0.0178466796875	12.0850289694882
0.66375732421875	0.01806640625	12.0938789694659
0.668182373046875	0.0182952880859375	12.1027289694435
0.672607421875	0.018505859375	12.1115789694212
0.677032470703125	0.0187255859375	12.1204289693989
0.68145751953125	0.018939208984375	12.1292789693765
0.685882568359375	0.019171142578125	12.1381289693542
0.6903076171875	0.0193817138671875	12.1469789693318
0.694732666015625	0.0196014404296875	12.1558289693095
0.69915771484375	0.019818115234375	12.1646789692871
0.703582763671875	0.020037841796875	12.1735289692648
0.7080078125	0.0202545166015625	12.1823789692424
0.712432861328125	0.020458984375	12.1912289692201
0.71685791015625	0.0206787109375	12.2000789691978
0.721282958984375	0.0208953857421875	12.2089289691754
0.7257080078125	0.021112060546875	12.2177789691531
0.730133056640625	0.0213287353515625	12.2266289691307
0.73455810546875	0.02154541015625	12.2354789691084
0.738983154296875	0.021759033203125	12.244328969086
0.743408203125	0.021966552734375	12.2531789690637
0.747833251953125	0.0221771240234375	12.2620289690414
0.75225830078125	0.022393798828125	12.270878969019
0.756683349609375	0.0226104736328125	12.2797289689967
0.7611083984375	0.0228240966796875	12.2885789689743
0.765533447265625	0.023040771484375	12.297428968952
0.76995849609375	0.0232513427734375	12.3062789689296
0.774383544921875	0.0234619140625	12.3151289689073
0.77880859375	0.0236785888671875	12.3239789688849
0.783233642578125	0.0238983154296875	12.3328289688626
0.78765869140625	0.02410888671875	12.3416789688403
0.792083740234375	0.0243194580078125	12.3505289688179
0.7965087890625	0.024530029296875	12.3593789687956
0.800933837890625	0.024749755859375	12.3682289687732
0.80535888671875	0.0249542236328125	12.3770789687509
0.809783935546875	0.02515869140625	12.3859289687285
0.814208984375	0.0253662109375	12.3947789687062
0.818634033203125	0.025579833984375	12.4036289686838
0.82305908203125	0.0257904052734375	12.4124789686615
0.827484130859375	0.0259979248046875	12.4213289686392
0.8319091796875	0.026202392578125	12.4301789686168
0.836334228515625	0.0264129638671875	12.4390289685945
0.84075927734375	0.0266204833984375	12.4478789685721
0.845184326171875	0.0268310546875	12.4567289685498
0.849609375	0.027032470703125	12.4655789685274
0.854034423828125	0.02723388671875	12.4744289685051
0.85845947265625	0.027447509765625	12.4832789684828
0.862884521484375	0.0276519775390625	12.4921289684604
0.8673095703125	0.027862548828125	12.5009789684381
0.871734619140625	0.028076171875	12.5098289684157
0.87615966796875	0.0282684326171875	12.5186789683934
0.880584716796875	0.0285003662109375	12.527528968371
0.885009765625	0.02869873046875	12.5363789683487
0.889434814453125	0.028912353515625	12.5452289683263
0.89385986328125	0.029119873046875	12.554078968304
0.898284912109375	0.0293243408203125	12.5629289682817
0.9027099609375	0.029541015625	12.5717789682593
0.907135009765625	0.029742431640625	12.580628968237
0.91156005859375	0.02994384765625	12.5894789682146
0.915985107421875	0.0301605224609375	12.5983289681923
0.92041015625	0.0303680419921875	12.6071789681699
0.924835205078125	0.03056640625	12.6160289681476
0.92926025390625	0.030780029296875	12.6248789681252
0.933685302734375	0.030987548828125	12.6337289681029
0.9381103515625	0.0311859130859375	12.6425789680806
0.942535400390625	0.0313934326171875	12.6514289680582
0.94696044921875	0.03160400390625	12.6602789680359
0.951385498046875	0.0318115234375	12.6691289680135
0.955810546875	0.0320159912109375	12.6779789679912
0.960235595703125	0.0322235107421875	12.6868289679688
0.96466064453125	0.032440185546875	12.6956789679465
0.969085693359375	0.0326385498046875	12.7045289679241
0.9735107421875	0.0328369140625	12.7133789679018
0.977935791015625	0.03304443359375	12.7222289678795
0.98236083984375	0.0332489013671875	12.7310789678571
0.986785888671875	0.033453369140625	12.7399289678348
0.9912109375	0.0336517333984375	12.7487789678124
0.995635986328125	0.033856201171875	12.7576289677901
1.00006103515625	0.0340545654296875	12.7664789677677
0.995635986328125	0.0336395263671875	12.7753289677454
0.9912109375	0.03321533203125	12.7841789677231
0.986785888671875	0.032806396484375	12.7930289677007
0.98236083984375	0.032391357421875	12.8018789676784
0.977935791015625	0.03199462890625	12.810728967656
0.9735107421875	0.0316131591796875	12.8195789676337
0.969085693359375	0.0312225341796875	12.8284289676113
0.96466064453125	0.030816650390625	12.837278967589
0.960235595703125	0.0304229736328125	12.8461289675666
0.955810546875	0.030029296875	12.8549789675443
0.951385498046875	0.029644775390625	12.863828967522
0.94696044921875	0.0292724609375	12.8726789674996
0.942535400390625	0.028887939453125	12.8815289674773
0.9381103515625	0.028515625	12.8903789674549
0.933685302734375	0.0281494140625	12.8992289674326
0.92926025390625	0.027777099609375	12.9080789674102
0.924835205078125	0.0273956298828125	12.9169289673879
0.92041015625	0.0270263671875	12.9257789673655
0.915985107421875	0.0266632080078125	12.9346289673432
0.91156005859375	0.0262969970703125	12.9434789673209
0.907135009765625	0.025946044921875	12.9523289672985
0.9027099609375	0.0255859375	12.9611789672762
0.898284912109375	0.0252197265625	12.9700289672538
0.89385986328125	0.024871826171875	12.9788789672315
0.889434814453125	0.0245208740234375	12.9877289672091
0.885009765625	0.024169921875	12.9965789671868
0.880584716796875	0.023828125	13.0054289671644
0.87615966796875	0.0234771728515625	13.0142789671421
0.871734619140625	0.02313232421875	13.0231289671198
0.8673095703125	0.02279052734375	13.0319789670974
0.862884521484375	0.02244873046875	13.0408289670751
0.85845947265625	0.0221160888671875	13.0496789670527
0.854034423828125	0.0217803955078125	13.0585289670304
0.849609375	0.0214508056640625	13.067378967008
0.845184326171875	0.0211181640625	13.0762289669857
0.84075927734375	0.0207916259765625	13.0850789669634
0.836334228515625	0.0204620361328125	13.093928966941
0.8319091796875	0.02012939453125	13.1027789669187
0.827484130859375	0.0198089599609375	13.1116289668963
0.82305908203125	0.019488525390625	13.120478966874
0.818634033203125	0.0191619873046875	13.1293289668516
0.814208984375	0.0188446044921875	13.1381789668293
0.809783935546875	0.0185272216796875	13.1470289668069
0.80535888671875	0.0182098388671875	13.1558789667846
0.800933837890625	0.017901611328125	13.1647289667623
0.7965087890625	0.01759033203125	13.1735789667399
0.792083740234375	0.0172760009765625	13.1824289667176
0.78765869140625	0.0169708251953125	13.1912789666952
0.783233642578125	0.0166534423828125	13.2001289666729
0.77880859375	0.016357421875	13.2089789666505
0.774383544921875	0.016046142578125	13.2178289666282
0.76995849609375	0.0157440185546875	13.2266789666058
0.765533447265625	0.01544189453125	13.2355289665835
0.7611083984375	0.0151397705078125	13.2443789665612
0.756683349609375	0.01484375	13.2532289665388
0.75225830078125	0.0145477294921875	13.2620789665165
0.747833251953125	0.0142547607421875	13.2709289664941
0.743408203125	0.0139617919921875	13.2797789664718
0.738983154296875	0.013677978515625	13.2886289664494
0.73455810546875	0.0133819580078125	13.2974789664271
0.730133056640625	0.0130889892578125	13.3063289664047
0.7257080078125	0.0128021240234375	13.3151789663824
0.721282958984375	0.0125152587890625	13.3240289663601
0.71685791015625	0.0122344970703125	13.3328789663377
0.712432861328125	0.01195068359375	13.3417289663154
0.7080078125	0.0116668701171875	13.350578966293
0.703582763671875	0.0113861083984375	13.3594289662707
0.69915771484375	0.011102294921875	13.3682789662483
0.694732666015625	0.0108306884765625	13.377128966226
0.6903076171875	0.01055908203125	13.3859789662037
0.685882568359375	0.0102813720703125	13.3948289661813
0.68145751953125	0.010009765625	13.403678966159
0.677032470703125	0.009735107421875	13.4125289661366
0.672607421875	0.0094635009765625	13.4213789661143
0.668182373046875	0.00919189453125	13.4302289660919
0.66375732421875	0.00892333984375	13.4390789660696
0.659332275390625	0.00865478515625	13.4479289660472
0.6549072265625	0.008392333984375	13.4567789660249
0.650482177734375	0.0081268310546875	13.4656289660026
0.64605712890625	0.0078643798828125	13.4744789659802
0.641632080078125	0.00760498046875	13.4833289659579
0.63720703125	0.0073455810546875	13.4921789659355
0.632781982421875	0.007086181640625	13.5010289659132
0.62835693359375	0.0068267822265625	13.5098789658908
0.623931884765625	0.0065673828125	13.5187289658685
0.6195068359375	0.0063079833984375	13.5275789658461
0.615081787109375	0.0060546875	13.5364289658238
0.61065673828125	0.0058013916015625	13.5452789658015
0.606231689453125	0.005548095703125	13.5541289657791
0.601806640625	0.0052947998046875	13.5629789657568
0.597381591796875	0.00504150390625	13.5718289657344
0.59295654296875	0.00479156494140625	13.5806789657121
0.588531494140625	0.004544677734375	13.5895289656897
0.5841064453125	0.00429840087890625	13.5983789656674
0.579681396484375	0.00405181884765625	13.607228965645
0.57525634765625	0.003804931640625	13.6160789656227
0.570831298828125	0.00356536865234375	13.6249289656004
0.56640625	0.0033203125	13.633778965578
0.561981201171875	0.00307525634765625	13.6426289655557
0.55755615234375	0.002833251953125	13.6514789655333
0.553131103515625	0.00259307861328125	13.660328965511
0.5487060546875	0.0023516845703125	13.6691789654886
0.544281005859375	0.00211273193359375	13.6780289654663
0.53985595703125	0.00187255859375	13.686878965444
0.535430908203125	0.00163482666015625	13.6957289654216
0.531005859375	0.00139678955078125	13.7045789653993
0.526580810546875	0.001158447265625	13.7134289653769
0.52215576171875	0.00092254638671875	13.7222789653546
0.517730712890625	0.0006866455078125	13.7311289653322
0.5133056640625	0.000451416015625	13.7399789653099
0.508880615234375	0.000216583251953125	13.7488289652875
0.50445556640625	-1.72271728515625E-05	13.7576789652652
0.500030517578125	-0.000250701904296875	13.7665289652429
0.49560546875	-0.000483551025390625	13.7753789652205
0.491180419921875	-0.000716461181640625	13.7842289651982
0.48675537109375	-0.00094818115234375	13.7930789651758
0.482330322265625	-0.0011798095703125	13.8019289651535
0.4779052734375	-0.00141082763671875	13.8107789651311
0.473480224609375	-0.0016424560546875	13.8196289651088
0.46905517578125	-0.00187286376953125	13.8284789650864
0.464630126953125	-0.00210174560546875	13.8373289650641
0.460205078125	-0.00233062744140625	13.8461789650418
0.455780029296875	-0.002559814453125	13.8550289650194
0.45135498046875	-0.0027886962890625	13.8638789649971
0.446929931640625	-0.00301788330078125	13.8727289649747
0.4425048828125	-0.00324798583984375	13.8815789649524
0.438079833984375	-0.00347412109375	13.89042896493
0.43365478515625	-0.00370208740234375	13.8992789649077
0.429229736328125	-0.0039312744140625	13.9081289648853
0.4248046875	-0.00415924072265625	13.916978964863
0.420379638671875	-0.0043865966796875	13.9258289648407
0.41595458984375	-0.0046136474609375	13.9346789648183
0.411529541015625	-0.00483917236328125	13.943528964796
0.4071044921875	-0.00506744384765625	13.9523789647736
0.402679443359375	-0.00529327392578125	13.9612289647513
0.39825439453125	-0.005518798828125	13.9700789647289
0.393829345703125	-0.0057476806640625	13.9789289647066
0.389404296875	-0.00597320556640625	13.9877789646843
0.384979248046875	-0.00620025634765625	13.9966289646619
0.38055419921875	-0.006439208984375	14.0054789646396
0.376129150390625	-0.0066619873046875	14.0143289646172
0.3717041015625	-0.006884765625	14.0231789645949
0.367279052734375	-0.0071075439453125	14.0320289645725
0.36285400390625	-0.0073333740234375	14.0408789645502
0.358428955078125	-0.00755615234375	14.0497289645278
0.35400390625	-0.0077850341796875	14.0585789645055
0.349578857421875	-0.00799560546875	14.0674289644832
0.34515380859375	-0.008221435546875	14.0762789644608
0.340728759765625	-0.0084442138671875	14.0851289644385
0.3363037109375	-0.008673095703125	14.0939789644161
0.331878662109375	-0.0088958740234375	14.1028289643938
0.32745361328125	-0.0091217041015625	14.1116789643714
0.323028564453125	-0.0093414306640625	14.1205289643491
0.318603515625	-0.0095672607421875	14.1293789643267
0.314178466796875	-0.0097869873046875	14.1382289643044
0.30975341796875	-0.0100128173828125	14.1470789642821
0.305328369140625	-0.0102386474609375	14.1559289642597
0.3009033203125	-0.01046142578125	14.1647789642374
0.296478271484375	-0.0106842041015625	14.173628964215
0.29205322265625	-0.0109039306640625	14.1824789641927
0.287628173828125	-0.011126708984375	14.1913289641703
0.283203125	-0.0113494873046875	14.200178964148
0.278778076171875	-0.011572265625	14.2090289641257
0.27435302734375	-0.0117919921875	14.2178789641033
0.269927978515625	-0.0120147705078125	14.226728964081
0.2655029296875	-0.012237548828125	14.2355789640586
0.261077880859375	-0.0124603271484375	14.2444289640363
0.25665283203125	-0.01268310546875	14.2532789640139
0.252227783203125	-0.0128997802734375	14.2621289639916
0.247802734375	-0.01312255859375	14.2709789639692
0.243377685546875	-0.0133453369140625	14.2798289639469
0.23895263671875	-0.013568115234375	14.2886789639246
0.234527587890625	-0.013787841796875	14.2975289639022
0.2301025390625	-0.014007568359375	14.3063789638799
0.225677490234375	-0.014227294921875	14.3152289638575
0.22125244140625	-0.014453125	14.3240789638352
0.216827392578125	-0.0146759033203125	14.3329289638128
0.21240234375	-0.0148956298828125	14.3417789637905
0.207977294921875	-0.015118408203125	14.3506289637681
0.20355224609375	-0.0153411865234375	14.3594789637458
0.199127197265625	-0.015557861328125	14.3683289637235
0.1947021484375	-0.0157745361328125	14.3771789637011
0.190277099609375	-0.015997314453125	14.3860289636788
0.18585205078125	-0.0162139892578125	14.3948789636564
0.181427001953125	-0.0164337158203125	14.4037289636341
0.177001953125	-0.016650390625	14.4125789636117
0.172576904296875	-0.0168670654296875	14.4214289635894
0.16815185546875	-0.0170928955078125	14.430278963567
0.163726806640625	-0.0173187255859375	14.4391289635447
0.1593017578125	-0.0175384521484375	14.4479789635224
0.154876708984375	-0.017755126953125	14.4568289635
0.15045166015625	-0.017974853515625	14.4656789634777
0.146026611328125	-0.0181884765625	14.4745289634553
0.1416015625	-0.0184051513671875	14.483378963433
0.137176513671875	-0.0186279296875	14.4922289634106
0.13275146484375	-0.01884765625	14.5010789633883
0.128326416015625	-0.0190673828125	14.509928963366
0.1239013671875	-0.019281005859375	14.5187789633436
0.119476318359375	-0.019500732421875	14.5276289633213
0.11505126953125	-0.01971435546875	14.5364789632989
0.110626220703125	-0.01993408203125	14.5453289632766
0.106201171875	-0.0201416015625	14.5541789632542
0.101776123046875	-0.020361328125	14.5630289632319
0.09735107421875	-0.0205657958984375	14.5718789632095
0.092926025390625	-0.02078857421875	14.5807289631872
0.0885009765625	-0.0210052490234375	14.5895789631649
0.084075927734375	-0.0212158203125	14.5984289631425
0.07965087890625	-0.021429443359375	14.6072789631202
0.075225830078125	-0.021649169921875	14.6161289630978
0.07080078125	-0.0218536376953125	14.6249789630755
0.066375732421875	-0.022064208984375	14.6338289630531
0.06195068359375	-0.0222808837890625	14.6426789630308
0.057525634765625	-0.0224945068359375	14.6515289630084
0.0531005859375	-0.0227081298828125	14.6603789629861
0.048675537109375	-0.0229217529296875	14.6692289629638
0.04425048828125	-0.0231353759765625	14.6780789629414
0.039825439453125	-0.023345947265625	14.6869289629191
0.035400390625	-0.0235626220703125	14.6957789628967
0.030975341796875	-0.02376708984375	14.7046289628744
0.02655029296875	-0.0239898681640625	14.713478962852
0.022125244140625	-0.024200439453125	14.7223289628297
0.0177001953125	-0.0244110107421875	14.7311789628073
0.013275146484375	-0.0246185302734375	14.740028962785
0.00885009765625	-0.0248321533203125	14.7488789627627
0.004425048828125	-0.0250396728515625	14.7577289627403
0	-0.0252471923828125	14.766578962718
0.004425048828125	-0.02486572265625	14.7754289626956
0.00885009765625	-0.0244720458984375	14.7842789626733
0.013275146484375	-0.0240814208984375	14.7931289626509
0.0177001953125	-0.0237060546875	14.8019789626286
0.022125244140625	-0.02333984375	14.8108289626063
0.02655029296875	-0.022967529296875	14.8196789625839
0.030975341796875	-0.02259521484375	14.8285289625616
0.035400390625	-0.02222900390625	14.8373789625392
0.039825439453125	-0.0218719482421875	14.8462289625169
0.04425048828125	-0.0215087890625	14.8550789624945
0.048675537109375	-0.021148681640625	14.8639289624722
0.0531005859375	-0.0208038330078125	14.8727789624498
0.057525634765625	-0.02044677734375	14.8816289624275
0.06195068359375	-0.0201019287109375	14.8904789624052
0.066375732421875	-0.019757080078125	14.8993289623828
0.07080078125	-0.0194122314453125	14.9081789623605
0.075225830078125	-0.0190673828125	14.9170289623381
0.07965087890625	-0.0187286376953125	14.9258789623158
0.084075927734375	-0.0183990478515625	14.9347289622934
0.0885009765625	-0.018060302734375	14.9435789622711
0.092926025390625	-0.017730712890625	14.9524289622487
0.09735107421875	-0.0173919677734375	14.9612789622264
0.101776123046875	-0.0170684814453125	14.9701289622041
0.106201171875	-0.0167388916015625	14.9789789621817
0.110626220703125	-0.0164093017578125	14.9878289621594
0.11505126953125	-0.0160858154296875	14.996678962137
0.119476318359375	-0.015771484375	15.0055289621147
0.1239013671875	-0.0154510498046875	15.0143789620923
0.128326416015625	-0.0151336669921875	15.02322896207
0.13275146484375	-0.0148193359375	15.0320789620476
0.137176513671875	-0.014508056640625	15.0409289620253
0.1416015625	-0.014202880859375	15.049778962003
0.146026611328125	-0.0138916015625	15.0586289619806
0.15045166015625	-0.0135833740234375	15.0674789619583
0.154876708984375	-0.013275146484375	15.0763289619359
0.1593017578125	-0.01297607421875	15.0851789619136
0.163726806640625	-0.0126708984375	15.0940289618912
0.16815185546875	-0.0123687744140625	15.1028789618689
0.172576904296875	-0.0120697021484375	15.1117289618466
0.177001953125	-0.0117767333984375	15.1205789618242
0.181427001953125	-0.011480712890625	15.1294289618019
0.18585205078125	-0.0111907958984375	15.1382789617795
0.190277099609375	-0.010906982421875	15.1471289617572
0.1947021484375	-0.010614013671875	15.1559789617348
0.199127197265625	-0.0103271484375	15.1648289617125
0.20355224609375	-0.0100372314453125	15.1736789616901
0.207977294921875	-0.00975341796875	15.1825289616678
0.21240234375	-0.009466552734375	15.1913789616455
0.216827392578125	-0.0091949462890625	15.2002289616231
0.22125244140625	-0.0089111328125	15.2090789616008
0.225677490234375	-0.00863037109375	15.2179289615784
0.2301025390625	-0.008355712890625	15.2267789615561
0.234527587890625	-0.0080810546875	15.2356289615337
0.23895263671875	-0.0078094482421875	15.2444789615114
0.243377685546875	-0.007537841796875	15.253328961489
0.247802734375	-0.0072662353515625	15.2621789614667
0.252227783203125	-0.00699462890625	15.2710289614444
0.25665283203125	-0.00672607421875	15.279878961422
0.261077880859375	-0.00645751953125	15.2887289613997
0.2655029296875	-0.006195068359375	15.2975789613773
0.269927978515625	-0.005926513671875	15.306428961355
0.27435302734375	-0.0056640625	15.3152789613326
0.278778076171875	-0.0054046630859375	15.3241289613103
0.283203125	-0.005145263671875	15.3329789612879
0.287628173828125	-0.004886474609375	15.3418289612656
0.29205322265625	-0.0046282958984375	15.3506789612433
0.296478271484375	-0.00437164306640625	15.3595289612209
0.3009033203125	-0.0041156005859375	15.3683789611986
0.305328369140625	-0.00386138916015625	15.3772289611762
0.30975341796875	-0.0036199951171875	15.3860789611539
0.314178466796875	-0.00336395263671875	15.3949289611315
0.318603515625	-0.00311065673828125	15.4037789611092
0.323028564453125	-0.00285980224609375	15.4126289610869
0.32745361328125	-0.00261077880859375	15.4214789610645
0.331878662109375	-0.00235992431640625	15.4303289610422
0.3363037109375	-0.00211090087890625	15.4391789610198
0.340728759765625	-0.001864013671875	15.4480289609975
0.34515380859375	-0.00161834716796875	15.4568789609751
0.349578857421875	-0.00137237548828125	15.4657289609528
0.35400390625	-0.0011279296875	15.4745789609304
0.358428955078125	-0.0008837890625	15.4834289609081
0.36285400390625	-0.0006402587890625	15.4922789608858
0.367279052734375	-0.00039739990234375	15.5011289608634
0.3717041015625	-0.000155487060546875	15.5099789608411
0.376129150390625	8.5906982421875E-05	15.5188289608187
0.38055419921875	0.00032696533203125	15.5276789607964
0.384979248046875	0.0005670166015625	15.536528960774
0.389404296875	0.00080657958984375	15.5453789607517
0.393829345703125	0.0010455322265625	15.5542289607293
0.39825439453125	0.0012835693359375	15.563078960707
0.402679443359375	0.0015216064453125	15.5719289606847
0.4071044921875	0.00175933837890625	15.5807789606623
0.411529541015625	0.00199493408203125	15.58962896064
0.41595458984375	0.00223175048828125	15.5984789606176
0.420379638671875	0.00246826171875	15.6073289605953
0.4248046875	0.00270355224609375	15.6161789605729
0.429229736328125	0.002939453125	15.6250289605506
0.43365478515625	0.00317535400390625	15.6338789605282
0.438079833984375	0.003409423828125	15.6427289605059
0.4425048828125	0.0036444091796875	15.6515789604836
0.446929931640625	0.00387786865234375	15.6604289604612
0.45135498046875	0.00410888671875	15.6692789604389
0.455780029296875	0.00434326171875	15.6781289604165
0.460205078125	0.00457763671875	15.6869789603942
0.464630126953125	0.00481201171875	15.6958289603718
0.46905517578125	0.005045166015625	15.7046789603495
0.473480224609375	0.00527618408203125	15.7135289603272
0.4779052734375	0.005509033203125	15.7223789603048
0.482330322265625	0.00574188232421875	15.7312289602825
0.48675537109375	0.00597381591796875	15.7400789602601
0.491180419921875	0.0062054443359375	15.7489289602378
0.49560546875	0.0064422607421875	15.7577789602154
0.500030517578125	0.006671142578125	15.7666289601931
0.50445556640625	0.006903076171875	15.7754789601707
0.508880615234375	0.0071319580078125	15.7843289601484
0.5133056640625	0.0073638916015625	15.7931789601261
0.517730712890625	0.0075958251953125	15.8020289601037
0.52215576171875	0.0078216552734375	15.8108789600814
0.526580810546875	0.0080535888671875	15.819728960059
0.531005859375	0.008282470703125	15.8285789600367
0.535430908203125	0.0085113525390625	15.8374289600143
0.53985595703125	0.008740234375	15.846278959992
0.544281005859375	0.0089691162109375	15.8551289599696
0.5487060546875	0.0091949462890625	15.8639789599473
0.553131103515625	0.0094207763671875	15.872828959925
0.55755615234375	0.009649658203125	15.8816789599026
0.561981201171875	0.00987548828125	15.8905289598803
0.56640625	0.010107421875	15.8993789598579
0.570831298828125	0.010333251953125	15.9082289598356
0.57525634765625	0.010565185546875	15.9170789598132
0.579681396484375	0.010791015625	15.9259289597909
0.5841064453125	0.0110137939453125	15.9347789597686
0.588531494140625	0.011236572265625	15.9436289597462
0.59295654296875	0.01146240234375	15.9524789597239
0.597381591796875	0.0116943359375	15.9613289597015
0.601806640625	0.0119232177734375	15.9701789596792
0.606231689453125	0.0121490478515625	15.9790289596568
0.61065673828125	0.0123809814453125	15.9878789596345
0.615081787109375	0.012603759765625	15.9967289596121
0.6195068359375	0.0128265380859375	16.0055789595898
0.623931884765625	0.013055419921875	16.0144289595675
0.62835693359375	0.0132843017578125	16.0232789595451
0.632781982421875	0.013507080078125	16.0321289595228
0.63720703125	0.01373291015625	16.0409789595004
0.641632080078125	0.013958740234375	16.0498289594781
0.64605712890625	0.014178466796875	16.0586789594557
0.650482177734375	0.014398193359375	16.0675289594334
0.6549072265625	0.0146240234375	16.076378959411
0.659332275390625	0.0148468017578125	16.0852289593887
0.66375732421875	0.0150665283203125	16.0940789593664
0.668182373046875	0.0152862548828125	16.102928959344
0.672607421875	0.0155120849609375	16.1117789593217
0.677032470703125	0.0157318115234375	16.1206289592993
0.68145751953125	0.0159515380859375	16.129478959277
0.685882568359375	0.01617431640625	16.1383289592546
0.6903076171875	0.0163970947265625	16.1471789592323
0.694732666015625	0.01661376953125	16.1560289592099
0.69915771484375	0.0168365478515625	16.1648789591876
0.703582763671875	0.01705322265625	16.1737289591653
0.7080078125	0.017279052734375	16.1825789591429
0.712432861328125	0.0174957275390625	16.1914289591206
0.71685791015625	0.017718505859375	16.2002789590982
0.721282958984375	0.0179412841796875	16.2091289590759
0.7257080078125	0.0181640625	16.2179789590535
0.730133056640625	0.0183837890625	16.2268289590312
0.73455810546875	0.018603515625	16.2356789590089
0.738983154296875	0.0188201904296875	16.2445289589865
0.743408203125	0.0190399169921875	16.2533789589642
0.747833251953125	0.01925048828125	16.2622289589418
0.75225830078125	0.0194732666015625	16.2710789589195
0.756683349609375	0.01968994140625	16.2799289588971
0.7611083984375	0.0199066162109375	16.2887789588748
0.765533447265625	0.0201202392578125	16.2976289588524
0.76995849609375	0.0203399658203125	16.3064789588301
0.774383544921875	0.02056884765625	16.3153289588078
0.77880859375	0.0207855224609375	16.3241789587854
0.783233642578125	0.0209991455078125	16.3330289587631
0.78765869140625	0.0212158203125	16.3418789587407
0.792083740234375	0.0214324951171875	16.3507289587184
0.7965087890625	0.0216522216796875	16.359578958696
0.800933837890625	0.021856689453125	16.3684289586737
0.80535888671875	0.0220733642578125	16.3772789586513
0.809783935546875	0.022283935546875	16.386128958629
0.814208984375	0.02249755859375	16.3949789586067
0.818634033203125	0.0227142333984375	16.4038289585843
0.82305908203125	0.022930908203125	16.412678958562
0.827484130859375	0.0231414794921875	16.4215289585396
0.8319091796875	0.023358154296875	16.4303789585173
0.836334228515625	0.02357177734375	16.4392289584949
0.84075927734375	0.023785400390625	16.4480789584726
0.845184326171875	0.02398681640625	16.4569289584502
0.849609375	0.024212646484375	16.4657789584279
0.854034423828125	0.024432373046875	16.4746289584056
0.85845947265625	0.02464599609375	16.4834789583832
0.862884521484375	0.0248565673828125	16.4923289583609
0.8673095703125	0.02506103515625	16.5011789583385
0.871734619140625	0.0252777099609375	16.5100289583162
0.87615966796875	0.0254974365234375	16.5188789582938
0.880584716796875	0.0257110595703125	16.5277289582715
0.885009765625	0.02591552734375	16.5365789582492
0.889434814453125	0.026129150390625	16.5454289582268
0.89385986328125	0.02633056640625	16.5542789582045
0.898284912109375	0.0265472412109375	16.5631289581821
0.9027099609375	0.02674560546875	16.5719789581598
0.907135009765625	0.0269622802734375	16.5808289581374
0.91156005859375	0.0271697998046875	16.5896789581151
0.915985107421875	0.0273773193359375	16.5985289580927
0.92041015625	0.0275787353515625	16.6073789580704
0.924835205078125	0.0277862548828125	16.6162289580481
0.92926025390625	0.0280059814453125	16.6250789580257
0.933685302734375	0.02821044921875	16.6339289580034
0.9381103515625	0.028424072265625	16.642778957981
0.942535400390625	0.0286285400390625	16.6516289579587
0.94696044921875	0.0288360595703125	16.6604789579363
0.951385498046875	0.0290374755859375	16.669328957914
0.955810546875	0.029254150390625	16.6781789578916
0.960235595703125	0.029461669921875	16.6870289578693
0.96466064453125	0.0296722412109375	16.695878957847
0.969085693359375	0.02987060546875	16.7047289578246
0.9735107421875	0.0300750732421875	16.7135789578023
0.977935791015625	0.03028564453125	16.7224289577799
0.98236083984375	0.0304901123046875	16.7312789577576
0.986785888671875	0.03070068359375	16.7401289577352
0.9912109375	0.0309051513671875	16.7489789577129
0.995635986328125	0.031109619140625	16.7578289576905
1.00006103515625	0.0313079833984375	16.7666789576682
0.995635986328125	0.0309051513671875	16.7755289576459
0.9912109375	0.0304901123046875	16.7843789576235
0.986785888671875	0.03009033203125	16.7932289576012
0.98236083984375	0.029693603515625	16.8020789575788
0.977935791015625	0.0292999267578125	16.8109289575565
0.9735107421875	0.028912353515625	16.8197789575341
0.969085693359375	0.0285308837890625	16.8286289575118
0.96466064453125	0.028143310546875	16.8374789574895
0.960235595703125	0.0277679443359375	16.8463289574671
0.955810546875	0.02738037109375	16.8551789574448
0.951385498046875	0.0270111083984375	16.8640289574224
0.94696044921875	0.0266326904296875	16.8728789574001
0.942535400390625	0.026263427734375	16.8817289573777
0.9381103515625	0.0259033203125	16.8905789573554
0.933685302734375	0.025531005859375	16.899428957333
0.92926025390625	0.0251678466796875	16.9082789573107
0.924835205078125	0.024810791015625	16.9171289572884
0.92041015625	0.024456787109375	16.925978957266
0.915985107421875	0.0240966796875	16.9348289572437
0.91156005859375	0.02374267578125	16.9436789572213
0.907135009765625	0.02340087890625	16.952528957199
0.9027099609375	0.0230499267578125	16.9613789571766
0.898284912109375	0.02269287109375	16.9702289571543
0.89385986328125	0.02235107421875	16.9790789571319
0.889434814453125	0.0220001220703125	16.9879289571096
0.885009765625	0.02166748046875	16.9967789570873
0.880584716796875	0.02132568359375	17.0056289570649
0.87615966796875	0.02098388671875	17.0144789570426
0.871734619140625	0.020654296875	17.0233289570202
0.8673095703125	0.0203216552734375	17.0321789569979
0.862884521484375	0.019989013671875	17.0410289569755
0.85845947265625	0.01966552734375	17.0498789569532
0.854034423828125	0.0193328857421875	17.0587289569308
0.849609375	0.019000244140625	17.0675789569085
0.845184326171875	0.0186767578125	17.0764289568862
0.84075927734375	0.018359375	17.0852789568638
0.836334228515625	0.0180328369140625	17.0941289568415
0.8319091796875	0.0177154541015625	17.1029789568191
0.827484130859375	0.017388916015625	17.1118289567968
0.82305908203125	0.0170806884765625	17.1206789567744
0.818634033203125	0.0167694091796875	17.1295289567521
0.814208984375	0.016455078125	17.1383789567298
0.809783935546875	0.01614990234375	17.1472289567074
0.80535888671875	0.0158355712890625	17.1560789566851
0.800933837890625	0.0155364990234375	17.1649289566627
0.7965087890625	0.0152374267578125	17.1737789566404
0.792083740234375	0.0149322509765625	17.182628956618
0.78765869140625	0.0146270751953125	17.1914789565957
0.783233642578125	0.0143310546875	17.2003289565733
0.77880859375	0.0140350341796875	17.209178956551
0.774383544921875	0.013739013671875	17.2180289565287
0.76995849609375	0.0134429931640625	17.2268789565063
0.765533447265625	0.01314697265625	17.235728956484
0.7611083984375	0.01285400390625	17.2445789564616
0.756683349609375	0.0125640869140625	17.2534289564393
0.75225830078125	0.0122802734375	17.2622789564169
0.747833251953125	0.0119873046875	17.2711289563946
0.743408203125	0.0116973876953125	17.2799789563722
0.738983154296875	0.01141357421875	17.2888289563499
0.73455810546875	0.0111297607421875	17.2976789563276
0.730133056640625	0.0108489990234375	17.3065289563052
0.7257080078125	0.0105712890625	17.3153789562829
0.721282958984375	0.0102874755859375	17.3242289562605
0.71685791015625	0.010009765625	17.3330789562382
0.712432861328125	0.0097320556640625	17.3419289562158
0.7080078125	0.009454345703125	17.3507789561935
0.703582763671875	0.0091888427734375	17.3596289561712
0.69915771484375	0.0089202880859375	17.3684789561488
0.694732666015625	0.0086456298828125	17.3773289561265
0.6903076171875	0.0083770751953125	17.3861789561041
0.685882568359375	0.0081085205078125	17.3950289560818
0.68145751953125	0.007843017578125	17.4038789560594
0.677032470703125	0.0075775146484375	17.4127289560371
0.672607421875	0.0073150634765625	17.4215789560147
0.668182373046875	0.007049560546875	17.4304289559924
0.66375732421875	0.006787109375	17.4392789559701
0.659332275390625	0.0065277099609375	17.4481289559477
0.6549072265625	0.006268310546875	17.4569789559254
0.650482177734375	0.006011962890625	17.465828955903
0.64605712890625	0.0057525634765625	17.4746789558807
0.641632080078125	0.0054962158203125	17.4835289558583
0.63720703125	0.005242919921875	17.492378955836
0.632781982421875	0.0049896240234375	17.5012289558136
0.62835693359375	0.00473785400390625	17.5100789557913
0.623931884765625	0.0044830322265625	17.518928955769
0.6195068359375	0.004232177734375	17.5277789557466
0.615081787109375	0.003984375	17.5366289557243
0.61065673828125	0.00373870849609375	17.5454789557019
0.606231689453125	0.0034906005859375	17.5543289556796
0.601806640625	0.00324371337890625	17.5631789556572
0.597381591796875	0.00299835205078125	17.5720289556349
0.59295654296875	0.002752685546875	17.5808789556125
0.588531494140625	0.00250823974609375	17.5897289555902
0.5841064453125	0.002265625	17.5985789555679
0.579681396484375	0.00202301025390625	17.6074289555455
0.57525634765625	0.00178131103515625	17.6162789555232
0.570831298828125	0.00154052734375	17.6251289555008
0.56640625	0.00129913330078125	17.6339789554785
0.561981201171875	0.00105987548828125	17.6428289554561
0.55755615234375	0.0008203125	17.6516789554338
0.553131103515625	0.00058258056640625	17.6605289554115
0.5487060546875	0.00034466552734375	17.6693789553891
0.544281005859375	0.000108123779296875	17.6782289553668
0.53985595703125	-0.000128662109375	17.6870789553444
0.535430908203125	-0.000364166259765625	17.6959289553221
0.531005859375	-0.00059967041015625	17.7047789552997
0.526580810546875	-0.00083404541015625	17.7136289552774
0.52215576171875	-0.0010687255859375	17.722478955255
0.517730712890625	-0.001302490234375	17.7313289552327
0.5133056640625	-0.0015362548828125	17.7401789552104
0.508880615234375	-0.00176971435546875	17.749028955188
0.50445556640625	-0.00200164794921875	17.7578789551657
0.500030517578125	-0.00223388671875	17.7667289551433
0.49560546875	-0.0024658203125	17.775578955121
0.491180419921875	-0.00269683837890625	17.7844289550986
0.48675537109375	-0.00292877197265625	17.7932789550763
0.482330322265625	-0.0031597900390625	17.8021289550539
0.4779052734375	-0.00339019775390625	17.8109789550316
0.473480224609375	-0.0036199951171875	17.8198289550093
0.46905517578125	-0.00385101318359375	17.8286789549869
0.464630126953125	-0.004080810546875	17.8375289549646
0.460205078125	-0.0043096923828125	17.8463789549422
0.455780029296875	-0.00453765869140625	17.8552289549199
0.45135498046875	-0.00476715087890625	17.8640789548975
0.446929931640625	-0.00499664306640625	17.8729289548752
0.4425048828125	-0.00522430419921875	17.8817789548528
0.438079833984375	-0.00545562744140625	17.8906289548305
0.43365478515625	-0.00568267822265625	17.8994789548082
0.429229736328125	-0.0059112548828125	17.9083289547858
0.4248046875	-0.00613922119140625	17.9171789547635
0.420379638671875	-0.006365966796875	17.9260289547411
0.41595458984375	-0.0065887451171875	17.9348789547188
0.411529541015625	-0.006817626953125	17.9437289546964
0.4071044921875	-0.00704345703125	17.9525789546741
0.402679443359375	-0.0072662353515625	17.9614289546518
0.39825439453125	-0.0074951171875	17.9702789546294
0.393829345703125	-0.0077239990234375	17.9791289546071
0.389404296875	-0.007940673828125	17.9879789545847
0.384979248046875	-0.0081634521484375	17.9968289545624
0.38055419921875	-0.0083892822265625	18.00567895454
0.376129150390625	-0.0086151123046875	18.0145289545177
0.3717041015625	-0.008843994140625	18.0233789544953
0.367279052734375	-0.0090667724609375	18.032228954473
0.36285400390625	-0.0092926025390625	18.0410789544507
0.358428955078125	-0.009515380859375	18.0499289544283
0.35400390625	-0.009747314453125	18.058778954406
0.349578857421875	-0.009967041015625	18.0676289543836
0.34515380859375	-0.0101898193359375	18.0764789543613
0.340728759765625	-0.01041259765625	18.0853289543389
0.3363037109375	-0.010638427734375	18.0941789543166
0.331878662109375	-0.0108673095703125	18.1030289542942
0.32745361328125	-0.0110809326171875	18.1118789542719
0.323028564453125	-0.0113067626953125	18.1207289542496
0.318603515625	-0.01153564453125	18.1295789542272
0.314178466796875	-0.01175537109375	18.1384289542049
0.30975341796875	-0.011981201171875	18.1472789541825
0.305328369140625	-0.01220703125	18.1561289541602
0.3009033203125	-0.0124267578125	18.1649789541378
0.296478271484375	-0.012652587890625	18.1738289541155
0.29205322265625	-0.0128753662109375	18.1826789540931
0.287628173828125	-0.01309814453125	18.1915289540708
0.283203125	-0.0133209228515625	18.2003789540485
0.278778076171875	-0.0135467529296875	18.2092289540261
0.27435302734375	-0.0137664794921875	18.2180789540038
0.269927978515625	-0.0139892578125	18.2269289539814
0.2655029296875	-0.014208984375	18.2357789539591
0.261077880859375	-0.0144256591796875	18.2446289539367
0.25665283203125	-0.0146484375	18.2534789539144
0.252227783203125	-0.0148681640625	18.2623289538921
0.247802734375	-0.015087890625	18.2711789538697
0.243377685546875	-0.0153106689453125	18.2800289538474
0.23895263671875	-0.015533447265625	18.288878953825
0.234527587890625	-0.015753173828125	18.2977289538027
0.2301025390625	-0.0159759521484375	18.3065789537803
0.225677490234375	-0.01619873046875	18.315428953758
0.22125244140625	-0.0164093017578125	18.3242789537356
0.216827392578125	-0.0166412353515625	18.3331289537133
0.21240234375	-0.016851806640625	18.341978953691
0.207977294921875	-0.017071533203125	18.3508289536686
0.20355224609375	-0.0172882080078125	18.3596789536463
0.199127197265625	-0.0175079345703125	18.3685289536239
0.1947021484375	-0.017724609375	18.3773789536016
0.190277099609375	-0.0179443359375	18.3862289535792
0.18585205078125	-0.0181640625	18.3950789535569
0.181427001953125	-0.0183868408203125	18.4039289535345
0.177001953125	-0.018603515625	18.4127789535122
0.172576904296875	-0.018817138671875	18.4216289534899
0.16815185546875	-0.0190338134765625	18.4304789534675
0.163726806640625	-0.0192535400390625	18.4393289534452
0.1593017578125	-0.0194732666015625	18.4481789534228
0.154876708984375	-0.0196868896484375	18.4570289534005
0.15045166015625	-0.0199066162109375	18.4658789533781
0.146026611328125	-0.0201202392578125	18.4747289533558
0.1416015625	-0.0203338623046875	18.4835789533334
0.137176513671875	-0.020550537109375	18.4924289533111
0.13275146484375	-0.0207733154296875	18.5012789532888
0.128326416015625	-0.020989990234375	18.5101289532664
0.1239013671875	-0.0212127685546875	18.5189789532441
0.119476318359375	-0.021429443359375	18.5278289532217
0.11505126953125	-0.0216461181640625	18.5366789531994
0.110626220703125	-0.0218658447265625	18.545528953177
0.106201171875	-0.0220703125	18.5543789531547
0.101776123046875	-0.0222900390625	18.5632289531324
0.09735107421875	-0.0225067138671875	18.57207895311
0.092926025390625	-0.02271728515625	18.5809289530877
0.0885009765625	-0.0229278564453125	18.5897789530653
0.084075927734375	-0.02314453125	18.598628953043
0.07965087890625	-0.0233551025390625	18.6074789530206
0.075225830078125	-0.0235626220703125	18.6163289529983
0.07080078125	-0.023773193359375	18.6251789529759
0.066375732421875	-0.0239959716796875	18.6340289529536
0.06195068359375	-0.02420654296875	18.6428789529313
0.057525634765625	-0.0244140625	18.6517289529089
0.0531005859375	-0.024615478515625	18.6605789528866
0.048675537109375	-0.0248260498046875	18.6694289528642
0.04425048828125	-0.0250457763671875	18.6782789528419
0.039825439453125	-0.02525634765625	18.6871289528195
0.035400390625	-0.0254638671875	18.6959789527972
0.030975341796875	-0.0256805419921875	18.7048289527748
0.02655029296875	-0.02589111328125	18.7136789527525
0.022125244140625	-0.0260986328125	18.7225289527302
0.0177001953125	-0.02630615234375	18.7313789527078
0.013275146484375	-0.026513671875	18.7402289526855
0.00885009765625	-0.02672119140625	18.7490789526631
0.004425048828125	-0.026934814453125	18.7579289526408
0	-0.0271484375	18.7667789526184
0.004425048828125	-0.0267425537109375	18.7756289525961
0.00885009765625	-0.0263427734375	18.7844789525737
0.013275146484375	-0.0259490966796875	18.7933289525514
0.0177001953125	-0.0255615234375	18.8021789525291
0.022125244140625	-0.0251739501953125	18.8110289525067
0.02655029296875	-0.02479248046875	18.8198789524844
0.030975341796875	-0.0244049072265625	18.828728952462
0.035400390625	-0.02403564453125	18.8375789524397
0.039825439453125	-0.023663330078125	18.8464289524173
0.04425048828125	-0.023291015625	18.855278952395
0.048675537109375	-0.0229248046875	18.8641289523727
0.0531005859375	-0.02255859375	18.8729789523503
0.057525634765625	-0.0221893310546875	18.881828952328
0.06195068359375	-0.02183837890625	18.8906789523056
0.066375732421875	-0.021478271484375	18.8995289522833
0.07080078125	-0.0211181640625	18.9083789522609
0.075225830078125	-0.0207672119140625	18.9172289522386
0.07965087890625	-0.020416259765625	18.9260789522162
0.084075927734375	-0.0200714111328125	18.9349289521939
0.0885009765625	-0.019732666015625	18.9437789521716
0.092926025390625	-0.0193878173828125	18.9526289521492
0.09735107421875	-0.01904296875	18.9614789521269
0.101776123046875	-0.018707275390625	18.9703289521045
0.106201171875	-0.01837158203125	18.9791789520822
0.110626220703125	-0.018035888671875	18.9880289520598
0.11505126953125	-0.0177001953125	18.9968789520375
0.119476318359375	-0.017376708984375	19.0057289520151
0.1239013671875	-0.0170501708984375	19.0145789519928
0.128326416015625	-0.0167236328125	19.0234289519705
0.13275146484375	-0.0164031982421875	19.0322789519481
0.137176513671875	-0.01607666015625	19.0411289519258
0.1416015625	-0.0157501220703125	19.0499789519034
0.146026611328125	-0.015435791015625	19.0588289518811
0.15045166015625	-0.0151214599609375	19.0676789518587
0.154876708984375	-0.01480712890625	19.0765289518364
0.1593017578125	-0.014495849609375	19.0853789518141
0.163726806640625	-0.0141876220703125	19.0942289517917
0.16815185546875	-0.0138824462890625	19.1030789517694
0.172576904296875	-0.013580322265625	19.111928951747
0.177001953125	-0.0132720947265625	19.1207789517247
0.181427001953125	-0.012969970703125	19.1296289517023
0.18585205078125	-0.012664794921875	19.13847895168
0.190277099609375	-0.0123687744140625	19.1473289516576
0.1947021484375	-0.012066650390625	19.1561789516353
0.199127197265625	-0.0117706298828125	19.165028951613
0.20355224609375	-0.0114776611328125	19.1738789515906
0.207977294921875	-0.011187744140625	19.1827289515683
0.21240234375	-0.01090087890625	19.1915789515459
0.216827392578125	-0.0106109619140625	19.2004289515236
0.22125244140625	-0.0103240966796875	19.2092789515012
0.225677490234375	-0.0100372314453125	19.2181289514789
0.2301025390625	-0.009747314453125	19.2269789514565
0.234527587890625	-0.0094696044921875	19.2358289514342
0.23895263671875	-0.0091888427734375	19.2446789514119
0.243377685546875	-0.0089141845703125	19.2535289513895
0.247802734375	-0.00863037109375	19.2623789513672
0.252227783203125	-0.008355712890625	19.2712289513448
0.25665283203125	-0.0080780029296875	19.2800789513225
0.261077880859375	-0.0078094482421875	19.2889289513001
0.2655029296875	-0.007537841796875	19.2977789512778
0.269927978515625	-0.0072662353515625	19.3066289512554
0.27435302734375	-0.00699462890625	19.3154789512331
0.278778076171875	-0.00672607421875	19.3243289512108
0.283203125	-0.006463623046875	19.3331789511884
0.287628173828125	-0.0061981201171875	19.3420289511661
0.29205322265625	-0.0059326171875	19.3508789511437
0.296478271484375	-0.0056671142578125	19.3597289511214
0.3009033203125	-0.00540771484375	19.368578951099
0.305328369140625	-0.0051513671875	19.3774289510767
0.30975341796875	-0.004891357421875	19.3862789510544
0.314178466796875	-0.00463287353515625	19.395128951032
0.318603515625	-0.004376220703125	19.4039789510097
0.323028564453125	-0.00412109375	19.4128289509873
0.32745361328125	-0.00386749267578125	19.421678950965
0.331878662109375	-0.0036236572265625	19.4305289509426
0.3363037109375	-0.00337158203125	19.4393789509203
0.340728759765625	-0.0031195068359375	19.4482289508979
0.34515380859375	-0.0028680419921875	19.4570789508756
0.349578857421875	-0.00261749267578125	19.4659289508533
0.35400390625	-0.00236968994140625	19.4747789508309
0.358428955078125	-0.00212158203125	19.4836289508086
0.36285400390625	-0.0018743896484375	19.4924789507862
0.367279052734375	-0.00162750244140625	19.5013289507639
0.3717041015625	-0.00138214111328125	19.5101789507415
0.376129150390625	-0.00113739013671875	19.5190289507192
0.38055419921875	-0.00089385986328125	19.5278789506968
0.384979248046875	-0.00065032958984375	19.5367289506745
0.389404296875	-0.000408111572265625	19.5455789506522
0.393829345703125	-0.0001671142578125	19.5544289506298
0.39825439453125	7.43408203125E-05	19.5632789506075
0.402679443359375	0.000314727783203125	19.5721289505851
0.4071044921875	0.00055511474609375	19.5809789505628
0.411529541015625	0.000794677734375	19.5898289505404
0.41595458984375	0.001033935546875	19.5986789505181
0.420379638671875	0.00127227783203125	19.6075289504957
0.4248046875	0.00151092529296875	19.6163789504734
0.429229736328125	0.001748046875	19.6252289504511
0.43365478515625	0.00198516845703125	19.6340789504287
0.438079833984375	0.0022216796875	19.6429289504064
0.4425048828125	0.0024566650390625	19.651778950384
0.446929931640625	0.002691650390625	19.6606289503617
0.45135498046875	0.00292755126953125	19.6694789503393
0.455780029296875	0.003162841796875	19.678328950317
0.460205078125	0.00339813232421875	19.6871789502947
0.464630126953125	0.00363128662109375	19.6960289502723
0.46905517578125	0.00386444091796875	19.70487895025
0.473480224609375	0.00409820556640625	19.7137289502276
0.4779052734375	0.0043316650390625	19.7225789502053
0.482330322265625	0.00456512451171875	19.7314289501829
0.48675537109375	0.00479949951171875	19.7402789501606
0.491180419921875	0.00503265380859375	19.7491289501382
0.49560546875	0.00526519775390625	19.7579789501159
0.500030517578125	0.00549652099609375	19.7668289500936
0.50445556640625	0.00573028564453125	19.7756789500712
0.508880615234375	0.00596435546875	19.7845289500489
0.5133056640625	0.00619537353515625	19.7933789500265
0.517730712890625	0.00643310546875	19.8022289500042
0.52215576171875	0.0066650390625	19.8110789499818
0.526580810546875	0.00689697265625	19.8199289499595
0.531005859375	0.0071258544921875	19.8287789499371
0.535430908203125	0.0073577880859375	19.8376289499148
0.53985595703125	0.0075897216796875	19.8464789498925
0.544281005859375	0.0078155517578125	19.8553289498701
0.5487060546875	0.00804443359375	19.8641789498478
0.553131103515625	0.008270263671875	19.8730289498254
0.55755615234375	0.008502197265625	19.8818789498031
0.561981201171875	0.00872802734375	19.8907289497807
0.56640625	0.0089599609375	19.8995789497584
0.570831298828125	0.009185791015625	19.908428949736
0.57525634765625	0.00941162109375	19.9172789497137
0.579681396484375	0.0096405029296875	19.9261289496914
0.5841064453125	0.0098724365234375	19.934978949669
0.588531494140625	0.01009521484375	19.9438289496467
0.59295654296875	0.010321044921875	19.9526789496243
0.597381591796875	0.0105560302734375	19.961528949602
0.601806640625	0.010784912109375	19.9703789495796
0.606231689453125	0.0110076904296875	19.9792289495573
0.61065673828125	0.0112335205078125	19.988078949535
0.615081787109375	0.01146240234375	19.9969289495126
0.6195068359375	0.011688232421875	20.0057789494903
0.623931884765625	0.0119171142578125	20.0146289494679
0.62835693359375	0.0121429443359375	20.0234789494456
0.632781982421875	0.0123687744140625	20.0323289494232
0.63720703125	0.01259765625	20.0411789494009
0.641632080078125	0.0128204345703125	20.0500289493785
0.64605712890625	0.0130462646484375	20.0588789493562
0.650482177734375	0.0132720947265625	20.0677289493339
0.6549072265625	0.0135009765625	20.0765789493115
0.659332275390625	0.013720703125	20.0854289492892
0.66375732421875	0.0139434814453125	20.0942789492668
0.668182373046875	0.0141632080078125	20.1031289492445
0.672607421875	0.0143890380859375	20.1119789492221
0.677032470703125	0.0146148681640625	20.1208289491998
0.68145751953125	0.014837646484375	20.1296789491774
0.685882568359375	0.015057373046875	20.1385289491551
0.6903076171875	0.015289306640625	20.1473789491328
0.694732666015625	0.015509033203125	20.1562289491104
0.69915771484375	0.015728759765625	20.1650789490881
0.703582763671875	0.01595458984375	20.1739289490657
0.7080078125	0.0161773681640625	20.1827789490434
0.712432861328125	0.0163818359375	20.191628949021
0.71685791015625	0.0166015625	20.2004789489987
0.721282958984375	0.0168304443359375	20.2093289489763
0.7257080078125	0.0170562744140625	20.218178948954
0.730133056640625	0.0172698974609375	20.2270289489317
0.73455810546875	0.01749267578125	20.2358789489093
0.738983154296875	0.017718505859375	20.244728948887
0.743408203125	0.01793212890625	20.2535789488646
0.747833251953125	0.01815185546875	20.2624289488423
0.75225830078125	0.0183685302734375	20.2712789488199
0.756683349609375	0.0185882568359375	20.2801289487976
0.7611083984375	0.0188018798828125	20.2889789487753
0.765533447265625	0.0190155029296875	20.2978289487529
0.76995849609375	0.01923828125	20.3066789487306
0.774383544921875	0.019451904296875	20.3155289487082
0.77880859375	0.0196746826171875	20.3243789486859
0.783233642578125	0.0198944091796875	20.3332289486635
0.78765869140625	0.0201202392578125	20.3420789486412
0.792083740234375	0.0203338623046875	20.3509289486188
0.7965087890625	0.020550537109375	20.3597789485965
0.800933837890625	0.020758056640625	20.3686289485742
0.80535888671875	0.020977783203125	20.3774789485518
0.809783935546875	0.0211944580078125	20.3863289485295
0.814208984375	0.0214111328125	20.3951789485071
0.818634033203125	0.021624755859375	20.4040289484848
0.82305908203125	0.021844482421875	20.4128789484624
0.827484130859375	0.0220550537109375	20.4217289484401
0.8319091796875	0.02227783203125	20.4305789484177
0.836334228515625	0.0224945068359375	20.4394289483954
0.84075927734375	0.022698974609375	20.4482789483731
0.845184326171875	0.022918701171875	20.4571289483507
0.849609375	0.0231353759765625	20.4659789483284
0.854034423828125	0.02335205078125	20.474828948306
0.85845947265625	0.0235565185546875	20.4836789482837
0.862884521484375	0.0237701416015625	20.4925289482613
0.8673095703125	0.0239837646484375	20.501378948239
0.871734619140625	0.0241943359375	20.5102289482166
0.87615966796875	0.024407958984375	20.5190789481943
0.880584716796875	0.0246246337890625	20.527928948172
0.885009765625	0.0248321533203125	20.5367789481496
0.889434814453125	0.02503662109375	20.5456289481273
0.89385986328125	0.0252471923828125	20.5544789481049
0.898284912109375	0.0254608154296875	20.5633289480826
0.9027099609375	0.025665283203125	20.5721789480602
0.907135009765625	0.025872802734375	20.5810289480379
0.91156005859375	0.02608642578125	20.5898789480156
0.915985107421875	0.0263031005859375	20.5987289479932
0.92041015625	0.026507568359375	20.6075789479709
0.924835205078125	0.026715087890625	20.6164289479485
0.92926025390625	0.0269317626953125	20.6252789479262
0.933685302734375	0.0271392822265625	20.6341289479038
0.9381103515625	0.0273468017578125	20.6429789478815
0.942535400390625	0.027557373046875	20.6518289478591
0.94696044921875	0.0277740478515625	20.6606789478368
0.951385498046875	0.0279815673828125	20.6695289478145
0.955810546875	0.0281829833984375	20.6783789477921
0.960235595703125	0.0283843994140625	20.6872289477698
0.96466064453125	0.028594970703125	20.6960789477474
0.969085693359375	0.0287994384765625	20.7049289477251
0.9735107421875	0.029010009765625	20.7137789477027
0.977935791015625	0.0292144775390625	20.7226289476804
0.98236083984375	0.0294189453125	20.731478947658
0.986785888671875	0.0296478271484375	20.7403289476357
0.9912109375	0.0298309326171875	20.7491789476134
