Time (s)	WE(1).Potential (V)
5739.62573950884	0.79620361328125
5740.62573950631	0.79437255859375
5741.62573950379	0.7928466796875
5742.62573950126	0.79132080078125
5743.62573949874	0.789794921875
5744.62573949621	0.78826904296875
5745.62573949369	0.78704833984375
5746.62573949116	0.78582763671875
5747.62573948864	0.7843017578125
5748.62573948611	0.7830810546875
5749.62573948359	0.7818603515625
5750.62573948107	0.78094482421875
5751.62573947854	0.77972412109375
5752.62573947602	0.77850341796875
5753.62573947349	0.77728271484375
5754.62573947097	0.7763671875
5755.62573946844	0.775146484375
5756.62573946592	0.77392578125
5757.62573946339	0.772705078125
5758.62573946087	0.77178955078125
5759.62573945834	0.77056884765625
5760.62573945582	0.76934814453125
5761.62573945329	0.7684326171875
5762.62573945077	0.7672119140625
5763.62573944824	0.76629638671875
5764.62573944572	0.76507568359375
5765.62573944319	0.76416015625
5766.62573944067	0.762939453125
5767.62573943814	0.76202392578125
5768.62573943562	0.76080322265625
5769.6257394331	0.7598876953125
5770.62573943057	0.7586669921875
5771.62573942805	0.75775146484375
5772.62573942552	0.7568359375
5773.625739423	0.755615234375
5774.62573942047	0.75469970703125
5775.62573941795	0.7537841796875
5776.62573941542	0.7525634765625
5777.6257394129	0.75164794921875
5778.62573941037	0.750732421875
5779.62573940785	0.74981689453125
5780.62573940532	0.74859619140625
5781.6257394028	0.7476806640625
5782.62573940027	0.74676513671875
5783.62573939775	0.745849609375
5784.62573939522	0.74462890625
5785.6257393927	0.74371337890625
5786.62573939017	0.7427978515625
5787.62573938765	0.74188232421875
5788.62573938512	0.74066162109375
5789.6257393826	0.73974609375
5790.62573938008	0.73883056640625
5791.62573937755	0.7379150390625
5792.62573937503	0.73699951171875
5793.6257393725	0.736083984375
5794.62573936998	0.73486328125
5795.62573936745	0.73394775390625
5796.62573936493	0.7330322265625
5797.6257393624	0.73211669921875
5798.62573935988	0.731201171875
5799.62573935735	0.73028564453125
5800.62573935483	0.7293701171875
5801.6257393523	0.7281494140625
5802.62573934978	0.72723388671875
5803.62573934725	0.726318359375
5804.62573934473	0.72540283203125
5805.6257393422	0.7244873046875
5806.62573933968	0.72357177734375
5807.62573933715	0.72265625
5808.62573933463	0.72174072265625
5809.6257393321	0.7208251953125
5810.62573932958	0.7196044921875
5811.62573932706	0.71868896484375
5812.62573932453	0.7177734375
5813.62573932201	0.71685791015625
5814.62573931948	0.7159423828125
5815.62573931696	0.71502685546875
5816.62573931443	0.714111328125
5817.62573931191	0.71319580078125
5818.62573930938	0.7122802734375
5819.62573930686	0.71136474609375
5820.62573930433	0.71044921875
5821.62573930181	0.70953369140625
5822.62573929928	0.70831298828125
5823.62573929676	0.7073974609375
5824.62573929423	0.70648193359375
5825.62573929171	0.70556640625
5826.62573928918	0.70465087890625
5827.62573928666	0.7037353515625
5828.62573928413	0.70281982421875
5829.62573928161	0.701904296875
5830.62573927908	0.70098876953125
5831.62573927656	0.7000732421875
5832.62573927404	0.69915771484375
5833.62573927151	0.6982421875
5834.62573926899	0.69732666015625
5835.62573926646	0.6964111328125
5836.62573926394	0.69549560546875
5837.62573926141	0.694580078125
5838.62573925889	0.69366455078125
5839.62573925636	0.6927490234375
5840.62573925384	0.69183349609375
5841.62573925131	0.69091796875
5842.62573924879	0.69000244140625
5843.62573924626	0.6890869140625
5844.62573924374	0.68817138671875
5845.62573924121	0.68695068359375
5846.62573923869	0.68603515625
5847.62573923616	0.68511962890625
5848.62573923364	0.6842041015625
5849.62573923111	0.68328857421875
5850.62573922859	0.682373046875
5851.62573922606	0.68145751953125
5852.62573922354	0.6805419921875
5853.62573922102	0.67962646484375
5854.62573921849	0.6787109375
5855.62573921597	0.67779541015625
5856.62573921344	0.6768798828125
5857.62573921092	0.67596435546875
5858.62573920839	0.675048828125
5859.62573920587	0.67413330078125
5860.62573920334	0.6732177734375
5861.62573920082	0.67230224609375
5862.62573919829	0.67138671875
5863.62573919577	0.67047119140625
5864.62573919324	0.6695556640625
5865.62573919072	0.66864013671875
5866.62573918819	0.667724609375
5867.62573918567	0.66680908203125
5868.62573918314	0.6658935546875
5869.62573918062	0.6646728515625
5870.62573917809	0.66375732421875
5871.62573917557	0.662841796875
5872.62573917305	0.66192626953125
5873.62573917052	0.6610107421875
5874.625739168	0.66009521484375
5875.62573916547	0.6591796875
5876.62573916295	0.65826416015625
5877.62573916042	0.6573486328125
5878.6257391579	0.65643310546875
5879.62573915537	0.655517578125
5880.62573915285	0.65460205078125
5881.62573915032	0.6536865234375
5882.6257391478	0.65277099609375
5883.62573914527	0.65185546875
5884.62573914275	0.65093994140625
5885.62573914022	0.6500244140625
5886.6257391377	0.64910888671875
5887.62573913517	0.648193359375
5888.62573913265	0.64727783203125
5889.62573913012	0.6463623046875
5890.6257391276	0.64544677734375
5891.62573912507	0.64453125
5892.62573912255	0.64361572265625
5893.62573912003	0.6427001953125
5894.6257391175	0.64178466796875
5895.62573911498	0.640869140625
5896.62573911245	0.63995361328125
5897.62573910993	0.6390380859375
5898.6257391074	0.63812255859375
5899.62573910488	0.63720703125
5900.62573910235	0.63629150390625
5901.62573909983	0.6353759765625
5902.6257390973	0.63446044921875
5903.62573909478	0.633544921875
5904.62573909225	0.63262939453125
5905.62573908973	0.6317138671875
5906.6257390872	0.63079833984375
5907.62573908468	0.6298828125
5908.62573908215	0.62896728515625
5909.62573907963	0.6280517578125
5910.6257390771	0.62713623046875
5911.62573907458	0.626220703125
5912.62573907205	0.62530517578125
5913.62573906953	0.62469482421875
5914.62573906701	0.623779296875
5915.62573906448	0.62286376953125
5916.62573906196	0.6219482421875
5917.62573905943	0.62103271484375
5918.62573905691	0.6201171875
5919.62573905438	0.61920166015625
5920.62573905186	0.6182861328125
5921.62573904933	0.61737060546875
5922.62573904681	0.616455078125
5923.62573904428	0.61553955078125
5924.62573904176	0.6146240234375
5925.62573903923	0.61370849609375
5926.62573903671	0.61279296875
5927.62573903418	0.61187744140625
5928.62573903166	0.6109619140625
5929.62573902913	0.61004638671875
5930.62573902661	0.609130859375
5931.62573902408	0.60821533203125
5932.62573902156	0.6072998046875
5933.62573901903	0.60638427734375
5934.62573901651	0.60546875
5935.62573901399	0.60455322265625
5936.62573901146	0.6036376953125
5937.62573900894	0.60272216796875
5938.62573900641	0.601806640625
5939.62573900389	0.60089111328125
5940.62573900136	0.60028076171875
5941.62573899884	0.599365234375
5942.62573899631	0.59844970703125
5943.62573899379	0.5975341796875
5944.62573899126	0.59661865234375
5945.62573898874	0.595703125
5946.62573898621	0.59478759765625
5947.62573898369	0.5938720703125
5948.62573898116	0.59295654296875
5949.62573897864	0.592041015625
5950.62573897611	0.59112548828125
5951.62573897359	0.5902099609375
5952.62573897106	0.58929443359375
5953.62573896854	0.58837890625
5954.62573896601	0.58746337890625
5955.62573896349	0.5865478515625
5956.62573896097	0.58563232421875
5957.62573895844	0.584716796875
5958.62573895592	0.58380126953125
5959.62573895339	0.5828857421875
5960.62573895087	0.582275390625
5961.62573894834	0.58135986328125
5962.62573894582	0.5804443359375
5963.62573894329	0.57952880859375
5964.62573894077	0.57861328125
5965.62573893824	0.57769775390625
5966.62573893572	0.5767822265625
5967.62573893319	0.57586669921875
5968.62573893067	0.574951171875
5969.62573892814	0.57403564453125
5970.62573892562	0.5731201171875
5971.62573892309	0.57220458984375
5972.62573892057	0.57159423828125
5973.62573891804	0.5706787109375
5974.62573891552	0.56976318359375
5975.625738913	0.56884765625
5976.62573891047	0.56793212890625
5977.62573890795	0.5670166015625
5978.62573890542	0.56610107421875
5979.6257389029	0.565185546875
5980.62573890037	0.56427001953125
5981.62573889785	0.5633544921875
5982.62573889532	0.562744140625
5983.6257388928	0.56182861328125
5984.62573889027	0.5609130859375
5985.62573888775	0.55999755859375
5986.62573888522	0.55908203125
5987.6257388827	0.55816650390625
5988.62573888017	0.5572509765625
5989.62573887765	0.55633544921875
5990.62573887512	0.555419921875
5991.6257388726	0.5548095703125
5992.62573887007	0.55389404296875
5993.62573886755	0.552978515625
5994.62573886502	0.55206298828125
5995.6257388625	0.5511474609375
5996.62573885998	0.55023193359375
5997.62573885745	0.54931640625
5998.62573885493	0.5487060546875
5999.6257388524	0.54779052734375
6000.62573884988	0.546875
6001.62573884735	0.54595947265625
6002.62573884483	0.54534912109375
6003.6257388423	0.54443359375
6004.62573883978	0.54351806640625
6005.62573883725	0.5426025390625
6006.62573883473	0.54168701171875
6007.6257388322	0.540771484375
6008.62573882968	0.53985595703125
6009.62573882715	0.53924560546875
6010.62573882463	0.538330078125
6011.6257388221	0.53741455078125
6012.62573881958	0.5364990234375
6013.62573881705	0.53558349609375
6014.62573881453	0.53497314453125
6015.625738812	0.5340576171875
6016.62573880948	0.53314208984375
6017.62573880696	0.5322265625
6018.62573880443	0.53131103515625
6019.62573880191	0.5303955078125
6020.62573879938	0.52978515625
6021.62573879686	0.52886962890625
6022.62573879433	0.5279541015625
6023.62573879181	0.52703857421875
6024.62573878928	0.526123046875
6025.62573878676	0.5255126953125
6026.62573878423	0.52459716796875
6027.62573878171	0.523681640625
6028.62573877918	0.52276611328125
6029.62573877666	0.5218505859375
6030.62573877413	0.521240234375
6031.62573877161	0.52032470703125
6032.62573876908	0.5194091796875
6033.62573876656	0.51849365234375
6034.62573876403	0.517578125
6035.62573876151	0.5169677734375
6036.62573875898	0.51605224609375
6037.62573875646	0.51513671875
6038.62573875394	0.51422119140625
6039.62573875141	0.51361083984375
6040.62573874889	0.5126953125
6041.62573874636	0.51177978515625
6042.62573874384	0.5108642578125
6043.62573874131	0.51025390625
6044.62573873879	0.50933837890625
6045.62573873626	0.5084228515625
6046.62573873374	0.50750732421875
6047.62573873121	0.50689697265625
6048.62573872869	0.5059814453125
6049.62573872616	0.50506591796875
6050.62573872364	0.504150390625
6051.62573872111	0.50323486328125
6052.62573871859	0.50262451171875
6053.62573871606	0.501708984375
6054.62573871354	0.50079345703125
6055.62573871101	0.50018310546875
6056.62573870849	0.499237060546875
6057.62573870596	0.4984130859375
6058.62573870344	0.49755859375
6059.62573870092	0.496734619140625
6060.62573869839	0.49591064453125
6061.62573869587	0.49505615234375
6062.62573869334	0.494232177734375
6063.62573869082	0.493408203125
6064.62573868829	0.492584228515625
6065.62573868577	0.49176025390625
6066.62573868324	0.490936279296875
6067.62573868072	0.4901123046875
6068.62573867819	0.489288330078125
6069.62573867567	0.48846435546875
6070.62573867314	0.487640380859375
6071.62573867062	0.48681640625
6072.62573866809	0.485992431640625
6073.62573866557	0.48516845703125
6074.62573866304	0.484375
6075.62573866052	0.483551025390625
6076.62573865799	0.48272705078125
6077.62573865547	0.481903076171875
6078.62573865295	0.4810791015625
6079.62573865042	0.480255126953125
6080.6257386479	0.47943115234375
6081.62573864537	0.478607177734375
6082.62573864285	0.477783203125
6083.62573864032	0.47698974609375
6084.6257386378	0.476165771484375
6085.62573863527	0.475341796875
6086.62573863275	0.47454833984375
6087.62573863022	0.473724365234375
6088.6257386277	0.472900390625
6089.62573862517	0.472076416015625
6090.62573862265	0.471282958984375
6091.62573862012	0.470458984375
6092.6257386176	0.469635009765625
6093.62573861507	0.468841552734375
6094.62573861255	0.468048095703125
6095.62573861002	0.46722412109375
6096.6257386075	0.4664306640625
6097.62573860497	0.465606689453125
6098.62573860245	0.464813232421875
6099.62573859993	0.4639892578125
6100.6257385974	0.46319580078125
6101.62573859488	0.462371826171875
6102.62573859235	0.461578369140625
6103.62573858983	0.460784912109375
6104.6257385873	0.4599609375
6105.62573858478	0.45916748046875
6106.62573858225	0.458343505859375
6107.62573857973	0.457550048828125
6108.6257385772	0.45672607421875
6109.62573857468	0.4559326171875
6110.62573857215	0.45513916015625
6111.62573856963	0.454315185546875
6112.6257385671	0.453521728515625
6113.62573856458	0.4527587890625
6114.62573856205	0.45196533203125
6115.62573855953	0.451141357421875
6116.625738557	0.450347900390625
6117.62573855448	0.449554443359375
6118.62573855195	0.448760986328125
6119.62573854943	0.447967529296875
6120.62573854691	0.4471435546875
6121.62573854438	0.44635009765625
6122.62573854186	0.445556640625
6123.62573853933	0.44476318359375
6124.62573853681	0.4439697265625
6125.62573853428	0.44317626953125
6126.62573853176	0.4423828125
6127.62573852923	0.44158935546875
6128.62573852671	0.4407958984375
6129.62573852418	0.44000244140625
6130.62573852166	0.439208984375
6131.62573851913	0.43841552734375
6132.62573851661	0.4376220703125
6133.62573851408	0.436859130859375
6134.62573851156	0.436065673828125
6135.62573850903	0.435272216796875
6136.62573850651	0.434478759765625
6137.62573850398	0.433685302734375
6138.62573850146	0.432891845703125
6139.62573849893	0.432098388671875
6140.62573849641	0.431304931640625
6141.62573849389	0.4305419921875
6142.62573849136	0.42974853515625
6143.62573848884	0.428955078125
6144.62573848631	0.428192138671875
6145.62573848379	0.427398681640625
6146.62573848126	0.426605224609375
6147.62573847874	0.42584228515625
6148.62573847621	0.425048828125
6149.62573847369	0.42425537109375
6150.62573847116	0.423492431640625
6151.62573846864	0.422698974609375
6152.62573846611	0.42193603515625
6153.62573846359	0.421173095703125
6154.62573846106	0.42041015625
6155.62573845854	0.41961669921875
6156.62573845601	0.418853759765625
6157.62573845349	0.418060302734375
6158.62573845096	0.417266845703125
6159.62573844844	0.41650390625
6160.62573844591	0.41571044921875
6161.62573844339	0.414947509765625
6162.62573844087	0.4141845703125
6163.62573843834	0.413421630859375
6164.62573843582	0.412628173828125
6165.62573843329	0.411865234375
6166.62573843077	0.411102294921875
6167.62573842824	0.410308837890625
6168.62573842572	0.4095458984375
6169.62573842319	0.40875244140625
6170.62573842067	0.407989501953125
6171.62573841814	0.4072265625
6172.62573841562	0.406463623046875
6173.62573841309	0.40570068359375
6174.62573841057	0.404937744140625
6175.62573840804	0.4041748046875
6176.62573840552	0.403411865234375
6177.62573840299	0.40264892578125
6178.62573840047	0.401885986328125
6179.62573839794	0.401092529296875
6180.62573839542	0.40032958984375
6181.6257383929	0.399566650390625
6182.62573839037	0.3988037109375
6183.62573838785	0.3980712890625
6184.62573838532	0.397308349609375
6185.6257383828	0.39654541015625
6186.62573838027	0.395782470703125
6187.62573837775	0.39501953125
6188.62573837522	0.394256591796875
6189.6257383727	0.39349365234375
6190.62573837017	0.392730712890625
6191.62573836765	0.3919677734375
6192.62573836512	0.391204833984375
6193.6257383626	0.3905029296875
6194.62573836007	0.389739990234375
6195.62573835755	0.38897705078125
6196.62573835502	0.388214111328125
6197.6257383525	0.387481689453125
6198.62573834997	0.38671875
6199.62573834745	0.385955810546875
6200.62573834492	0.385223388671875
6201.6257383424	0.38446044921875
6202.62573833988	0.383697509765625
6203.62573833735	0.382965087890625
6204.62573833483	0.382232666015625
6205.6257383323	0.3814697265625
6206.62573832978	0.380706787109375
6207.62573832725	0.379974365234375
6208.62573832473	0.37921142578125
6209.6257383222	0.37847900390625
6210.62573831968	0.377716064453125
6211.62573831715	0.376983642578125
6212.62573831463	0.376220703125
6213.6257383121	0.37548828125
6214.62573830958	0.374755859375
6215.62573830705	0.3740234375
6216.62573830453	0.373291015625
6217.625738302	0.372528076171875
6218.62573829948	0.371795654296875
6219.62573829695	0.371063232421875
6220.62573829443	0.37030029296875
6221.6257382919	0.36956787109375
6222.62573828938	0.36883544921875
6223.62573828686	0.36810302734375
6224.62573828433	0.36737060546875
6225.62573828181	0.36663818359375
6226.62573827928	0.36590576171875
6227.62573827676	0.36517333984375
6228.62573827423	0.364410400390625
6229.62573827171	0.363677978515625
6230.62573826918	0.362945556640625
6231.62573826666	0.362213134765625
6232.62573826413	0.361480712890625
6233.62573826161	0.360748291015625
6234.62573825908	0.360015869140625
6235.62573825656	0.359344482421875
6236.62573825403	0.358612060546875
6237.62573825151	0.357879638671875
6238.62573824898	0.357147216796875
6239.62573824646	0.356414794921875
6240.62573824393	0.355682373046875
6241.62573824141	0.354949951171875
6242.62573823888	0.354217529296875
6243.62573823636	0.353515625
6244.62573823384	0.352783203125
6245.62573823131	0.35205078125
6246.62573822879	0.351348876953125
6247.62573822626	0.350616455078125
6248.62573822374	0.349884033203125
6249.62573822121	0.349151611328125
6250.62573821869	0.34844970703125
6251.62573821616	0.34771728515625
6252.62573821364	0.34698486328125
6253.62573821111	0.346282958984375
6254.62573820859	0.345550537109375
6255.62573820606	0.3448486328125
6256.62573820354	0.3441162109375
6257.62573820101	0.343414306640625
6258.62573819849	0.34271240234375
6259.62573819596	0.34197998046875
6260.62573819344	0.341278076171875
6261.62573819091	0.340576171875
6262.62573818839	0.33984375
6263.62573818586	0.339141845703125
6264.62573818334	0.338409423828125
6265.62573818082	0.33770751953125
6266.62573817829	0.33697509765625
6267.62573817577	0.336273193359375
6268.62573817324	0.3355712890625
6269.62573817072	0.334869384765625
6270.62573816819	0.33416748046875
6271.62573816567	0.33343505859375
6272.62573816314	0.332733154296875
6273.62573816062	0.33203125
6274.62573815809	0.331298828125
6275.62573815557	0.330596923828125
6276.62573815304	0.32989501953125
6277.62573815052	0.329193115234375
6278.62573814799	0.3284912109375
6279.62573814547	0.32781982421875
6280.62573814294	0.327117919921875
6281.62573814042	0.326416015625
6282.62573813789	0.32568359375
6283.62573813537	0.32501220703125
6284.62573813285	0.32427978515625
6285.62573813032	0.323577880859375
6286.6257381278	0.3228759765625
6287.62573812527	0.322174072265625
6288.62573812275	0.32147216796875
6289.62573812022	0.320770263671875
6290.6257381177	0.320098876953125
6291.62573811517	0.31939697265625
6292.62573811265	0.318695068359375
6293.62573811012	0.3179931640625
6294.6257381076	0.317291259765625
6295.62573810507	0.316619873046875
6296.62573810255	0.31591796875
6297.62573810002	0.315216064453125
6298.6257380975	0.31451416015625
6299.62573809497	0.313812255859375
6300.62573809245	0.313140869140625
6301.62573808992	0.312469482421875
6302.6257380874	0.311767578125
6303.62573808487	0.311065673828125
6304.62573808235	0.31036376953125
6305.62573807983	0.3096923828125
6306.6257380773	0.308990478515625
6307.62573807478	0.30828857421875
6308.62573807225	0.3076171875
6309.62573806973	0.306915283203125
6310.6257380672	0.30621337890625
6311.62573806468	0.3055419921875
6312.62573806215	0.304840087890625
6313.62573805963	0.304168701171875
6314.6257380571	0.303497314453125
6315.62573805458	0.30279541015625
6316.62573805205	0.3021240234375
6317.62573804953	0.301422119140625
6318.625738047	0.300750732421875
6319.62573804448	0.300048828125
