Time (s)	WE(1).Potential (V)
4327.51536407407	0.00274658203125
4328.51536407155	0.00413818359375
4329.51536406902	0.005450439453125
4330.5153640665	0.0067169189453125
4331.51536406397	0.00794677734375
4332.51536406145	0.0091522216796875
4333.51536405893	0.01033935546875
4334.5153640564	0.0115020751953125
4335.51536405388	0.012652587890625
4336.51536405135	0.0137939453125
4337.51536404883	0.0149139404296875
4338.5153640463	0.0160247802734375
4339.51536404378	0.01712646484375
4340.51536404125	0.0182159423828125
4341.51536403873	0.01929931640625
4342.5153640362	0.020367431640625
4343.51536403368	0.021435546875
4344.51536403115	0.022491455078125
4345.51536402863	0.0235382080078125
4346.5153640261	0.0245819091796875
4347.51536402358	0.0256195068359375
4348.51536402105	0.02664794921875
4349.51536401853	0.02767333984375
4350.515364016	0.0286956787109375
4351.51536401348	0.029705810546875
4352.51536401095	0.0307159423828125
4353.51536400843	0.031719970703125
4354.51536400591	0.0327178955078125
4355.51536400338	0.033709716796875
4356.51536400086	0.0347015380859375
4357.51536399833	0.0356903076171875
4358.51536399581	0.036669921875
4359.51536399328	0.037646484375
4360.51536399076	0.0386199951171875
4361.51536398823	0.0395904541015625
4362.51536398571	0.040557861328125
4363.51536398318	0.041522216796875
4364.51536398066	0.042486572265625
4365.51536397813	0.043438720703125
4366.51536397561	0.0444000244140625
4367.51536397308	0.0453460693359375
4368.51536397056	0.0462982177734375
4369.51536396803	0.0472412109375
4370.51536396551	0.0481903076171875
4371.51536396298	0.049127197265625
4372.51536396046	0.050079345703125
4373.51536395793	0.051025390625
4374.51536395541	0.05194091796875
4375.51536395289	0.052886962890625
4376.51536395036	0.0538330078125
4377.51536394784	0.05474853515625
4378.51536394531	0.0556640625
4379.51536394279	0.05657958984375
4380.51536394026	0.057525634765625
4381.51536393774	0.058441162109375
4382.51536393521	0.059356689453125
4383.51536393269	0.060272216796875
4384.51536393016	0.061187744140625
4385.51536392764	0.062103271484375
4386.51536392511	0.063018798828125
4387.51536392259	0.06390380859375
4388.51536392006	0.0648193359375
4389.51536391754	0.06573486328125
4390.51536391501	0.066650390625
4391.51536391249	0.067535400390625
4392.51536390996	0.068450927734375
4393.51536390744	0.0693359375
4394.51536390491	0.07025146484375
4395.51536390239	0.071136474609375
4396.51536389987	0.072021484375
4397.51536389734	0.07293701171875
4398.51536389482	0.073822021484375
4399.51536389229	0.07470703125
4400.51536388977	0.07562255859375
4401.51536388724	0.076507568359375
4402.51536388472	0.077392578125
4403.51536388219	0.0782470703125
4404.51536387967	0.079132080078125
4405.51536387714	0.08001708984375
4406.51536387462	0.080902099609375
4407.51536387209	0.081787109375
4408.51536386957	0.082672119140625
4409.51536386704	0.08355712890625
4410.51536386452	0.08441162109375
4411.51536386199	0.085296630859375
4412.51536385947	0.086181640625
4413.51536385694	0.0870361328125
4414.51536385442	0.087921142578125
4415.5153638519	0.08880615234375
4416.51536384937	0.08966064453125
4417.51536384685	0.090545654296875
4418.51536384432	0.0914306640625
4419.5153638418	0.09228515625
4420.51536383927	0.093170166015625
4421.51536383675	0.093994140625
4422.51536383422	0.094879150390625
4423.5153638317	0.095733642578125
4424.51536382917	0.09661865234375
4425.51536382665	0.09747314453125
4426.51536382412	0.09832763671875
4427.5153638216	0.099212646484375
4428.51536381907	0.100067138671875
4429.51536381655	0.100921630859375
4430.51536381402	0.101776123046875
4431.5153638115	0.102630615234375
4432.51536380897	0.103515625
4433.51536380645	0.1043701171875
4434.51536380392	0.105224609375
4435.5153638014	0.1060791015625
4436.51536379888	0.10693359375
4437.51536379635	0.1077880859375
4438.51536379383	0.108642578125
4439.5153637913	0.109466552734375
4440.51536378878	0.110321044921875
4441.51536378625	0.111175537109375
4442.51536378373	0.112030029296875
4443.5153637812	0.112884521484375
4444.51536377868	0.113739013671875
4445.51536377615	0.114593505859375
4446.51536377363	0.115447998046875
4447.5153637711	0.116302490234375
4448.51536376858	0.117156982421875
4449.51536376605	0.11798095703125
4450.51536376353	0.11883544921875
4451.515363761	0.119659423828125
4452.51536375848	0.120513916015625
4453.51536375595	0.121368408203125
4454.51536375343	0.122222900390625
4455.5153637509	0.123077392578125
4456.51536374838	0.1239013671875
4457.51536374586	0.124755859375
4458.51536374333	0.125579833984375
4459.51536374081	0.12640380859375
4460.51536373828	0.12725830078125
4461.51536373576	0.12811279296875
4462.51536373323	0.128936767578125
4463.51536373071	0.129791259765625
4464.51536372818	0.130615234375
4465.51536372566	0.1314697265625
4466.51536372313	0.132293701171875
4467.51536372061	0.13311767578125
4468.51536371808	0.13397216796875
4469.51536371556	0.134796142578125
4470.51536371303	0.1356201171875
4471.51536371051	0.136474609375
4472.51536370798	0.137298583984375
4473.51536370546	0.13812255859375
4474.51536370293	0.13897705078125
4475.51536370041	0.139801025390625
4476.51536369788	0.140625
4477.51536369536	0.14141845703125
4478.51536369284	0.142242431640625
4479.51536369031	0.143096923828125
4480.51536368779	0.1439208984375
4481.51536368526	0.144744873046875
4482.51536368274	0.14556884765625
4483.51536368021	0.146392822265625
4484.51536367769	0.147247314453125
4485.51536367516	0.1480712890625
4486.51536367264	0.14886474609375
4487.51536367011	0.149688720703125
4488.51536366759	0.1505126953125
4489.51536366506	0.151336669921875
4490.51536366254	0.15216064453125
4491.51536366001	0.152984619140625
4492.51536365749	0.15380859375
4493.51536365496	0.154632568359375
4494.51536365244	0.15545654296875
4495.51536364991	0.156280517578125
4496.51536364739	0.157073974609375
4497.51536364486	0.15789794921875
4498.51536364234	0.158721923828125
4499.51536363982	0.1595458984375
4500.51536363729	0.16033935546875
4501.51536363477	0.161163330078125
4502.51536363224	0.1619873046875
4503.51536362972	0.162811279296875
4504.51536362719	0.16363525390625
4505.51536362467	0.1644287109375
4506.51536362214	0.16522216796875
4507.51536361962	0.166046142578125
4508.51536361709	0.1668701171875
4509.51536361457	0.16766357421875
4510.51536361204	0.168487548828125
4511.51536360952	0.1693115234375
4512.51536360699	0.17010498046875
4513.51536360447	0.170928955078125
4514.51536360194	0.171722412109375
4515.51536359942	0.1724853515625
4516.51536359689	0.173309326171875
4517.51536359437	0.174102783203125
4518.51536359185	0.1749267578125
4519.51536358932	0.17572021484375
4520.5153635868	0.176544189453125
4521.51536358427	0.177337646484375
4522.51536358175	0.178131103515625
4523.51536357922	0.178955078125
4524.5153635767	0.17974853515625
4525.51536357417	0.1805419921875
4526.51536357165	0.18133544921875
4527.51536356912	0.18212890625
4528.5153635666	0.182952880859375
4529.51536356407	0.183746337890625
4530.51536356155	0.184539794921875
4531.51536355902	0.185333251953125
4532.5153635565	0.186126708984375
4533.51536355397	0.18695068359375
4534.51536355145	0.187713623046875
4535.51536354892	0.188507080078125
4536.5153635464	0.1893310546875
4537.51536354387	0.19012451171875
4538.51536354135	0.19091796875
4539.51536353883	0.19171142578125
4540.5153635363	0.1925048828125
4541.51536353378	0.19329833984375
4542.51536353125	0.194091796875
4543.51536352873	0.19488525390625
4544.5153635262	0.195648193359375
4545.51536352368	0.196441650390625
4546.51536352115	0.197235107421875
4547.51536351863	0.198028564453125
4548.5153635161	0.198822021484375
4549.51536351358	0.199615478515625
4550.51536351105	0.200408935546875
4551.51536350853	0.201171875
4552.515363506	0.20196533203125
4553.51536350348	0.2027587890625
4554.51536350095	0.2034912109375
4555.51536349843	0.20428466796875
4556.5153634959	0.205078125
4557.51536349338	0.20587158203125
4558.51536349085	0.206634521484375
4559.51536348833	0.207427978515625
4560.51536348581	0.208221435546875
4561.51536348328	0.208984375
4562.51536348076	0.20977783203125
4563.51536347823	0.210540771484375
4564.51536347571	0.2113037109375
4565.51536347318	0.21209716796875
4566.51536347066	0.212860107421875
4567.51536346813	0.213653564453125
4568.51536346561	0.21441650390625
4569.51536346308	0.2152099609375
4570.51536346056	0.215972900390625
4571.51536345803	0.216766357421875
4572.51536345551	0.217529296875
4573.51536345298	0.218292236328125
4574.51536345046	0.21905517578125
4575.51536344793	0.219818115234375
4576.51536344541	0.2205810546875
4577.51536344288	0.22137451171875
4578.51536344036	0.222137451171875
4579.51536343783	0.222900390625
4580.51536343531	0.223663330078125
4581.51536343279	0.22442626953125
4582.51536343026	0.2252197265625
4583.51536342774	0.225982666015625
4584.51536342521	0.226715087890625
4585.51536342269	0.22747802734375
4586.51536342016	0.228240966796875
4587.51536341764	0.229034423828125
4588.51536341511	0.22979736328125
4589.51536341259	0.230560302734375
4590.51536341006	0.2313232421875
4591.51536340754	0.232086181640625
4592.51536340501	0.23284912109375
4593.51536340249	0.23358154296875
4594.51536339996	0.234344482421875
4595.51536339744	0.235076904296875
4596.51536339491	0.23583984375
4597.51536339239	0.236602783203125
4598.51536338986	0.237335205078125
4599.51536338734	0.23809814453125
4600.51536338481	0.238861083984375
4601.51536338229	0.2396240234375
4602.51536337977	0.2403564453125
4603.51536337724	0.241119384765625
4604.51536337472	0.24188232421875
4605.51536337219	0.24261474609375
4606.51536336967	0.243377685546875
4607.51536336714	0.244110107421875
4608.51536336462	0.244873046875
4609.51536336209	0.24560546875
4610.51536335957	0.246368408203125
4611.51536335704	0.247100830078125
4612.51536335452	0.24786376953125
4613.51536335199	0.248626708984375
4614.51536334947	0.249359130859375
4615.51536334694	0.25006103515625
4616.51536334442	0.250823974609375
4617.51536334189	0.251556396484375
4618.51536333937	0.252288818359375
4619.51536333684	0.253021240234375
4620.51536333432	0.2537841796875
4621.5153633318	0.2545166015625
4622.51536332927	0.2552490234375
4623.51536332675	0.256011962890625
4624.51536332422	0.256744384765625
4625.5153633217	0.257476806640625
4626.51536331917	0.258209228515625
4627.51536331665	0.258941650390625
4628.51536331412	0.259674072265625
4629.5153633116	0.260406494140625
4630.51536330907	0.261138916015625
4631.51536330655	0.261871337890625
4632.51536330402	0.262603759765625
4633.5153633015	0.263336181640625
4634.51536329897	0.264068603515625
4635.51536329645	0.264801025390625
4636.51536329392	0.265533447265625
4637.5153632914	0.266204833984375
4638.51536328887	0.266937255859375
4639.51536328635	0.267669677734375
4640.51536328382	0.268402099609375
4641.5153632813	0.269134521484375
4642.51536327878	0.269866943359375
4643.51536327625	0.27056884765625
4644.51536327373	0.27130126953125
4645.5153632712	0.27203369140625
4646.51536326868	0.27276611328125
4647.51536326615	0.273468017578125
4648.51536326363	0.274169921875
4649.5153632611	0.27490234375
4650.51536325858	0.275634765625
4651.51536325605	0.276336669921875
4652.51536325353	0.277069091796875
4653.515363251	0.27777099609375
4654.51536324848	0.27850341796875
4655.51536324595	0.279205322265625
4656.51536324343	0.279937744140625
4657.5153632409	0.2806396484375
4658.51536323838	0.281341552734375
4659.51536323585	0.28204345703125
4660.51536323333	0.282745361328125
4661.5153632308	0.283447265625
4662.51536322828	0.2841796875
4663.51536322576	0.284881591796875
4664.51536322323	0.28558349609375
4665.51536322071	0.28631591796875
4666.51536321818	0.287017822265625
4667.51536321566	0.2877197265625
4668.51536321313	0.288421630859375
4669.51536321061	0.28912353515625
4670.51536320808	0.289825439453125
4671.51536320556	0.29052734375
4672.51536320303	0.291229248046875
4673.51536320051	0.29193115234375
4674.51536319798	0.292633056640625
4675.51536319546	0.2933349609375
4676.51536319293	0.294036865234375
4677.51536319041	0.29473876953125
4678.51536318788	0.295440673828125
4679.51536318536	0.296142578125
4680.51536318283	0.29681396484375
4681.51536318031	0.2974853515625
4682.51536317778	0.298187255859375
4683.51536317526	0.298858642578125
4684.51536317274	0.299560546875
4685.51536317021	0.300262451171875
4686.51536316769	0.30096435546875
4687.51536316516	0.3016357421875
4688.51536316264	0.302337646484375
4689.51536316011	0.30303955078125
4690.51536315759	0.3037109375
4691.51536315506	0.304412841796875
4692.51536315254	0.305084228515625
4693.51536315001	0.3057861328125
4694.51536314749	0.30645751953125
4695.51536314496	0.307159423828125
4696.51536314244	0.307830810546875
4697.51536313991	0.308502197265625
4698.51536313739	0.3092041015625
4699.51536313486	0.30987548828125
4700.51536313234	0.310577392578125
4701.51536312981	0.311248779296875
4702.51536312729	0.311920166015625
4703.51536312476	0.312591552734375
4704.51536312224	0.313262939453125
4705.51536311972	0.31396484375
4706.51536311719	0.31463623046875
4707.51536311467	0.3153076171875
4708.51536311214	0.31597900390625
4709.51536310962	0.316680908203125
4710.51536310709	0.317352294921875
4711.51536310457	0.318023681640625
4712.51536310204	0.318695068359375
4713.51536309952	0.319366455078125
4714.51536309699	0.320037841796875
4715.51536309447	0.320709228515625
4716.51536309194	0.321380615234375
4717.51536308942	0.322052001953125
4718.51536308689	0.322723388671875
4719.51536308437	0.3233642578125
4720.51536308184	0.32403564453125
4721.51536307932	0.32470703125
4722.51536307679	0.32537841796875
4723.51536307427	0.3260498046875
4724.51536307175	0.32672119140625
4725.51536306922	0.327392578125
4726.5153630667	0.32806396484375
4727.51536306417	0.32867431640625
4728.51536306165	0.329345703125
4729.51536305912	0.329986572265625
4730.5153630566	0.330657958984375
4731.51536305407	0.331329345703125
4732.51536305155	0.332000732421875
4733.51536304902	0.3326416015625
4734.5153630465	0.33331298828125
4735.51536304397	0.333984375
4736.51536304145	0.334625244140625
4737.51536303892	0.335296630859375
4738.5153630364	0.3359375
4739.51536303387	0.336578369140625
4740.51536303135	0.337249755859375
4741.51536302882	0.337890625
4742.5153630263	0.33856201171875
4743.51536302377	0.339202880859375
4744.51536302125	0.339874267578125
4745.51536301873	0.34051513671875
4746.5153630162	0.341156005859375
4747.51536301368	0.341827392578125
4748.51536301115	0.34246826171875
4749.51536300863	0.343109130859375
4750.5153630061	0.34375
4751.51536300358	0.344390869140625
4752.51536300105	0.34503173828125
4753.51536299853	0.345703125
4754.515362996	0.346343994140625
4755.51536299348	0.34698486328125
4756.51536299095	0.347625732421875
4757.51536298843	0.3482666015625
4758.5153629859	0.348907470703125
4759.51536298338	0.349578857421875
4760.51536298085	0.3502197265625
4761.51536297833	0.350860595703125
4762.5153629758	0.35150146484375
4763.51536297328	0.352142333984375
4764.51536297075	0.352783203125
4765.51536296823	0.353424072265625
4766.51536296571	0.35406494140625
4767.51536296318	0.35467529296875
4768.51536296066	0.3553466796875
4769.51536295813	0.35595703125
4770.51536295561	0.35662841796875
4771.51536295308	0.35723876953125
4772.51536295056	0.357879638671875
4773.51536294803	0.3585205078125
4774.51536294551	0.359161376953125
4775.51536294298	0.359771728515625
4776.51536294046	0.360382080078125
4777.51536293793	0.36102294921875
4778.51536293541	0.361663818359375
4779.51536293288	0.3623046875
4780.51536293036	0.362945556640625
4781.51536292783	0.363555908203125
4782.51536292531	0.36419677734375
4783.51536292278	0.364837646484375
4784.51536292026	0.365478515625
4785.51536291773	0.3660888671875
4786.51536291521	0.366729736328125
4787.51536291269	0.367340087890625
4788.51536291016	0.36798095703125
4789.51536290764	0.368621826171875
4790.51536290511	0.369232177734375
4791.51536290259	0.369873046875
4792.51536290006	0.3704833984375
4793.51536289754	0.371124267578125
4794.51536289501	0.37176513671875
4795.51536289249	0.37237548828125
4796.51536288996	0.373016357421875
4797.51536288744	0.373626708984375
4798.51536288491	0.374267578125
4799.51536288239	0.374908447265625
4800.51536287986	0.37548828125
4801.51536287734	0.376129150390625
4802.51536287481	0.376739501953125
4803.51536287229	0.37738037109375
4804.51536286976	0.37799072265625
4805.51536286724	0.378631591796875
4806.51536286471	0.379241943359375
4807.51536286219	0.3798828125
4808.51536285967	0.3804931640625
4809.51536285714	0.381134033203125
4810.51536285462	0.381744384765625
4811.51536285209	0.38238525390625
4812.51536284957	0.38299560546875
4813.51536284704	0.38360595703125
4814.51536284452	0.38421630859375
4815.51536284199	0.384857177734375
4816.51536283947	0.385467529296875
4817.51536283694	0.386077880859375
4818.51536283442	0.38671875
4819.51536283189	0.3873291015625
4820.51536282937	0.387969970703125
4821.51536282684	0.388580322265625
4822.51536282432	0.389190673828125
4823.51536282179	0.38983154296875
4824.51536281927	0.39044189453125
4825.51536281674	0.391021728515625
4826.51536281422	0.391632080078125
4827.5153628117	0.39227294921875
4828.51536280917	0.39288330078125
4829.51536280665	0.39349365234375
4830.51536280412	0.394134521484375
4831.5153628016	0.394744873046875
4832.51536279907	0.395355224609375
4833.51536279655	0.39599609375
4834.51536279402	0.3966064453125
4835.5153627915	0.397216796875
4836.51536278897	0.397857666015625
4837.51536278645	0.398468017578125
4838.51536278392	0.399078369140625
4839.5153627814	0.399688720703125
4840.51536277887	0.400299072265625
4841.51536277635	0.40093994140625
4842.51536277382	0.40155029296875
4843.5153627713	0.40216064453125
4844.51536276877	0.402801513671875
4845.51536276625	0.403411865234375
4846.51536276372	0.404022216796875
4847.5153627612	0.404632568359375
4848.51536275868	0.4052734375
4849.51536275615	0.4058837890625
4850.51536275363	0.406463623046875
4851.5153627511	0.407073974609375
4852.51536274858	0.40771484375
4853.51536274605	0.4083251953125
4854.51536274353	0.408935546875
4855.515362741	0.4095458984375
4856.51536273848	0.410186767578125
4857.51536273595	0.410797119140625
4858.51536273343	0.411407470703125
4859.5153627309	0.41204833984375
4860.51536272838	0.41265869140625
4861.51536272585	0.41326904296875
4862.51536272333	0.413909912109375
4863.5153627208	0.41448974609375
4864.51536271828	0.415130615234375
4865.51536271575	0.415740966796875
4866.51536271323	0.416351318359375
4867.5153627107	0.4169921875
4868.51536270818	0.4176025390625
4869.51536270566	0.418212890625
4870.51536270313	0.418853759765625
4871.51536270061	0.419464111328125
4872.51536269808	0.420074462890625
4873.51536269556	0.42071533203125
4874.51536269303	0.42132568359375
4875.51536269051	0.421905517578125
4876.51536268798	0.422515869140625
4877.51536268546	0.42315673828125
4878.51536268293	0.42376708984375
4879.51536268041	0.42437744140625
4880.51536267788	0.425018310546875
4881.51536267536	0.425628662109375
4882.51536267283	0.42626953125
4883.51536267031	0.4268798828125
4884.51536266778	0.427490234375
4885.51536266526	0.428131103515625
4886.51536266273	0.428741455078125
4887.51536266021	0.42938232421875
4888.51536265768	0.42999267578125
4889.51536265516	0.43060302734375
4890.51536265264	0.431243896484375
4891.51536265011	0.431854248046875
4892.51536264759	0.4324951171875
4893.51536264506	0.43310546875
4894.51536264254	0.433746337890625
4895.51536264001	0.434356689453125
4896.51536263749	0.43499755859375
4897.51536263496	0.435638427734375
4898.51536263244	0.436248779296875
4899.51536262991	0.436859130859375
4900.51536262739	0.4375
4901.51536262486	0.4381103515625
4902.51536262234	0.438751220703125
4903.51536261981	0.439361572265625
4904.51536261729	0.44000244140625
4905.51536261476	0.44061279296875
4906.51536261224	0.441253662109375
4907.51536260971	0.44189453125
4908.51536260719	0.442535400390625
4909.51536260466	0.443145751953125
4910.51536260214	0.44378662109375
4911.51536259962	0.444427490234375
4912.51536259709	0.445037841796875
4913.51536259457	0.4456787109375
4914.51536259204	0.4462890625
4915.51536258952	0.446929931640625
4916.51536258699	0.44757080078125
4917.51536258447	0.44818115234375
4918.51536258194	0.448822021484375
4919.51536257942	0.449462890625
4920.51536257689	0.450103759765625
4921.51536257437	0.45074462890625
4922.51536257184	0.451385498046875
4923.51536256932	0.451995849609375
4924.51536256679	0.45263671875
4925.51536256427	0.4532470703125
4926.51536256174	0.453857421875
4927.51536255922	0.454498291015625
4928.51536255669	0.45513916015625
4929.51536255417	0.455780029296875
4930.51536255165	0.4564208984375
4931.51536254912	0.457061767578125
4932.5153625466	0.45770263671875
4933.51536254407	0.458343505859375
4934.51536254155	0.458984375
4935.51536253902	0.459625244140625
4936.5153625365	0.46026611328125
4937.51536253397	0.460906982421875
4938.51536253145	0.461517333984375
4939.51536252892	0.462158203125
4940.5153625264	0.462799072265625
4941.51536252387	0.46343994140625
4942.51536252135	0.464080810546875
4943.51536251882	0.4647216796875
4944.5153625163	0.465362548828125
4945.51536251377	0.46600341796875
4946.51536251125	0.466644287109375
4947.51536250872	0.467315673828125
4948.5153625062	0.46795654296875
4949.51536250367	0.468597412109375
4950.51536250115	0.469207763671875
4951.51536249863	0.4698486328125
4952.5153624961	0.470489501953125
4953.51536249358	0.47113037109375
4954.51536249105	0.471771240234375
4955.51536248853	0.472412109375
4956.515362486	0.47308349609375
4957.51536248348	0.473724365234375
4958.51536248095	0.474365234375
4959.51536247843	0.475006103515625
4960.5153624759	0.47564697265625
4961.51536247338	0.476318359375
4962.51536247085	0.4769287109375
4963.51536246833	0.47760009765625
4964.5153624658	0.478240966796875
4965.51536246328	0.4788818359375
4966.51536246075	0.479522705078125
4967.51536245823	0.48016357421875
4968.5153624557	0.4808349609375
4969.51536245318	0.481475830078125
4970.51536245065	0.48211669921875
4971.51536244813	0.4827880859375
4972.51536244561	0.483428955078125
4973.51536244308	0.48406982421875
4974.51536244056	0.48468017578125
4975.51536243803	0.485321044921875
4976.51536243551	0.485992431640625
4977.51536243298	0.48663330078125
4978.51536243046	0.4873046875
4979.51536242793	0.487945556640625
4980.51536242541	0.48858642578125
4981.51536242288	0.4892578125
4982.51536242036	0.489898681640625
4983.51536241783	0.49053955078125
4984.51536241531	0.4912109375
4985.51536241278	0.491851806640625
4986.51536241026	0.49249267578125
4987.51536240773	0.4931640625
4988.51536240521	0.493804931640625
4989.51536240268	0.49444580078125
4990.51536240016	0.4951171875
4991.51536239763	0.495758056640625
4992.51536239511	0.496429443359375
4993.51536239259	0.4970703125
4994.51536239006	0.49774169921875
4995.51536238754	0.498382568359375
4996.51536238501	0.499053955078125
4997.51536238249	0.49969482421875
4998.51536237996	0.50018310546875
4999.51536237744	0.5010986328125
5000.51536237491	0.501708984375
5001.51536237239	0.5023193359375
5002.51536236986	0.5029296875
5003.51536236734	0.5035400390625
5004.51536236481	0.504150390625
5005.51536236229	0.5047607421875
5006.51536235976	0.50567626953125
5007.51536235724	0.50628662109375
5008.51536235471	0.50689697265625
5009.51536235219	0.50750732421875
5010.51536234966	0.50811767578125
5011.51536234714	0.50872802734375
5012.51536234461	0.5096435546875
5013.51536234209	0.51025390625
5014.51536233957	0.5108642578125
5015.51536233704	0.511474609375
5016.51536233452	0.5120849609375
5017.51536233199	0.5126953125
5018.51536232947	0.5133056640625
5019.51536232694	0.51422119140625
5020.51536232442	0.51483154296875
5021.51536232189	0.51544189453125
5022.51536231937	0.51605224609375
5023.51536231684	0.51666259765625
5024.51536231432	0.51727294921875
5025.51536231179	0.5181884765625
5026.51536230927	0.518798828125
5027.51536230674	0.5194091796875
5028.51536230422	0.52001953125
5029.51536230169	0.5206298828125
5030.51536229917	0.521240234375
5031.51536229664	0.52215576171875
5032.51536229412	0.52276611328125
5033.5153622916	0.52337646484375
5034.51536228907	0.52398681640625
5035.51536228655	0.52459716796875
5036.51536228402	0.52520751953125
5037.5153622815	0.526123046875
5038.51536227897	0.5267333984375
5039.51536227645	0.52734375
5040.51536227392	0.5279541015625
5041.5153622714	0.528564453125
5042.51536226887	0.5291748046875
5043.51536226635	0.52978515625
5044.51536226382	0.53070068359375
5045.5153622613	0.53131103515625
5046.51536225877	0.53192138671875
5047.51536225625	0.53253173828125
5048.51536225372	0.53314208984375
5049.5153622512	0.53375244140625
5050.51536224867	0.53466796875
5051.51536224615	0.5352783203125
5052.51536224362	0.535888671875
5053.5153622411	0.5364990234375
5054.51536223858	0.537109375
5055.51536223605	0.5377197265625
5056.51536223353	0.53863525390625
5057.515362231	0.53924560546875
5058.51536222848	0.53985595703125
5059.51536222595	0.54046630859375
5060.51536222343	0.54107666015625
5061.5153622209	0.54168701171875
5062.51536221838	0.5426025390625
5063.51536221585	0.543212890625
5064.51536221333	0.5438232421875
5065.5153622108	0.54443359375
5066.51536220828	0.5450439453125
5067.51536220575	0.545654296875
5068.51536220323	0.54656982421875
5069.5153622007	0.546875
5070.51536219818	0.5474853515625
5071.51536219565	0.54840087890625
5072.51536219313	0.54901123046875
5073.5153621906	0.54962158203125
5074.51536218808	0.55023193359375
5075.51536218556	0.55084228515625
5076.51536218303	0.55145263671875
5077.51536218051	0.55206298828125
5078.51536217798	0.552978515625
5079.51536217546	0.5535888671875
5080.51536217293	0.55419921875
5081.51536217041	0.5548095703125
5082.51536216788	0.555419921875
5083.51536216536	0.5560302734375
5084.51536216283	0.55694580078125
5085.51536216031	0.55755615234375
5086.51536215778	0.55816650390625
5087.51536215526	0.55877685546875
5088.51536215273	0.55938720703125
5089.51536215021	0.55999755859375
5090.51536214768	0.56060791015625
5091.51536214516	0.5615234375
5092.51536214263	0.5621337890625
5093.51536214011	0.562744140625
5094.51536213758	0.5633544921875
5095.51536213506	0.56396484375
5096.51536213254	0.5645751953125
5097.51536213001	0.565185546875
5098.51536212749	0.56610107421875
5099.51536212496	0.56671142578125
5100.51536212244	0.56732177734375
5101.51536211991	0.56793212890625
5102.51536211739	0.56854248046875
5103.51536211486	0.56915283203125
5104.51536211234	0.56976318359375
5105.51536210981	0.5706787109375
5106.51536210729	0.5712890625
5107.51536210476	0.5718994140625
5108.51536210224	0.572509765625
5109.51536209971	0.5731201171875
5110.51536209719	0.57373046875
5111.51536209466	0.5743408203125
5112.51536209214	0.57525634765625
5113.51536208961	0.57586669921875
5114.51536208709	0.57647705078125
5115.51536208456	0.57708740234375
5116.51536208204	0.57769775390625
5117.51536207952	0.57830810546875
5118.51536207699	0.57891845703125
5119.51536207447	0.57952880859375
5120.51536207194	0.5804443359375
5121.51536206942	0.5810546875
5122.51536206689	0.5816650390625
5123.51536206437	0.582275390625
5124.51536206184	0.5828857421875
5125.51536205932	0.58349609375
5126.51536205679	0.5841064453125
5127.51536205427	0.584716796875
5128.51536205174	0.58563232421875
5129.51536204922	0.58624267578125
5130.51536204669	0.58685302734375
5131.51536204417	0.58746337890625
5132.51536204164	0.58807373046875
5133.51536203912	0.58868408203125
5134.51536203659	0.58929443359375
5135.51536203407	0.5902099609375
5136.51536203155	0.5908203125
5137.51536202902	0.5914306640625
5138.5153620265	0.592041015625
5139.51536202397	0.5926513671875
5140.51536202145	0.59326171875
5141.51536201892	0.5938720703125
5142.5153620164	0.594482421875
5143.51536201387	0.5950927734375
5144.51536201135	0.59600830078125
5145.51536200882	0.59661865234375
5146.5153620063	0.59722900390625
5147.51536200377	0.59783935546875
5148.51536200125	0.59844970703125
5149.51536199872	0.59906005859375
5150.5153619962	0.59967041015625
5151.51536199367	0.60028076171875
5152.51536199115	0.60089111328125
5153.51536198862	0.60150146484375
5154.5153619861	0.6024169921875
5155.51536198357	0.60302734375
5156.51536198105	0.6036376953125
5157.51536197853	0.604248046875
5158.515361976	0.6048583984375
5159.51536197348	0.60546875
5160.51536197095	0.6060791015625
5161.51536196843	0.606689453125
5162.5153619659	0.6072998046875
5163.51536196338	0.60791015625
5164.51536196085	0.6085205078125
5165.51536195833	0.60943603515625
5166.5153619558	0.61004638671875
5167.51536195328	0.61065673828125
5168.51536195075	0.61126708984375
5169.51536194823	0.61187744140625
5170.5153619457	0.61248779296875
5171.51536194318	0.61309814453125
5172.51536194065	0.61370849609375
5173.51536193813	0.61431884765625
5174.5153619356	0.61492919921875
5175.51536193308	0.61553955078125
5176.51536193055	0.61614990234375
5177.51536192803	0.61676025390625
5178.51536192551	0.61737060546875
5179.51536192298	0.6182861328125
5180.51536192046	0.618896484375
5181.51536191793	0.6195068359375
5182.51536191541	0.6201171875
5183.51536191288	0.6207275390625
5184.51536191036	0.621337890625
5185.51536190783	0.6219482421875
5186.51536190531	0.62255859375
5187.51536190278	0.6231689453125
5188.51536190026	0.623779296875
5189.51536189773	0.6243896484375
5190.51536189521	0.625
5191.51536189268	0.6256103515625
5192.51536189016	0.626220703125
5193.51536188763	0.6268310546875
5194.51536188511	0.62744140625
5195.51536188258	0.6280517578125
5196.51536188006	0.628662109375
5197.51536187753	0.6292724609375
5198.51536187501	0.6298828125
5199.51536187249	0.6304931640625
5200.51536186996	0.631103515625
5201.51536186744	0.6317138671875
5202.51536186491	0.63232421875
5203.51536186239	0.6329345703125
5204.51536185986	0.633544921875
5205.51536185734	0.6341552734375
5206.51536185481	0.634765625
5207.51536185229	0.6353759765625
5208.51536184976	0.635986328125
5209.51536184724	0.6365966796875
5210.51536184471	0.63720703125
5211.51536184219	0.6378173828125
5212.51536183966	0.638427734375
5213.51536183714	0.6390380859375
5214.51536183461	0.6396484375
5215.51536183209	0.6402587890625
5216.51536182956	0.640869140625
5217.51536182704	0.6414794921875
5218.51536182451	0.64208984375
5219.51536182199	0.6427001953125
5220.51536181947	0.643310546875
5221.51536181694	0.6439208984375
5222.51536181442	0.64453125
5223.51536181189	0.6451416015625
5224.51536180937	0.645751953125
5225.51536180684	0.6463623046875
5226.51536180432	0.64697265625
5227.51536180179	0.6475830078125
5228.51536179927	0.648193359375
5229.51536179674	0.6488037109375
5230.51536179422	0.6494140625
5231.51536179169	0.6500244140625
5232.51536178917	0.650634765625
5233.51536178664	0.6512451171875
5234.51536178412	0.65155029296875
5235.51536178159	0.65216064453125
5236.51536177907	0.65277099609375
5237.51536177654	0.65338134765625
5238.51536177402	0.65399169921875
5239.5153617715	0.65460205078125
5240.51536176897	0.65521240234375
5241.51536176645	0.65582275390625
5242.51536176392	0.65643310546875
5243.5153617614	0.65704345703125
5244.51536175887	0.65765380859375
5245.51536175635	0.65826416015625
5246.51536175382	0.65887451171875
5247.5153617513	0.65948486328125
5248.51536174877	0.66009521484375
5249.51536174625	0.660400390625
5250.51536174372	0.6610107421875
5251.5153617412	0.66162109375
5252.51536173867	0.6622314453125
5253.51536173615	0.662841796875
5254.51536173362	0.6634521484375
5255.5153617311	0.6640625
5256.51536172857	0.6646728515625
5257.51536172605	0.665283203125
5258.51536172352	0.6658935546875
5259.515361721	0.66650390625
5260.51536171848	0.66680908203125
5261.51536171595	0.66741943359375
5262.51536171343	0.66802978515625
5263.5153617109	0.66864013671875
5264.51536170838	0.66925048828125
5265.51536170585	0.66986083984375
5266.51536170333	0.67047119140625
5267.5153617008	0.67108154296875
5268.51536169828	0.67138671875
5269.51536169575	0.6719970703125
5270.51536169323	0.672607421875
5271.5153616907	0.6732177734375
5272.51536168818	0.673828125
5273.51536168565	0.6744384765625
5274.51536168313	0.675048828125
5275.5153616806	0.67535400390625
5276.51536167808	0.67596435546875
5277.51536167555	0.67657470703125
5278.51536167303	0.67718505859375
5279.5153616705	0.67779541015625
5280.51536166798	0.67840576171875
5281.51536166546	0.6787109375
5282.51536166293	0.6793212890625
5283.51536166041	0.679931640625
5284.51536165788	0.6805419921875
5285.51536165536	0.68084716796875
5286.51536165283	0.68145751953125
5287.51536165031	0.68206787109375
5288.51536164778	0.68267822265625
5289.51536164526	0.68328857421875
5290.51536164273	0.68389892578125
5291.51536164021	0.6842041015625
5292.51536163768	0.684814453125
5293.51536163516	0.6854248046875
5294.51536163263	0.68603515625
5295.51536163011	0.68634033203125
5296.51536162758	0.68695068359375
5297.51536162506	0.68756103515625
5298.51536162253	0.68817138671875
5299.51536162001	0.6884765625
5300.51536161748	0.6890869140625
5301.51536161496	0.689697265625
5302.51536161244	0.6903076171875
5303.51536160991	0.69061279296875
5304.51536160739	0.69122314453125
5305.51536160486	0.69183349609375
5306.51536160234	0.69244384765625
5307.51536159981	0.6927490234375
5308.51536159729	0.693359375
5309.51536159476	0.6939697265625
5310.51536159224	0.69427490234375
5311.51536158971	0.69488525390625
5312.51536158719	0.69549560546875
5313.51536158466	0.69580078125
5314.51536158214	0.6964111328125
5315.51536157961	0.697021484375
5316.51536157709	0.6976318359375
5317.51536157456	0.69793701171875
5318.51536157204	0.69854736328125
5319.51536156951	0.69915771484375
5320.51536156699	0.699462890625
5321.51536156446	0.7000732421875
5322.51536156194	0.70068359375
5323.51536155942	0.70098876953125
5324.51536155689	0.70159912109375
5325.51536155437	0.70220947265625
5326.51536155184	0.7025146484375
5327.51536154932	0.703125
5328.51536154679	0.70343017578125
5329.51536154427	0.70404052734375
5330.51536154174	0.704345703125
5331.51536153922	0.7049560546875
5332.51536153669	0.70526123046875
5333.51536153417	0.70587158203125
5334.51536153164	0.70648193359375
5335.51536152912	0.706787109375
5336.51536152659	0.7073974609375
5337.51536152407	0.70770263671875
5338.51536152154	0.70831298828125
5339.51536151902	0.70892333984375
5340.51536151649	0.709228515625
5341.51536151397	0.7098388671875
5342.51536151145	0.71014404296875
5343.51536150892	0.71075439453125
5344.5153615064	0.7110595703125
5345.51536150387	0.711669921875
5346.51536150135	0.7122802734375
5347.51536149882	0.71258544921875
5348.5153614963	0.71319580078125
5349.51536149377	0.7135009765625
5350.51536149125	0.714111328125
5351.51536148872	0.71441650390625
5352.5153614862	0.71502685546875
5353.51536148367	0.71533203125
5354.51536148115	0.7159423828125
5355.51536147862	0.71624755859375
5356.5153614761	0.71685791015625
5357.51536147357	0.7171630859375
5358.51536147105	0.7177734375
5359.51536146852	0.71807861328125
5360.515361466	0.71868896484375
5361.51536146347	0.718994140625
5362.51536146095	0.7196044921875
5363.51536145843	0.71990966796875
5364.5153614559	0.72021484375
5365.51536145338	0.7208251953125
5366.51536145085	0.72113037109375
5367.51536144833	0.72174072265625
5368.5153614458	0.7220458984375
5369.51536144328	0.72265625
5370.51536144075	0.72296142578125
5371.51536143823	0.72357177734375
5372.5153614357	0.723876953125
5373.51536143318	0.72418212890625
5374.51536143065	0.72479248046875
5375.51536142813	0.72509765625
5376.5153614256	0.7257080078125
5377.51536142308	0.72601318359375
5378.51536142055	0.726318359375
5379.51536141803	0.7269287109375
5380.5153614155	0.72723388671875
5381.51536141298	0.72784423828125
5382.51536141045	0.7281494140625
5383.51536140793	0.72845458984375
5384.51536140541	0.72906494140625
5385.51536140288	0.7293701171875
5386.51536140036	0.72967529296875
5387.51536139783	0.73028564453125
5388.51536139531	0.7305908203125
5389.51536139278	0.73089599609375
5390.51536139026	0.73150634765625
5391.51536138773	0.7318115234375
5392.51536138521	0.73211669921875
5393.51536138268	0.73272705078125
5394.51536138016	0.7330322265625
5395.51536137763	0.73333740234375
5396.51536137511	0.73394775390625
5397.51536137258	0.7342529296875
5398.51536137006	0.73455810546875
5399.51536136753	0.73486328125
5400.51536136501	0.7354736328125
5401.51536136248	0.73577880859375
5402.51536135996	0.736083984375
5403.51536135743	0.73638916015625
5404.51536135491	0.73699951171875
5405.51536135239	0.7373046875
5406.51536134986	0.73760986328125
5407.51536134734	0.7379150390625
5408.51536134481	0.738525390625
5409.51536134229	0.73883056640625
5410.51536133976	0.7391357421875
5411.51536133724	0.73944091796875
5412.51536133471	0.73974609375
5413.51536133219	0.7403564453125
5414.51536132966	0.74066162109375
5415.51536132714	0.740966796875
5416.51536132461	0.74127197265625
5417.51536132209	0.7415771484375
5418.51536131956	0.7421875
5419.51536131704	0.74249267578125
5420.51536131451	0.7427978515625
5421.51536131199	0.74310302734375
5422.51536130946	0.743408203125
5423.51536130694	0.7440185546875
5424.51536130441	0.74432373046875
5425.51536130189	0.74462890625
5426.51536129937	0.74493408203125
5427.51536129684	0.7452392578125
5428.51536129432	0.74554443359375
5429.51536129179	0.745849609375
5430.51536128927	0.74615478515625
5431.51536128674	0.74676513671875
5432.51536128422	0.7470703125
5433.51536128169	0.74737548828125
5434.51536127917	0.7476806640625
5435.51536127664	0.74798583984375
5436.51536127412	0.748291015625
5437.51536127159	0.74859619140625
5438.51536126907	0.7489013671875
5439.51536126654	0.74920654296875
5440.51536126402	0.74951171875
5441.51536126149	0.74981689453125
5442.51536125897	0.7501220703125
5443.51536125644	0.750732421875
5444.51536125392	0.75103759765625
5445.5153612514	0.7513427734375
5446.51536124887	0.75164794921875
5447.51536124635	0.751953125
5448.51536124382	0.75225830078125
5449.5153612413	0.7525634765625
5450.51536123877	0.75286865234375
5451.51536123625	0.753173828125
5452.51536123372	0.75347900390625
5453.5153612312	0.7537841796875
5454.51536122867	0.75408935546875
5455.51536122615	0.75439453125
5456.51536122362	0.75469970703125
5457.5153612211	0.75469970703125
5458.51536121857	0.7550048828125
5459.51536121605	0.75531005859375
5460.51536121352	0.755615234375
5461.515361211	0.75592041015625
5462.51536120847	0.7562255859375
5463.51536120595	0.75653076171875
5464.51536120342	0.7568359375
5465.5153612009	0.75714111328125
5466.51536119838	0.7574462890625
5467.51536119585	0.75775146484375
5468.51536119333	0.758056640625
5469.5153611908	0.75836181640625
5470.51536118828	0.7586669921875
5471.51536118575	0.75897216796875
5472.51536118323	0.75927734375
5473.5153611807	0.75927734375
5474.51536117818	0.75958251953125
5475.51536117565	0.7598876953125
5476.51536117313	0.76019287109375
5477.5153611706	0.760498046875
5478.51536116808	0.76080322265625
5479.51536116555	0.7611083984375
5480.51536116303	0.76141357421875
5481.5153611605	0.76141357421875
5482.51536115798	0.76171875
5483.51536115545	0.76202392578125
5484.51536115293	0.7623291015625
5485.5153611504	0.76263427734375
5486.51536114788	0.762939453125
5487.51536114536	0.76324462890625
5488.51536114283	0.7635498046875
5489.51536114031	0.7635498046875
5490.51536113778	0.76385498046875
5491.51536113526	0.76416015625
5492.51536113273	0.76446533203125
5493.51536113021	0.7647705078125
5494.51536112768	0.7647705078125
5495.51536112516	0.76507568359375
5496.51536112263	0.765380859375
5497.51536112011	0.76568603515625
5498.51536111758	0.7659912109375
5499.51536111506	0.76629638671875
5500.51536111253	0.76629638671875
5501.51536111001	0.7666015625
5502.51536110748	0.76690673828125
5503.51536110496	0.7672119140625
5504.51536110243	0.7672119140625
5505.51536109991	0.76751708984375
5506.51536109738	0.767822265625
5507.51536109486	0.76812744140625
5508.51536109234	0.7684326171875
5509.51536108981	0.7684326171875
5510.51536108729	0.76873779296875
5511.51536108476	0.76904296875
5512.51536108224	0.76904296875
5513.51536107971	0.76934814453125
5514.51536107719	0.7696533203125
5515.51536107466	0.76995849609375
5516.51536107214	0.76995849609375
5517.51536106961	0.770263671875
5518.51536106709	0.77056884765625
5519.51536106456	0.7708740234375
5520.51536106204	0.7708740234375
5521.51536105951	0.77117919921875
5522.51536105699	0.771484375
5523.51536105446	0.771484375
5524.51536105194	0.77178955078125
5525.51536104941	0.7720947265625
5526.51536104689	0.77239990234375
5527.51536104436	0.77239990234375
5528.51536104184	0.772705078125
5529.51536103932	0.77301025390625
5530.51536103679	0.77301025390625
5531.51536103427	0.7733154296875
5532.51536103174	0.77362060546875
5533.51536102922	0.77362060546875
5534.51536102669	0.77392578125
5535.51536102417	0.77423095703125
5536.51536102164	0.77423095703125
5537.51536101912	0.7745361328125
5538.51536101659	0.77484130859375
5539.51536101407	0.77484130859375
5540.51536101154	0.775146484375
5541.51536100902	0.77545166015625
5542.51536100649	0.77545166015625
5543.51536100397	0.7757568359375
5544.51536100144	0.7757568359375
5545.51536099892	0.77606201171875
5546.51536099639	0.7763671875
5547.51536099387	0.7763671875
5548.51536099135	0.77667236328125
5549.51536098882	0.7769775390625
5550.5153609863	0.7769775390625
5551.51536098377	0.77728271484375
5552.51536098125	0.77728271484375
5553.51536097872	0.777587890625
5554.5153609762	0.77789306640625
5555.51536097367	0.77789306640625
5556.51536097115	0.7781982421875
5557.51536096862	0.77850341796875
5558.5153609661	0.77850341796875
5559.51536096357	0.77880859375
5560.51536096105	0.77880859375
5561.51536095852	0.77911376953125
5562.515360956	0.77911376953125
5563.51536095347	0.7794189453125
5564.51536095095	0.77972412109375
5565.51536094842	0.77972412109375
5566.5153609459	0.780029296875
5567.51536094337	0.780029296875
5568.51536094085	0.78033447265625
5569.51536093833	0.7806396484375
5570.5153609358	0.7806396484375
5571.51536093328	0.78094482421875
5572.51536093075	0.78094482421875
5573.51536092823	0.78125
5574.5153609257	0.78125
5575.51536092318	0.78125
5576.51536092065	0.78155517578125
5577.51536091813	0.78155517578125
5578.5153609156	0.78155517578125
5579.51536091308	0.7818603515625
5580.51536091055	0.7818603515625
5581.51536090803	0.78216552734375
5582.5153609055	0.78216552734375
5583.51536090298	0.782470703125
5584.51536090045	0.782470703125
5585.51536089793	0.78277587890625
5586.5153608954	0.7830810546875
5587.51536089288	0.7830810546875
5588.51536089035	0.78338623046875
5589.51536088783	0.78338623046875
5590.51536088531	0.78369140625
5591.51536088278	0.78369140625
5592.51536088026	0.78399658203125
5593.51536087773	0.78399658203125
5594.51536087521	0.7843017578125
5595.51536087268	0.7843017578125
5596.51536087016	0.78460693359375
5597.51536086763	0.78460693359375
5598.51536086511	0.784912109375
5599.51536086258	0.784912109375
5600.51536086006	0.78521728515625
5601.51536085753	0.78521728515625
5602.51536085501	0.7855224609375
5603.51536085248	0.7855224609375
5604.51536084996	0.7855224609375
5605.51536084743	0.78582763671875
5606.51536084491	0.78582763671875
5607.51536084238	0.7861328125
5608.51536083986	0.7861328125
5609.51536083733	0.78643798828125
5610.51536083481	0.78643798828125
5611.51536083229	0.7867431640625
5612.51536082976	0.7867431640625
5613.51536082724	0.7867431640625
5614.51536082471	0.78704833984375
5615.51536082219	0.78704833984375
5616.51536081966	0.787353515625
5617.51536081714	0.787353515625
5618.51536081461	0.78765869140625
5619.51536081209	0.78765869140625
5620.51536080956	0.7879638671875
5621.51536080704	0.7879638671875
5622.51536080451	0.7879638671875
5623.51536080199	0.78826904296875
5624.51536079946	0.78826904296875
5625.51536079694	0.78857421875
5626.51536079441	0.78857421875
5627.51536079189	0.78887939453125
5628.51536078936	0.78887939453125
5629.51536078684	0.78887939453125
5630.51536078431	0.7891845703125
5631.51536078179	0.7891845703125
5632.51536077927	0.78948974609375
5633.51536077674	0.78948974609375
5634.51536077422	0.789794921875
5635.51536077169	0.789794921875
5636.51536076917	0.789794921875
5637.51536076664	0.79010009765625
5638.51536076412	0.79010009765625
5639.51536076159	0.7904052734375
5640.51536075907	0.7904052734375
5641.51536075654	0.79071044921875
5642.51536075402	0.79071044921875
5643.51536075149	0.79071044921875
5644.51536074897	0.791015625
5645.51536074644	0.791015625
5646.51536074392	0.79132080078125
5647.51536074139	0.79132080078125
5648.51536073887	0.79132080078125
5649.51536073634	0.7916259765625
5650.51536073382	0.7916259765625
5651.5153607313	0.7916259765625
5652.51536072877	0.79193115234375
5653.51536072625	0.79193115234375
5654.51536072372	0.792236328125
5655.5153607212	0.792236328125
5656.51536071867	0.792236328125
5657.51536071615	0.79254150390625
5658.51536071362	0.79254150390625
5659.5153607111	0.7928466796875
5660.51536070857	0.7928466796875
5661.51536070605	0.7928466796875
5662.51536070352	0.79315185546875
5663.515360701	0.79315185546875
5664.51536069847	0.79315185546875
5665.51536069595	0.79345703125
5666.51536069342	0.79345703125
5667.5153606909	0.79345703125
5668.51536068837	0.79376220703125
5669.51536068585	0.79376220703125
5670.51536068332	0.7940673828125
5671.5153606808	0.7940673828125
5672.51536067828	0.7940673828125
5673.51536067575	0.79437255859375
5674.51536067323	0.79437255859375
5675.5153606707	0.79437255859375
5676.51536066818	0.794677734375
5677.51536066565	0.794677734375
5678.51536066313	0.794677734375
5679.5153606606	0.79498291015625
5680.51536065808	0.79498291015625
5681.51536065555	0.7952880859375
5682.51536065303	0.7952880859375
5683.5153606505	0.7952880859375
5684.51536064798	0.7952880859375
5685.51536064545	0.79559326171875
5686.51536064293	0.79559326171875
5687.5153606404	0.7958984375
5688.51536063788	0.7958984375
5689.51536063535	0.7958984375
5690.51536063283	0.79620361328125
5691.5153606303	0.79620361328125
5692.51536062778	0.79620361328125
5693.51536062526	0.79620361328125
5694.51536062273	0.7965087890625
5695.51536062021	0.7965087890625
5696.51536061768	0.7965087890625
5697.51536061516	0.79681396484375
5698.51536061263	0.79681396484375
5699.51536061011	0.79681396484375
5700.51536060758	0.797119140625
5701.51536060506	0.797119140625
5702.51536060253	0.797119140625
5703.51536060001	0.79742431640625
5704.51536059748	0.79742431640625
5705.51536059496	0.79742431640625
5706.51536059243	0.7977294921875
5707.51536058991	0.7977294921875
5708.51536058738	0.7977294921875
5709.51536058486	0.7977294921875
5710.51536058233	0.79803466796875
5711.51536057981	0.79803466796875
5712.51536057728	0.79803466796875
5713.51536057476	0.79833984375
5714.51536057224	0.79833984375
5715.51536056971	0.79833984375
5716.51536056719	0.79833984375
5717.51536056466	0.79864501953125
5718.51536056214	0.79864501953125
5719.51536055961	0.79864501953125
5720.51536055709	0.7989501953125
5721.51536055456	0.7989501953125
5722.51536055204	0.7989501953125
5723.51536054951	0.7989501953125
5724.51536054699	0.79925537109375
5725.51536054446	0.79925537109375
5726.51536054194	0.79925537109375
5727.51536053941	0.799560546875
5728.51536053689	0.799560546875
5729.51536053436	0.799560546875
5730.51536053184	0.79986572265625
5731.51536052931	0.79986572265625
5732.51536052679	0.79986572265625
5733.51536052426	0.79986572265625
5734.51536052174	0.8001708984375
5735.51536051922	0.8001708984375
5736.51536051669	0.8001708984375
5737.51536051417	0.80047607421875
