Time (s)	WE(1).Potential (V)
3185.62512795707	0.79620361328125
3186.62512795454	0.79437255859375
3187.62512795202	0.7928466796875
3188.6251279495	0.79132080078125
3189.62512794697	0.79010009765625
3190.62512794445	0.78857421875
3191.62512794192	0.787353515625
3192.6251279394	0.7861328125
3193.62512793687	0.784912109375
3194.62512793435	0.78369140625
3195.62512793182	0.782470703125
3196.6251279293	0.78155517578125
3197.62512792677	0.7806396484375
3198.62512792425	0.7794189453125
3199.62512792172	0.7781982421875
3200.6251279192	0.77728271484375
3201.62512791667	0.77606201171875
3202.62512791415	0.77484130859375
3203.62512791162	0.77392578125
3204.6251279091	0.77301025390625
3205.62512790657	0.77178955078125
3206.62512790405	0.7708740234375
3207.62512790153	0.7696533203125
3208.625127899	0.76873779296875
3209.62512789648	0.767822265625
3210.62512789395	0.7666015625
3211.62512789143	0.76568603515625
3212.6251278889	0.7647705078125
3213.62512788638	0.76385498046875
3214.62512788385	0.76263427734375
3215.62512788133	0.76171875
3216.6251278788	0.76080322265625
3217.62512787628	0.7598876953125
3218.62512787375	0.75897216796875
3219.62512787123	0.758056640625
3220.6251278687	0.75714111328125
3221.62512786618	0.7562255859375
3222.62512786365	0.75531005859375
3223.62512786113	0.75408935546875
3224.6251278586	0.75347900390625
3225.62512785608	0.7525634765625
3226.62512785355	0.7513427734375
3227.62512785103	0.750732421875
3228.62512784851	0.74981689453125
3229.62512784598	0.7489013671875
3230.62512784346	0.74798583984375
3231.62512784093	0.7470703125
3232.62512783841	0.74615478515625
3233.62512783588	0.7452392578125
3234.62512783336	0.74432373046875
3235.62512783083	0.743408203125
3236.62512782831	0.74249267578125
3237.62512782578	0.7415771484375
3238.62512782326	0.74066162109375
3239.62512782073	0.73974609375
3240.62512781821	0.73883056640625
3241.62512781568	0.73822021484375
3242.62512781316	0.7373046875
3243.62512781063	0.73638916015625
3244.62512780811	0.7354736328125
3245.62512780558	0.73455810546875
3246.62512780306	0.733642578125
3247.62512780053	0.73272705078125
3248.62512779801	0.73211669921875
3249.62512779549	0.731201171875
3250.62512779296	0.73028564453125
3251.62512779044	0.7293701171875
3252.62512778791	0.72845458984375
3253.62512778539	0.7275390625
3254.62512778286	0.7269287109375
3255.62512778034	0.72601318359375
3256.62512777781	0.72509765625
3257.62512777529	0.72418212890625
3258.62512777276	0.7232666015625
3259.62512777024	0.72265625
3260.62512776771	0.72174072265625
3261.62512776519	0.7208251953125
3262.62512776266	0.71990966796875
3263.62512776014	0.718994140625
3264.62512775761	0.7183837890625
3265.62512775509	0.71746826171875
3266.62512775256	0.716552734375
3267.62512775004	0.71563720703125
3268.62512774751	0.71502685546875
3269.62512774499	0.714111328125
3270.62512774247	0.71319580078125
3271.62512773994	0.7122802734375
3272.62512773742	0.711669921875
3273.62512773489	0.71075439453125
3274.62512773237	0.7098388671875
3275.62512772984	0.70892333984375
3276.62512772732	0.70831298828125
3277.62512772479	0.7073974609375
3278.62512772227	0.70648193359375
3279.62512771974	0.70556640625
3280.62512771722	0.7049560546875
3281.62512771469	0.70404052734375
3282.62512771217	0.703125
3283.62512770964	0.7025146484375
3284.62512770712	0.70159912109375
3285.62512770459	0.70068359375
3286.62512770207	0.7000732421875
3287.62512769954	0.69915771484375
3288.62512769702	0.6982421875
3289.62512769449	0.69732666015625
3290.62512769197	0.6964111328125
3291.62512768945	0.69580078125
3292.62512768692	0.69488525390625
3293.6251276844	0.6939697265625
3294.62512768187	0.69305419921875
3295.62512767935	0.69244384765625
3296.62512767682	0.6915283203125
3297.6251276743	0.69061279296875
3298.62512767177	0.689697265625
3299.62512766925	0.6890869140625
3300.62512766672	0.68817138671875
3301.6251276642	0.687255859375
3302.62512766167	0.68634033203125
3303.62512765915	0.6854248046875
3304.62512765662	0.684814453125
3305.6251276541	0.68389892578125
3306.62512765157	0.6829833984375
3307.62512764905	0.68206787109375
3308.62512764652	0.68145751953125
3309.625127644	0.6805419921875
3310.62512764148	0.67962646484375
3311.62512763895	0.6787109375
3312.62512763643	0.67779541015625
3313.6251276339	0.67718505859375
3314.62512763138	0.67626953125
3315.62512762885	0.67535400390625
3316.62512762633	0.6744384765625
3317.6251276238	0.673828125
3318.62512762128	0.67291259765625
3319.62512761875	0.6719970703125
3320.62512761623	0.67108154296875
3321.6251276137	0.670166015625
3322.62512761118	0.6695556640625
3323.62512760865	0.66864013671875
3324.62512760613	0.667724609375
3325.6251276036	0.66680908203125
3326.62512760108	0.6658935546875
3327.62512759855	0.665283203125
3328.62512759603	0.66436767578125
3329.6251275935	0.6634521484375
3330.62512759098	0.66253662109375
3331.62512758846	0.66162109375
3332.62512758593	0.6610107421875
3333.62512758341	0.66009521484375
3334.62512758088	0.6591796875
3335.62512757836	0.65826416015625
3336.62512757583	0.6573486328125
3337.62512757331	0.65643310546875
3338.62512757078	0.65582275390625
3339.62512756826	0.6549072265625
3340.62512756573	0.65399169921875
3341.62512756321	0.653076171875
3342.62512756068	0.65216064453125
3343.62512755816	0.65155029296875
3344.62512755563	0.650634765625
3345.62512755311	0.64971923828125
3346.62512755058	0.6488037109375
3347.62512754806	0.64788818359375
3348.62512754553	0.64697265625
3349.62512754301	0.6463623046875
3350.62512754048	0.64544677734375
3351.62512753796	0.64453125
3352.62512753544	0.64361572265625
3353.62512753291	0.6427001953125
3354.62512753039	0.64208984375
3355.62512752786	0.64117431640625
3356.62512752534	0.6402587890625
3357.62512752281	0.63934326171875
3358.62512752029	0.638427734375
3359.62512751776	0.63751220703125
3360.62512751524	0.63690185546875
3361.62512751271	0.635986328125
3362.62512751019	0.63507080078125
3363.62512750766	0.6341552734375
3364.62512750514	0.63323974609375
3365.62512750261	0.63262939453125
3366.62512750009	0.6317138671875
3367.62512749756	0.63079833984375
3368.62512749504	0.6298828125
3369.62512749251	0.62896728515625
3370.62512748999	0.6280517578125
3371.62512748746	0.62744140625
3372.62512748494	0.62652587890625
3373.62512748242	0.6256103515625
3374.62512747989	0.625
3375.62512747737	0.62408447265625
3376.62512747484	0.6231689453125
3377.62512747232	0.62225341796875
3378.62512746979	0.621337890625
3379.62512746727	0.62042236328125
3380.62512746474	0.61981201171875
3381.62512746222	0.618896484375
3382.62512745969	0.61798095703125
3383.62512745717	0.6170654296875
3384.62512745464	0.61614990234375
3385.62512745212	0.615234375
3386.62512744959	0.6146240234375
3387.62512744707	0.61370849609375
3388.62512744454	0.61279296875
3389.62512744202	0.61187744140625
3390.62512743949	0.6109619140625
3391.62512743697	0.61004638671875
3392.62512743444	0.60943603515625
3393.62512743192	0.6085205078125
3394.6251274294	0.60760498046875
3395.62512742687	0.606689453125
3396.62512742435	0.60577392578125
3397.62512742182	0.6048583984375
3398.6251274193	0.604248046875
3399.62512741677	0.60333251953125
3400.62512741425	0.6024169921875
3401.62512741172	0.60150146484375
3402.6251274092	0.6005859375
3403.62512740667	0.5999755859375
3404.62512740415	0.59906005859375
3405.62512740162	0.59814453125
3406.6251273991	0.59722900390625
3407.62512739657	0.5963134765625
3408.62512739405	0.59539794921875
3409.62512739152	0.59478759765625
3410.625127389	0.5938720703125
3411.62512738647	0.59295654296875
3412.62512738395	0.592041015625
3413.62512738143	0.59112548828125
3414.6251273789	0.5902099609375
3415.62512737638	0.589599609375
3416.62512737385	0.58868408203125
3417.62512737133	0.5877685546875
3418.6251273688	0.58685302734375
3419.62512736628	0.5859375
3420.62512736375	0.58502197265625
3421.62512736123	0.58441162109375
3422.6251273587	0.58349609375
3423.62512735618	0.58258056640625
3424.62512735365	0.5816650390625
3425.62512735113	0.58074951171875
3426.6251273486	0.58013916015625
3427.62512734608	0.5792236328125
3428.62512734355	0.57830810546875
3429.62512734103	0.577392578125
3430.6251273385	0.57647705078125
3431.62512733598	0.5755615234375
3432.62512733345	0.574951171875
3433.62512733093	0.57403564453125
3434.62512732841	0.5731201171875
3435.62512732588	0.57220458984375
3436.62512732336	0.5712890625
3437.62512732083	0.5706787109375
3438.62512731831	0.56976318359375
3439.62512731578	0.56884765625
3440.62512731326	0.56793212890625
3441.62512731073	0.5670166015625
3442.62512730821	0.56610107421875
3443.62512730568	0.56549072265625
3444.62512730316	0.5645751953125
3445.62512730063	0.56365966796875
3446.62512729811	0.562744140625
3447.62512729558	0.56182861328125
3448.62512729306	0.56121826171875
3449.62512729053	0.560302734375
3450.62512728801	0.55938720703125
3451.62512728548	0.5584716796875
3452.62512728296	0.557861328125
3453.62512728043	0.55694580078125
3454.62512727791	0.5560302734375
3455.62512727539	0.55511474609375
3456.62512727286	0.55419921875
3457.62512727034	0.5535888671875
3458.62512726781	0.55267333984375
3459.62512726529	0.5517578125
3460.62512726276	0.55084228515625
3461.62512726024	0.5499267578125
3462.62512725771	0.54931640625
3463.62512725519	0.54840087890625
3464.62512725266	0.5474853515625
3465.62512725014	0.546875
3466.62512724761	0.54595947265625
3467.62512724509	0.5450439453125
3468.62512724256	0.54412841796875
3469.62512724004	0.54351806640625
3470.62512723751	0.5426025390625
3471.62512723499	0.54168701171875
3472.62512723246	0.540771484375
3473.62512722994	0.53985595703125
3474.62512722741	0.53924560546875
3475.62512722489	0.538330078125
3476.62512722237	0.53741455078125
3477.62512721984	0.5364990234375
3478.62512721732	0.535888671875
3479.62512721479	0.53497314453125
3480.62512721227	0.5340576171875
3481.62512720974	0.53314208984375
3482.62512720722	0.5322265625
3483.62512720469	0.5316162109375
3484.62512720217	0.53070068359375
3485.62512719964	0.52978515625
3486.62512719712	0.52886962890625
3487.62512719459	0.52825927734375
3488.62512719207	0.52734375
3489.62512718954	0.52642822265625
3490.62512718702	0.5255126953125
3491.62512718449	0.52490234375
3492.62512718197	0.52398681640625
3493.62512717944	0.5230712890625
3494.62512717692	0.52215576171875
3495.62512717439	0.52154541015625
3496.62512717187	0.5206298828125
3497.62512716935	0.51971435546875
3498.62512716682	0.518798828125
3499.6251271643	0.5181884765625
3500.62512716177	0.51727294921875
3501.62512715925	0.516357421875
3502.62512715672	0.51544189453125
3503.6251271542	0.51483154296875
3504.62512715167	0.513916015625
3505.62512714915	0.51300048828125
3506.62512714662	0.51239013671875
3507.6251271441	0.511474609375
3508.62512714157	0.51055908203125
3509.62512713905	0.5096435546875
3510.62512713652	0.509033203125
3511.625127134	0.50811767578125
3512.62512713147	0.5072021484375
3513.62512712895	0.50628662109375
3514.62512712642	0.50567626953125
3515.6251271239	0.5047607421875
3516.62512712138	0.50384521484375
3517.62512711885	0.50323486328125
3518.62512711633	0.5023193359375
3519.6251271138	0.50140380859375
3520.62512711128	0.50048828125
3521.62512710875	0.499847412109375
3522.62512710623	0.4990234375
3523.6251271037	0.498199462890625
3524.62512710118	0.49737548828125
3525.62512709865	0.496551513671875
3526.62512709613	0.4957275390625
3527.6251270936	0.494903564453125
3528.62512709108	0.49407958984375
3529.62512708855	0.493255615234375
3530.62512708603	0.492431640625
3531.6251270835	0.491607666015625
3532.62512708098	0.49078369140625
3533.62512707845	0.489990234375
3534.62512707593	0.489166259765625
3535.6251270734	0.48834228515625
3536.62512707088	0.487518310546875
3537.62512706836	0.4866943359375
3538.62512706583	0.485870361328125
3539.62512706331	0.485076904296875
3540.62512706078	0.484283447265625
3541.62512705826	0.483489990234375
3542.62512705573	0.482666015625
3543.62512705321	0.481842041015625
3544.62512705068	0.481048583984375
3545.62512704816	0.480224609375
3546.62512704563	0.479400634765625
3547.62512704311	0.47857666015625
3548.62512704058	0.477783203125
3549.62512703806	0.476959228515625
3550.62512703553	0.476165771484375
3551.62512703301	0.475372314453125
3552.62512703048	0.47454833984375
3553.62512702796	0.4737548828125
3554.62512702543	0.472930908203125
3555.62512702291	0.472137451171875
3556.62512702038	0.4713134765625
3557.62512701786	0.47052001953125
3558.62512701534	0.469696044921875
3559.62512701281	0.468902587890625
3560.62512701029	0.468109130859375
3561.62512700776	0.467315673828125
3562.62512700524	0.466522216796875
3563.62512700271	0.4656982421875
3564.62512700019	0.46490478515625
3565.62512699766	0.464111328125
3566.62512699514	0.463287353515625
3567.62512699261	0.462493896484375
3568.62512699009	0.461700439453125
3569.62512698756	0.460906982421875
3570.62512698504	0.460113525390625
3571.62512698251	0.459320068359375
3572.62512697999	0.45849609375
3573.62512697746	0.45770263671875
3574.62512697494	0.4569091796875
3575.62512697241	0.45611572265625
3576.62512696989	0.455322265625
3577.62512696736	0.45452880859375
3578.62512696484	0.4537353515625
3579.62512696232	0.452972412109375
3580.62512695979	0.452178955078125
3581.62512695727	0.451385498046875
3582.62512695474	0.450592041015625
3583.62512695222	0.449798583984375
3584.62512694969	0.449005126953125
3585.62512694717	0.448211669921875
3586.62512694464	0.447418212890625
3587.62512694212	0.446624755859375
3588.62512693959	0.445831298828125
3589.62512693707	0.445068359375
3590.62512693454	0.44427490234375
3591.62512693202	0.4434814453125
3592.62512692949	0.44268798828125
3593.62512692697	0.441925048828125
3594.62512692444	0.441131591796875
3595.62512692192	0.440338134765625
3596.62512691939	0.439544677734375
3597.62512691687	0.43878173828125
3598.62512691434	0.43798828125
3599.62512691182	0.437225341796875
3600.6251269093	0.436431884765625
3601.62512690677	0.4356689453125
3602.62512690425	0.43487548828125
3603.62512690172	0.43408203125
3604.6251268992	0.433319091796875
3605.62512689667	0.432525634765625
3606.62512689415	0.4317626953125
3607.62512689162	0.43096923828125
3608.6251268891	0.430206298828125
3609.62512688657	0.429443359375
3610.62512688405	0.428680419921875
3611.62512688152	0.427886962890625
3612.625126879	0.4271240234375
3613.62512687647	0.42633056640625
3614.62512687395	0.425567626953125
3615.62512687142	0.4248046875
3616.6251268689	0.42401123046875
3617.62512686637	0.423248291015625
3618.62512686385	0.4224853515625
3619.62512686133	0.4217529296875
3620.6251268588	0.420989990234375
3621.62512685628	0.42022705078125
3622.62512685375	0.41943359375
3623.62512685123	0.418670654296875
3624.6251268487	0.41790771484375
3625.62512684618	0.417144775390625
3626.62512684365	0.4163818359375
3627.62512684113	0.415618896484375
3628.6251268386	0.41485595703125
3629.62512683608	0.414093017578125
3630.62512683355	0.413330078125
3631.62512683103	0.412567138671875
3632.6251268285	0.41180419921875
3633.62512682598	0.411041259765625
3634.62512682345	0.410308837890625
3635.62512682093	0.4095458984375
3636.6251268184	0.408782958984375
3637.62512681588	0.40802001953125
3638.62512681335	0.407257080078125
3639.62512681083	0.406494140625
3640.62512680831	0.405792236328125
3641.62512680578	0.405029296875
3642.62512680326	0.404266357421875
3643.62512680073	0.40350341796875
3644.62512679821	0.40277099609375
3645.62512679568	0.402008056640625
3646.62512679316	0.4012451171875
3647.62512679063	0.4005126953125
3648.62512678811	0.399749755859375
3649.62512678558	0.399017333984375
3650.62512678306	0.398284912109375
3651.62512678053	0.39752197265625
3652.62512677801	0.39678955078125
3653.62512677548	0.396026611328125
3654.62512677296	0.395294189453125
3655.62512677043	0.39453125
3656.62512676791	0.393798828125
3657.62512676538	0.393035888671875
3658.62512676286	0.392303466796875
3659.62512676033	0.391571044921875
3660.62512675781	0.390838623046875
3661.62512675529	0.39013671875
3662.62512675276	0.389373779296875
3663.62512675024	0.388641357421875
3664.62512674771	0.387908935546875
3665.62512674519	0.387176513671875
3666.62512674266	0.38641357421875
3667.62512674014	0.38568115234375
3668.62512673761	0.38494873046875
3669.62512673509	0.38421630859375
3670.62512673256	0.38348388671875
3671.62512673004	0.38275146484375
3672.62512672751	0.38201904296875
3673.62512672499	0.38128662109375
3674.62512672246	0.38055419921875
3675.62512671994	0.37982177734375
3676.62512671741	0.37908935546875
3677.62512671489	0.37835693359375
3678.62512671236	0.37762451171875
3679.62512670984	0.37689208984375
3680.62512670731	0.376190185546875
3681.62512670479	0.375457763671875
3682.62512670227	0.374755859375
3683.62512669974	0.3740234375
3684.62512669722	0.373291015625
3685.62512669469	0.372589111328125
3686.62512669217	0.371856689453125
3687.62512668964	0.371124267578125
3688.62512668712	0.370391845703125
3689.62512668459	0.36968994140625
3690.62512668207	0.36895751953125
3691.62512667954	0.36822509765625
3692.62512667702	0.367523193359375
3693.62512667449	0.3668212890625
3694.62512667197	0.3660888671875
3695.62512666944	0.365386962890625
3696.62512666692	0.364654541015625
3697.62512666439	0.36395263671875
3698.62512666187	0.36322021484375
3699.62512665934	0.362518310546875
3700.62512665682	0.361785888671875
3701.62512665429	0.361083984375
3702.62512665177	0.360382080078125
3703.62512664925	0.359649658203125
3704.62512664672	0.358978271484375
3705.6251266442	0.3582763671875
3706.62512664167	0.357574462890625
3707.62512663915	0.356842041015625
3708.62512663662	0.35614013671875
3709.6251266341	0.355438232421875
3710.62512663157	0.354736328125
3711.62512662905	0.35400390625
3712.62512662652	0.353302001953125
3713.625126624	0.35260009765625
3714.62512662147	0.351898193359375
3715.62512661895	0.3511962890625
3716.62512661642	0.350494384765625
3717.6251266139	0.34979248046875
3718.62512661137	0.349090576171875
3719.62512660885	0.348388671875
3720.62512660632	0.347686767578125
3721.6251266038	0.34698486328125
3722.62512660128	0.346282958984375
3723.62512659875	0.3455810546875
3724.62512659623	0.344879150390625
3725.6251265937	0.344207763671875
3726.62512659118	0.343536376953125
3727.62512658865	0.34283447265625
3728.62512658613	0.342132568359375
3729.6251265836	0.3414306640625
3730.62512658108	0.340728759765625
3731.62512657855	0.340057373046875
3732.62512657603	0.33935546875
3733.6251265735	0.338653564453125
3734.62512657098	0.337982177734375
3735.62512656845	0.3372802734375
3736.62512656593	0.336578369140625
3737.6251265634	0.335906982421875
3738.62512656088	0.335205078125
3739.62512655835	0.33453369140625
3740.62512655583	0.333831787109375
3741.6251265533	0.333160400390625
3742.62512655078	0.33245849609375
3743.62512654826	0.331787109375
3744.62512654573	0.331085205078125
3745.62512654321	0.330413818359375
3746.62512654068	0.3297119140625
3747.62512653816	0.32904052734375
3748.62512653563	0.328338623046875
3749.62512653311	0.327728271484375
3750.62512653058	0.3270263671875
3751.62512652806	0.32635498046875
3752.62512652553	0.325653076171875
3753.62512652301	0.324981689453125
3754.62512652048	0.324310302734375
3755.62512651796	0.323638916015625
3756.62512651543	0.32293701171875
3757.62512651291	0.322265625
3758.62512651038	0.32159423828125
3759.62512650786	0.3209228515625
3760.62512650533	0.32025146484375
3761.62512650281	0.319580078125
3762.62512650028	0.31890869140625
3763.62512649776	0.3182373046875
3764.62512649524	0.317535400390625
3765.62512649271	0.316864013671875
3766.62512649019	0.316192626953125
