Time (s)	WE(1).Potential (V)
10350.0781048686	0.792236328125
10351.078104866	0.78643798828125
10352.0781048635	0.78125
10353.078104861	0.77667236328125
10354.0781048585	0.7720947265625
10355.0781048559	0.76751708984375
10356.0781048534	0.76324462890625
10357.0781048509	0.75897216796875
10358.0781048484	0.75469970703125
10359.0781048458	0.750732421875
10360.0781048433	0.7464599609375
10361.0781048408	0.74249267578125
10362.0781048383	0.73822021484375
10363.0781048357	0.7342529296875
10364.0781048332	0.73028564453125
10365.0781048307	0.726318359375
10366.0781048282	0.72235107421875
10367.0781048256	0.7183837890625
10368.0781048231	0.71441650390625
10369.0781048206	0.71044921875
10370.0781048181	0.70648193359375
10371.0781048155	0.7025146484375
10372.078104813	0.69854736328125
10373.0781048105	0.69488525390625
10374.078104808	0.69091796875
10375.0781048054	0.68695068359375
10376.0781048029	0.6829833984375
10377.0781048004	0.67901611328125
10378.0781047979	0.675048828125
10379.0781047953	0.67108154296875
10380.0781047928	0.6671142578125
10381.0781047903	0.66314697265625
10382.0781047878	0.6591796875
10383.0781047852	0.655517578125
10384.0781047827	0.65155029296875
10385.0781047802	0.6475830078125
10386.0781047777	0.64361572265625
10387.0781047751	0.6396484375
10388.0781047726	0.635986328125
10389.0781047701	0.63201904296875
10390.0781047676	0.6280517578125
10391.078104765	0.6243896484375
10392.0781047625	0.62042236328125
10393.07810476	0.61676025390625
10394.0781047575	0.61279296875
10395.0781047549	0.60882568359375
10396.0781047524	0.60516357421875
10397.0781047499	0.6011962890625
10398.0781047474	0.59722900390625
10399.0781047449	0.59356689453125
10400.0781047423	0.589599609375
10401.0781047398	0.5859375
10402.0781047373	0.58197021484375
10403.0781047348	0.57830810546875
10404.0781047322	0.5743408203125
10405.0781047297	0.5706787109375
10406.0781047272	0.5670166015625
10407.0781047247	0.56304931640625
10408.0781047221	0.55938720703125
10409.0781047196	0.55572509765625
10410.0781047171	0.55206298828125
10411.0781047146	0.54840087890625
10412.078104712	0.54473876953125
10413.0781047095	0.54107666015625
10414.078104707	0.53741455078125
10415.0781047045	0.53375244140625
10416.0781047019	0.53009033203125
10417.0781046994	0.52642822265625
10418.0781046969	0.52276611328125
10419.0781046944	0.51910400390625
10420.0781046918	0.51544189453125
10421.0781046893	0.51177978515625
10422.0781046868	0.50811767578125
10423.0781046843	0.50445556640625
10424.0781046817	0.5010986328125
10425.0781046792	0.49749755859375
10426.0781046767	0.493927001953125
10427.0781046742	0.490386962890625
10428.0781046716	0.486846923828125
10429.0781046691	0.48333740234375
10430.0781046666	0.47979736328125
10431.0781046641	0.476287841796875
10432.0781046615	0.472747802734375
10433.078104659	0.46923828125
10434.0781046565	0.46575927734375
10435.078104654	0.4622802734375
10436.0781046514	0.45880126953125
10437.0781046489	0.455291748046875
10438.0781046464	0.451873779296875
10439.0781046439	0.448394775390625
10440.0781046413	0.4449462890625
10441.0781046388	0.44146728515625
10442.0781046363	0.438018798828125
10443.0781046338	0.434600830078125
10444.0781046312	0.43115234375
10445.0781046287	0.427734375
10446.0781046262	0.42431640625
10447.0781046237	0.420928955078125
10448.0781046211	0.417510986328125
10449.0781046186	0.414093017578125
10450.0781046161	0.41070556640625
10451.0781046136	0.407318115234375
10452.078104611	0.403961181640625
10453.0781046085	0.40057373046875
10454.078104606	0.397216796875
10455.0781046035	0.393829345703125
10456.0781046009	0.390533447265625
10457.0781045984	0.387176513671875
10458.0781045959	0.383819580078125
10459.0781045934	0.3804931640625
10460.0781045908	0.377166748046875
10461.0781045883	0.373870849609375
10462.0781045858	0.37054443359375
10463.0781045833	0.367218017578125
10464.0781045807	0.363922119140625
10465.0781045782	0.360626220703125
10466.0781045757	0.357391357421875
10467.0781045732	0.354095458984375
10468.0781045706	0.350830078125
10469.0781045681	0.347564697265625
10470.0781045656	0.344329833984375
10471.0781045631	0.341094970703125
10472.0781045605	0.337860107421875
10473.078104558	0.334625244140625
10474.0781045555	0.331390380859375
10475.078104553	0.32818603515625
10476.0781045504	0.32501220703125
10477.0781045479	0.321807861328125
10478.0781045454	0.318634033203125
10479.0781045429	0.3154296875
10480.0781045403	0.312286376953125
10481.0781045378	0.309112548828125
10482.0781045353	0.305938720703125
10483.0781045328	0.30279541015625
10484.0781045302	0.299652099609375
10485.0781045277	0.296539306640625
10486.0781045252	0.29339599609375
10487.0781045227	0.290283203125
10488.0781045201	0.28717041015625
10489.0781045176	0.2840576171875
10490.0781045151	0.280975341796875
10491.0781045126	0.277862548828125
10492.07810451	0.2747802734375
10493.0781045075	0.271697998046875
10494.078104505	0.26861572265625
10495.0781045025	0.265594482421875
10496.0781044999	0.26251220703125
10497.0781044974	0.25946044921875
10498.0781044949	0.25640869140625
10499.0781044924	0.253387451171875
10500.0781044899	0.250335693359375
10501.0781044873	0.247344970703125
10502.0781044848	0.244293212890625
10503.0781044823	0.241302490234375
10504.0781044798	0.23828125
10505.0781044772	0.235260009765625
10506.0781044747	0.2322998046875
10507.0781044722	0.229278564453125
10508.0781044697	0.226318359375
10509.0781044671	0.22332763671875
10510.0781044646	0.2203369140625
10511.0781044621	0.217376708984375
10512.0781044596	0.21441650390625
10513.078104457	0.21142578125
10514.0781044545	0.20849609375
10515.078104452	0.20550537109375
10516.0781044495	0.202606201171875
10517.0781044469	0.19964599609375
10518.0781044444	0.19671630859375
10519.0781044419	0.19378662109375
10520.0781044394	0.19085693359375
10521.0781044368	0.187896728515625
10522.0781044343	0.18499755859375
10523.0781044318	0.18206787109375
10524.0781044293	0.179168701171875
10525.0781044267	0.17626953125
10526.0781044242	0.173370361328125
10527.0781044217	0.1705322265625
10528.0781044192	0.167633056640625
10529.0781044166	0.164764404296875
10530.0781044141	0.161895751953125
10531.0781044116	0.159027099609375
10532.0781044091	0.15618896484375
10533.0781044065	0.1533203125
10534.078104404	0.150482177734375
10535.0781044015	0.147674560546875
10536.078104399	0.14483642578125
10537.0781043964	0.141998291015625
10538.0781043939	0.13922119140625
10539.0781043914	0.13641357421875
10540.0781043889	0.13360595703125
10541.0781043863	0.130828857421875
10542.0781043838	0.1280517578125
10543.0781043813	0.125274658203125
10544.0781043788	0.122528076171875
10545.0781043762	0.119781494140625
10546.0781043737	0.117034912109375
10547.0781043712	0.114288330078125
10548.0781043687	0.111541748046875
10549.0781043661	0.108856201171875
10550.0781043636	0.10614013671875
10551.0781043611	0.103424072265625
10552.0781043586	0.1007080078125
10553.078104356	0.0980224609375
10554.0781043535	0.0953369140625
10555.078104351	0.092681884765625
10556.0781043485	0.089996337890625
10557.0781043459	0.08734130859375
10558.0781043434	0.084686279296875
10559.0781043409	0.08203125
10560.0781043384	0.07940673828125
10561.0781043358	0.076812744140625
10562.0781043333	0.074188232421875
10563.0781043308	0.071563720703125
10564.0781043283	0.0689697265625
10565.0781043257	0.066375732421875
10566.0781043232	0.06378173828125
10567.0781043207	0.06121826171875
10568.0781043182	0.05865478515625
10569.0781043156	0.056121826171875
10570.0781043131	0.0535888671875
10571.0781043106	0.051055908203125
10572.0781043081	0.04852294921875
10573.0781043055	0.046026611328125
10574.078104303	0.043536376953125
10575.0781043005	0.0410614013671875
10576.078104298	0.0386016845703125
10577.0781042954	0.0361480712890625
10578.0781042929	0.033709716796875
10579.0781042904	0.03128662109375
10580.0781042879	0.0288818359375
10581.0781042853	0.026483154296875
10582.0781042828	0.0240997314453125
10583.0781042803	0.0217315673828125
10584.0781042778	0.019378662109375
10585.0781042752	0.0170379638671875
10586.0781042727	0.0147125244140625
10587.0781042702	0.01240234375
10588.0781042677	0.010107421875
10589.0781042651	0.0078277587890625
10590.0781042626	0.00556335449218751
10591.0781042601	0.0033111572265625
10592.0781042576	0.0010833740234375
10593.078104255	-0.00113525390624999
10594.0781042525	-0.003338623046875
10595.07810425	-0.0055267333984375
10596.0781042475	-0.00769958496093751
