Potential applied (V)	WE(1).Current (A)	Time (s)
0.004425048828125	-0.00050811767578125	8.70549897802073
0.00885009765625	-0.00018365478515625	9.59050897578629
0.013275146484375	6.7413330078125E-05	10.4755189735519
0.0177001953125	0.000263397216796875	11.3605289713174
0.022125244140625	0.0004163818359375	12.245538969083
0.02655029296875	0.0005364990234375	13.1305489668486
0.030975341796875	0.00063232421875	14.0155589646141
0.035400390625	0.00070831298828125	14.9005689623797
0.039825439453125	0.00076751708984375	15.7855789601452
0.04425048828125	0.00081329345703125	16.6705889579108
0.048675537109375	0.00085205078125	17.5555989556764
0.0531005859375	0.0008819580078125	18.4406089534419
0.057525634765625	0.00090484619140625	19.3256189512075
0.06195068359375	0.0009234619140625	20.2106289489731
0.066375732421875	0.0009375	21.0956389467386
0.07080078125	0.00094818115234375	21.9806489445042
0.075225830078125	0.00095550537109375	22.8656589422698
0.07965087890625	0.0009613037109375	23.7506689400353
0.084075927734375	0.00096466064453125	24.6356789378009
0.0885009765625	0.00096710205078125	25.5206889355665
0.092926025390625	0.0009686279296875	26.405698933332
0.09735107421875	0.00096832275390625	27.2907089310976
0.101776123046875	0.000966796875	28.1757189288631
0.106201171875	0.0009649658203125	29.0607289266287
0.110626220703125	0.00096343994140625	29.9457389243943
0.11505126953125	0.00096038818359375	30.8307489221598
0.119476318359375	0.00095672607421875	31.7157589199254
0.1239013671875	0.000953369140625	32.600768917691
0.128326416015625	0.000948486328125	33.4857789154565
0.13275146484375	0.00094451904296875	34.3707889132221
0.137176513671875	0.0009417724609375	35.2557989109877
0.1416015625	0.0009375	36.1408089087532
0.146026611328125	0.00093353271484375	37.0258189065188
0.15045166015625	0.0009283447265625	37.9108289042844
0.154876708984375	0.00092437744140625	38.7958389020499
0.1593017578125	0.0009185791015625	39.6808488998155
0.163726806640625	0.00091339111328125	40.5658588975811
0.16815185546875	0.0009088134765625	41.4508688953466
0.172576904296875	0.0009033203125	42.3358788931122
0.177001953125	0.00089996337890625	43.2208888908777
0.181427001953125	0.00089508056640625	44.1058988886433
0.18585205078125	0.00089019775390625	44.9909088864089
0.190277099609375	0.00088592529296875	45.8759188841744
0.1947021484375	0.00088043212890625	46.76092888194
0.199127197265625	0.00087677001953125	47.6459388797056
0.20355224609375	0.00087158203125	48.5309488774711
0.207977294921875	0.0008673095703125	49.4159588752367
0.21240234375	0.000863037109375	50.3009688730023
0.216827392578125	0.0008587646484375	51.1859788707678
0.22125244140625	0.00085479736328125	52.0709888685334
0.225677490234375	0.00085052490234375	52.955998866299
0.2301025390625	0.000845947265625	53.8410088640645
0.234527587890625	0.00084259033203125	54.7260188618301
0.23895263671875	0.0008392333984375	55.6110288595956
0.243377685546875	0.00083526611328125	56.4960388573612
0.247802734375	0.000831298828125	57.3810488551268
0.252227783203125	0.0008270263671875	58.2660588528923
0.25665283203125	0.00082366943359375	59.1510688506579
0.261077880859375	0.00082061767578125	60.0360788484235
0.2655029296875	0.0008172607421875	60.921088846189
0.269927978515625	0.000814208984375	61.8060988439546
0.27435302734375	0.000810546875	62.6911088417202
0.278778076171875	0.00080810546875	63.5761188394857
0.283203125	0.00080474853515625	64.4611288372513
0.287628173828125	0.00080291748046875	65.3461388350169
0.29205322265625	0.0008001708984375	66.2311488327824
0.296478271484375	0.00079833984375	67.116158830548
0.3009033203125	0.00079437255859375	68.0011688283136
0.305328369140625	0.000792236328125	68.8861788260791
0.30975341796875	0.00079071044921875	69.7711888238447
0.314178466796875	0.00079010009765625	70.6561988216102
0.318603515625	0.0007879638671875	71.5412088193758
0.323028564453125	0.0007855224609375	72.4262188171414
0.32745361328125	0.00078369140625	73.3112288149069
0.331878662109375	0.00078216552734375	74.1962388126725
0.3363037109375	0.00077972412109375	75.0812488104381
0.340728759765625	0.00077850341796875	75.9662588082036
0.34515380859375	0.0007763671875	76.8512688059692
0.349578857421875	0.00077545166015625	77.7362788037348
0.35400390625	0.00077301025390625	78.6212888015003
0.358428955078125	0.0007720947265625	79.5062987992659
0.36285400390625	0.00077056884765625	80.3913087970315
0.367279052734375	0.000770263671875	81.276318794797
0.3717041015625	0.00076873779296875	82.1613287925626
0.376129150390625	0.0007672119140625	83.0463387903282
0.38055419921875	0.0007666015625	83.9313487880937
0.384979248046875	0.0007647705078125	84.8163587858593
0.389404296875	0.00076324462890625	85.7013687836248
0.393829345703125	0.00076263427734375	86.5863787813904
0.39825439453125	0.0007623291015625	87.471388779156
0.402679443359375	0.00076171875	88.3563987769215
0.4071044921875	0.00076080322265625	89.2414087746871
0.411529541015625	0.00075958251953125	90.1264187724527
0.41595458984375	0.0007586669921875	91.0114287702182
0.420379638671875	0.00075775146484375	91.8964387679838
0.4248046875	0.00075714111328125	92.7814487657494
0.429229736328125	0.0007568359375	93.6664587635149
0.43365478515625	0.0007562255859375	94.5514687612805
0.438079833984375	0.000755615234375	95.4364787590461
0.4425048828125	0.00075531005859375	96.3214887568116
0.446929931640625	0.000755615234375	97.2064987545772
0.45135498046875	0.00075531005859375	98.0915087523427
0.455780029296875	0.00075408935546875	98.9765187501083
0.460205078125	0.00075408935546875	99.8615287478739
0.464630126953125	0.00075469970703125	100.746538745639
0.46905517578125	0.00075347900390625	101.631548743405
0.473480224609375	0.00075347900390625	102.516558741171
0.4779052734375	0.00075347900390625	103.401568738936
0.482330322265625	0.00075347900390625	104.286578736702
0.48675537109375	0.000753173828125	105.171588734467
0.491180419921875	0.000753173828125	106.056598732233
0.49560546875	0.0007537841796875	106.941608729998
0.500030517578125	0.0007537841796875	107.826618727764
0.50445556640625	0.00075408935546875	108.71162872553
0.508880615234375	0.00075408935546875	109.596638723295
0.5133056640625	0.00075439453125	110.481648721061
0.517730712890625	0.00075469970703125	111.366658718826
0.52215576171875	0.00075592041015625	112.251668716592
0.526580810546875	0.0007562255859375	113.136678714357
0.531005859375	0.00075653076171875	114.021688712123
0.535430908203125	0.0007568359375	114.906698709888
0.53985595703125	0.0007574462890625	115.791708707654
0.544281005859375	0.00075836181640625	116.67671870542
0.5487060546875	0.00075897216796875	117.561728703185
0.553131103515625	0.0007598876953125	118.446738700951
0.55755615234375	0.00076171875	119.331748698716
0.561981201171875	0.0007623291015625	120.216758696482
0.56640625	0.0007635498046875	121.101768694247
0.570831298828125	0.00076507568359375	121.986778692013
0.57525634765625	0.0007659912109375	122.871788689779
0.579681396484375	0.0007672119140625	123.756798687544
0.5841064453125	0.00076873779296875	124.64180868531
0.588531494140625	0.00076934814453125	125.526818683075
0.59295654296875	0.00077117919921875	126.411828680841
0.597381591796875	0.00077362060546875	127.296838678606
0.601806640625	0.000775146484375	128.181848676372
0.606231689453125	0.00077728271484375	129.066858674138
0.61065673828125	0.0007794189453125	129.951868671903
0.615081787109375	0.00078155517578125	130.836878669669
0.6195068359375	0.00078338623046875	131.721888667434
0.623931884765625	0.00078582763671875	132.6068986652
0.62835693359375	0.00079010009765625	133.491908662965
0.632781982421875	0.00079193115234375	134.376918660731
0.63720703125	0.0007940673828125	135.261928658496
0.641632080078125	0.0007965087890625	136.146938656262
0.64605712890625	0.00079925537109375	137.031948654028
0.650482177734375	0.00080230712890625	137.916958651793
0.6549072265625	0.00080474853515625	138.801968649559
0.659332275390625	0.00080718994140625	139.686978647324
0.66375732421875	0.0008111572265625	140.57198864509
0.668182373046875	0.00081390380859375	141.456998642855
0.672607421875	0.0008172607421875	142.342008640621
0.677032470703125	0.0008209228515625	143.227018638387
0.68145751953125	0.00082427978515625	144.112028636152
0.685882568359375	0.00082855224609375	144.997038633918
0.6903076171875	0.0008319091796875	145.882048631683
0.694732666015625	0.00083587646484375	146.767058629449
0.69915771484375	0.00083984375	147.652068627214
0.703582763671875	0.00084381103515625	148.53707862498
0.7080078125	0.00084869384765625	149.422088622745
0.712432861328125	0.00085296630859375	150.307098620511
0.71685791015625	0.0008575439453125	151.192108618277
0.721282958984375	0.0008636474609375	152.077118616042
0.7257080078125	0.00086883544921875	152.962128613808
0.730133056640625	0.0008740234375	153.847138611573
0.73455810546875	0.00087921142578125	154.732148609339
0.738983154296875	0.00088531494140625	155.617158607104
0.743408203125	0.00089019775390625	156.50216860487
0.747833251953125	0.000897216796875	157.387178602636
0.75225830078125	0.00090362548828125	158.272188600401
0.756683349609375	0.000909423828125	159.157198598167
0.7611083984375	0.00091705322265625	160.042208595932
0.765533447265625	0.00092498779296875	160.927218593698
0.76995849609375	0.0009326171875	161.812228591463
0.774383544921875	0.00094024658203125	162.697238589229
0.77880859375	0.000948486328125	163.582248586995
0.783233642578125	0.00095672607421875	164.46725858476
0.78765869140625	0.0009661865234375	165.352268582526
0.792083740234375	0.00097564697265625	166.237278580291
0.7965087890625	0.00098602294921875	167.122288578057
0.800933837890625	0.00099609375	168.007298575822
0.80535888671875	0.00100738525390625	168.892308573588
0.809783935546875	0.00101837158203125	169.777318571353
0.814208984375	0.0010308837890625	170.662328569119
0.818634033203125	0.00104248046875	171.547338566885
0.82305908203125	0.0010565185546875	172.43234856465
0.827484130859375	0.00106903076171875	173.317358562416
0.8319091796875	0.001083984375	174.202368560181
0.836334228515625	0.00109832763671875	175.087378557947
0.84075927734375	0.0011138916015625	175.972388555712
0.845184326171875	0.00113037109375	176.857398553478
0.849609375	0.0011474609375	177.742408551244
0.854034423828125	0.0011639404296875	178.627418549009
0.85845947265625	0.001182861328125	179.512428546775
0.862884521484375	0.001202392578125	180.39743854454
0.8673095703125	0.00122314453125	181.282448542306
0.871734619140625	0.00124298095703125	182.167458540071
0.87615966796875	0.0012652587890625	183.052468537837
0.880584716796875	0.00128814697265625	183.937478535603
0.885009765625	0.00131195068359375	184.822488533368
0.889434814453125	0.00133758544921875	185.707498531134
0.89385986328125	0.00136383056640625	186.592508528899
0.898284912109375	0.00139190673828125	187.477518526665
0.9027099609375	0.0014202880859375	188.36252852443
0.907135009765625	0.00145050048828125	189.247538522196
0.91156005859375	0.00148193359375	190.132548519961
0.915985107421875	0.00151519775390625	191.017558517727
0.92041015625	0.00155120849609375	191.902568515493
0.924835205078125	0.00158843994140625	192.787578513258
0.92926025390625	0.00162811279296875	193.672588511024
0.933685302734375	0.00166900634765625	194.557598508789
0.9381103515625	0.001715087890625	195.442608506555
0.942535400390625	0.00176116943359375	196.32761850432
0.94696044921875	0.001810302734375	197.212628502086
0.951385498046875	0.0018621826171875	198.097638499852
0.955810546875	0.00191925048828125	198.982648497617
0.960235595703125	0.0019793701171875	199.867658495383
0.96466064453125	0.00204132080078125	200.752668493148
0.969085693359375	0.0021087646484375	201.637678490914
0.9735107421875	0.00217987060546875	202.522688488679
0.977935791015625	0.00225341796875	203.407698486445
0.98236083984375	0.00233367919921875	204.29270848421
0.986785888671875	0.00241729736328125	205.177718481976
0.9912109375	0.00250335693359375	206.062728479742
0.995635986328125	0.00259674072265625	206.947738477507
1.00006103515625	0.00269317626953125	207.832748475273
0.995635986328125	0.00226470947265625	208.717758473038
0.9912109375	0.00194091796875	209.602768470804
0.986785888671875	0.0016741943359375	210.487778468569
0.98236083984375	0.0014459228515625	211.372788466335
0.977935791015625	0.00124786376953125	212.257798464101
0.9735107421875	0.0010723876953125	213.142808461866
0.969085693359375	0.0009136962890625	214.027818459632
0.96466064453125	0.00077117919921875	214.912828457397
0.960235595703125	0.00064178466796875	215.797838455163
0.955810546875	0.0005255126953125	216.682848452928
0.951385498046875	0.00042022705078125	217.567858450694
0.94696044921875	0.000324859619140625	218.45286844846
0.942535400390625	0.000238189697265625	219.337878446225
0.9381103515625	0.000159820556640625	220.222888443991
0.933685302734375	8.7432861328125E-05	221.107898441756
0.92926025390625	2.34130859375E-05	221.992908439522
0.924835205078125	-3.42498779296875E-05	222.877918437287
0.92041015625	-8.7005615234375E-05	223.762928435053
0.915985107421875	-0.000134185791015625	224.647938432818
0.91156005859375	-0.0001773681640625	225.532948430584
0.907135009765625	-0.0002161865234375	226.41795842835
0.9027099609375	-0.000252044677734375	227.302968426115
0.898284912109375	-0.000284088134765625	228.187978423881
0.89385986328125	-0.0003134765625	229.072988421646
0.889434814453125	-0.000340728759765625	229.957998419412
0.885009765625	-0.000365234375	230.843008417177
0.880584716796875	-0.00038763427734375	231.728018414943
0.87615966796875	-0.000408416748046875	232.613028412709
0.871734619140625	-0.000427642822265625	233.498038410474
0.8673095703125	-0.00044488525390625	234.38304840824
0.862884521484375	-0.000461669921875	235.268058406005
0.85845947265625	-0.000475250244140625	236.153068403771
0.854034423828125	-0.0004891357421875	237.038078401536
0.849609375	-0.000502471923828125	237.923088399302
0.845184326171875	-0.0005147705078125	238.808098397068
0.84075927734375	-0.000525726318359375	239.693108394833
0.836334228515625	-0.000536224365234375	240.578118392599
0.8319091796875	-0.0005460205078125	241.463128390364
0.827484130859375	-0.000555328369140625	242.34813838813
0.82305908203125	-0.00056402587890625	243.233148385895
0.818634033203125	-0.000571685791015625	244.118158383661
0.814208984375	-0.000578857421875	245.003168381426
0.809783935546875	-0.00058648681640625	245.888178379192
0.80535888671875	-0.00059344482421875	246.773188376958
0.800933837890625	-0.00059967041015625	247.658198374723
0.7965087890625	-0.00060601806640625	248.543208372489
0.792083740234375	-0.00061126708984375	249.428218370254
0.78765869140625	-0.000616455078125	250.31322836802
0.783233642578125	-0.0006219482421875	251.198238365785
0.77880859375	-0.0006268310546875	252.083248363551
0.774383544921875	-0.0006317138671875	252.968258361317
0.76995849609375	-0.00063629150390625	253.853268359082
0.765533447265625	-0.00064056396484375	254.738278356848
0.7611083984375	-0.00064453125	255.623288354613
0.756683349609375	-0.00064910888671875	256.508298352379
0.75225830078125	-0.00065277099609375	257.393308350144
0.747833251953125	-0.00065673828125	258.27831834791
0.743408203125	-0.000660400390625	259.163328345675
0.738983154296875	-0.00066253662109375	260.048338343441
0.73455810546875	-0.00066650390625	260.933348341207
0.730133056640625	-0.000670166015625	261.818358338972
0.7257080078125	-0.0006732177734375	262.703368336738
0.721282958984375	-0.00067657470703125	263.588378334503
0.71685791015625	-0.000679931640625	264.473388332269
0.712432861328125	-0.00068267822265625	265.358398330034
0.7080078125	-0.00068572998046875	266.2434083278
0.703582763671875	-0.00068878173828125	267.128418325566
0.69915771484375	-0.00069122314453125	268.013428323331
0.694732666015625	-0.00069427490234375	268.898438321097
0.6903076171875	-0.000697021484375	269.783448318862
0.685882568359375	-0.00069976806640625	270.668458316628
0.68145751953125	-0.0007025146484375	271.553468314393
0.677032470703125	-0.00070556640625	272.438478312159
0.672607421875	-0.00070831298828125	273.323488309925
0.668182373046875	-0.00071075439453125	274.20849830769
0.66375732421875	-0.0007135009765625	275.093508305456
0.659332275390625	-0.0007159423828125	275.978518303221
0.6549072265625	-0.00071868896484375	276.863528300987
0.650482177734375	-0.00072113037109375	277.748538298752
0.64605712890625	-0.00072418212890625	278.633548296518
0.641632080078125	-0.00072723388671875	279.518558294283
0.63720703125	-0.00072967529296875	280.403568292049
0.632781982421875	-0.000732421875	281.288578289815
0.62835693359375	-0.00073486328125	282.17358828758
0.623931884765625	-0.00073974609375	283.058598285346
0.6195068359375	-0.0007421875	283.943608283111
0.615081787109375	-0.00074371337890625	284.828618280877
0.61065673828125	-0.00074615478515625	285.713628278642
0.606231689453125	-0.00074859619140625	286.598638276408
0.601806640625	-0.00075103759765625	287.483648274174
0.597381591796875	-0.0007537841796875	288.368658271939
0.59295654296875	-0.00075653076171875	289.253668269705
0.588531494140625	-0.0007598876953125	290.13867826747
0.5841064453125	-0.00076141357421875	291.023688265236
0.579681396484375	-0.00076446533203125	291.908698263001
0.57525634765625	-0.00076751708984375	292.793708260767
0.570831298828125	-0.00076995849609375	293.678718258533
0.56640625	-0.000772705078125	294.563728256298
0.561981201171875	-0.000775146484375	295.448738254064
0.55755615234375	-0.00077850341796875	296.333748251829
0.553131103515625	-0.00078125	297.218758249595
0.5487060546875	-0.00078399658203125	298.10376824736
0.544281005859375	-0.0007861328125	298.988778245126
0.53985595703125	-0.00078887939453125	299.873788242891
0.535430908203125	-0.00079132080078125	300.758798240657
0.531005859375	-0.000794677734375	301.643808238423
0.526580810546875	-0.0007977294921875	302.528818236188
0.52215576171875	-0.00080047607421875	303.413828233954
0.517730712890625	-0.00080322265625	304.298838231719
0.5133056640625	-0.0008062744140625	305.183848229485
0.508880615234375	-0.000809326171875	306.06885822725
0.50445556640625	-0.00081207275390625	306.953868225016
0.500030517578125	-0.00081512451171875	307.838878222782
0.49560546875	-0.00081787109375	308.723888220547
0.491180419921875	-0.00082122802734375	309.608898218313
0.48675537109375	-0.0008233642578125	310.493908216078
0.482330322265625	-0.000826416015625	311.378918213844
0.4779052734375	-0.00082855224609375	312.263928211609
0.473480224609375	-0.0008319091796875	313.148938209375
0.46905517578125	-0.00083465576171875	314.03394820714
0.464630126953125	-0.00083740234375	314.918958204906
0.460205078125	-0.00084014892578125	315.803968202672
0.455780029296875	-0.00084259033203125	316.688978200437
0.45135498046875	-0.0008453369140625	317.573988198203
0.446929931640625	-0.0008477783203125	318.458998195968
0.4425048828125	-0.00085052490234375	319.344008193734
0.438079833984375	-0.00085296630859375	320.229018191499
0.43365478515625	-0.00085540771484375	321.114028189265
0.429229736328125	-0.00085784912109375	321.999038187031
0.4248046875	-0.00086029052734375	322.884048184796
0.420379638671875	-0.00086334228515625	323.769058182562
0.41595458984375	-0.00086517333984375	324.654068180327
0.411529541015625	-0.00086761474609375	325.539078178093
0.4071044921875	-0.000870361328125	326.424088175858
0.402679443359375	-0.00087249755859375	327.309098173624
0.39825439453125	-0.00087554931640625	328.19410817139
0.393829345703125	-0.00087799072265625	329.079118169155
0.389404296875	-0.000880126953125	329.964128166921
0.384979248046875	-0.000882568359375	330.849138164686
0.38055419921875	-0.000885009765625	331.734148162452
0.376129150390625	-0.000887451171875	332.619158160217
0.3717041015625	-0.0008905029296875	333.504168157983
0.367279052734375	-0.0008929443359375	334.389178155748
0.36285400390625	-0.00089599609375	335.274188153514
0.358428955078125	-0.00089874267578125	336.15919815128
0.35400390625	-0.0009014892578125	337.044208149045
0.349578857421875	-0.00090301513671875	337.929218146811
0.34515380859375	-0.00090606689453125	338.814228144576
0.340728759765625	-0.000909423828125	339.699238142342
0.3363037109375	-0.0009124755859375	340.584248140107
0.331878662109375	-0.00091552734375	341.469258137873
0.32745361328125	-0.0009185791015625	342.354268135639
0.323028564453125	-0.0009222412109375	343.239278133404
0.318603515625	-0.00092437744140625	344.12428813117
0.314178466796875	-0.00092803955078125	345.009298128935
0.30975341796875	-0.0009332275390625	345.894308126701
0.305328369140625	-0.000936279296875	346.779318124466
0.3009033203125	-0.00093902587890625	347.664328122232
0.296478271484375	-0.00094207763671875	348.549338119998
0.29205322265625	-0.00094512939453125	349.434348117763
0.287628173828125	-0.0009490966796875	350.319358115529
0.283203125	-0.00095306396484375	351.204368113294
0.278778076171875	-0.00095672607421875	352.08937811106
0.27435302734375	-0.00096099853515625	352.974388108825
0.269927978515625	-0.0009637451171875	353.859398106591
0.2655029296875	-0.000968017578125	354.744408104356
0.261077880859375	-0.0009716796875	355.629418102122
0.25665283203125	-0.00097564697265625	356.514428099888
0.252227783203125	-0.0009808349609375	357.399438097653
0.247802734375	-0.000985107421875	358.284448095419
0.243377685546875	-0.00098876953125	359.169458093184
0.23895263671875	-0.00099365234375	360.05446809095
0.234527587890625	-0.0009991455078125	360.939478088715
0.2301025390625	-0.00100311279296875	361.824488086481
0.225677490234375	-0.00100830078125	362.709498084247
0.22125244140625	-0.00101318359375	363.594508082012
0.216827392578125	-0.00101806640625	364.479518079778
0.21240234375	-0.00102386474609375	365.364528077543
0.207977294921875	-0.0010296630859375	366.249538075309
0.20355224609375	-0.00103515625	367.134548073074
0.199127197265625	-0.00104095458984375	368.01955807084
0.1947021484375	-0.00104644775390625	368.904568068605
0.190277099609375	-0.00105255126953125	369.789578066371
0.18585205078125	-0.001058349609375	370.674588064137
0.181427001953125	-0.0010638427734375	371.559598061902
0.177001953125	-0.001070556640625	372.444608059668
0.172576904296875	-0.00107696533203125	373.329618057433
0.16815185546875	-0.0010833740234375	374.214628055199
0.163726806640625	-0.00109039306640625	375.099638052964
0.1593017578125	-0.00109619140625	375.98464805073
0.154876708984375	-0.0011029052734375	376.869658048496
0.15045166015625	-0.00110992431640625	377.754668046261
0.146026611328125	-0.00111724853515625	378.639678044027
0.1416015625	-0.00112457275390625	379.524688041792
0.137176513671875	-0.00113250732421875	380.409698039558
0.13275146484375	-0.00114013671875	381.294708037323
0.128326416015625	-0.0011474609375	382.179718035089
0.1239013671875	-0.001156005859375	383.064728032855
0.119476318359375	-0.00116424560546875	383.94973803062
0.11505126953125	-0.0011712646484375	384.834748028386
0.110626220703125	-0.00118011474609375	385.719758026151
0.106201171875	-0.00118896484375	386.604768023917
0.101776123046875	-0.0011981201171875	387.489778021682
0.09735107421875	-0.001207275390625	388.374788019448
0.092926025390625	-0.0012164306640625	389.259798017213
0.0885009765625	-0.00122528076171875	390.144808014979
0.084075927734375	-0.00123504638671875	391.029818012745
0.07965087890625	-0.00124420166015625	391.91482801051
0.075225830078125	-0.00125335693359375	392.799838008276
0.07080078125	-0.001263427734375	393.684848006041
0.066375732421875	-0.00127349853515625	394.569858003807
0.06195068359375	-0.00128448486328125	395.454868001572
0.057525634765625	-0.00129425048828125	396.339877999338
0.0531005859375	-0.00130615234375	397.224887997104
0.048675537109375	-0.00131683349609375	398.109897994869
0.04425048828125	-0.00132843017578125	398.994907992635
0.039825439453125	-0.00134002685546875	399.8799179904
0.035400390625	-0.0013507080078125	400.764927988166
0.030975341796875	-0.00136322021484375	401.649937985931
0.02655029296875	-0.00137603759765625	402.534947983697
0.022125244140625	-0.0013885498046875	403.419957981463
0.0177001953125	-0.001402587890625	404.304967979228
0.013275146484375	-0.00141571044921875	405.189977976994
0.00885009765625	-0.00142822265625	406.074987974759
0.004425048828125	-0.00144287109375	406.959997972525
0	-0.0014581298828125	407.84500797029
0.004425048828125	-0.0009259033203125	408.730017968056
0.00885009765625	-0.00052398681640625	409.615027965821
0.013275146484375	-0.00021429443359375	410.500037963587
0.0177001953125	2.66815185546875E-05	411.385047961353
0.022125244140625	0.00021673583984375	412.270057959118
0.02655029296875	0.00036773681640625	413.155067956884
0.030975341796875	0.000486785888671875	414.040077954649
0.035400390625	0.00058306884765625	414.925087952415
0.039825439453125	0.000660797119140625	415.81009795018
0.04425048828125	0.00072235107421875	416.695107947946
0.048675537109375	0.00077239990234375	417.580117945712
0.0531005859375	0.00081207275390625	418.465127943477
0.057525634765625	0.0008447265625	419.350137941243
0.06195068359375	0.000870361328125	420.235147939008
0.066375732421875	0.00089080810546875	421.120157936774
0.07080078125	0.000906982421875	422.005167934539
0.075225830078125	0.0009197998046875	422.890177932305
0.07965087890625	0.00092864990234375	423.775187930071
0.084075927734375	0.000936279296875	424.660197927836
0.0885009765625	0.00094146728515625	425.545207925602
0.092926025390625	0.0009454345703125	426.430217923367
0.09735107421875	0.0009478759765625	427.315227921133
0.101776123046875	0.00094879150390625	428.200237918898
0.106201171875	0.00094940185546875	429.085247916664
0.110626220703125	0.0009478759765625	429.970257914429
0.11505126953125	0.000947265625	430.855267912195
0.119476318359375	0.00094329833984375	431.740277909961
0.1239013671875	0.000941162109375	432.625287907726
0.128326416015625	0.000938720703125	433.510297905492
0.13275146484375	0.0009356689453125	434.395307903257
0.137176513671875	0.00093231201171875	435.280317901023
0.1416015625	0.00092864990234375	436.165327898788
0.146026611328125	0.00092437744140625	437.050337896554
0.15045166015625	0.00092041015625	437.93534789432
0.154876708984375	0.00091583251953125	438.820357892085
0.1593017578125	0.00091094970703125	439.705367889851
0.163726806640625	0.0009063720703125	440.590377887616
0.16815185546875	0.0009014892578125	441.475387885382
0.172576904296875	0.00089691162109375	442.360397883147
0.177001953125	0.000892333984375	443.245407880913
0.181427001953125	0.0008880615234375	444.130417878678
0.18585205078125	0.0008831787109375	445.015427876444
0.190277099609375	0.00087890625	445.90043787421
0.1947021484375	0.0008746337890625	446.785447871975
0.199127197265625	0.0008697509765625	447.670457869741
0.20355224609375	0.00086517333984375	448.555467867506
0.207977294921875	0.0008612060546875	449.440477865272
0.21240234375	0.00085662841796875	450.325487863037
0.216827392578125	0.0008526611328125	451.210497860803
0.22125244140625	0.000848388671875	452.095507858569
0.225677490234375	0.00084503173828125	452.980517856334
0.2301025390625	0.00084197998046875	453.8655278541
0.234527587890625	0.00083709716796875	454.750537851865
0.23895263671875	0.00083343505859375	455.635547849631
0.243377685546875	0.000830078125	456.520557847396
0.247802734375	0.0008270263671875	457.405567845162
0.252227783203125	0.00082305908203125	458.290577842928
0.25665283203125	0.000819091796875	459.175587840693
0.261077880859375	0.00081634521484375	460.060597838459
0.2655029296875	0.00081329345703125	460.945607836224
0.269927978515625	0.00081085205078125	461.83061783399
0.27435302734375	0.00080718994140625	462.715627831755
0.278778076171875	0.0008038330078125	463.600637829521
0.283203125	0.00080078125	464.485647827286
0.287628173828125	0.00079864501953125	465.370657825052
0.29205322265625	0.0007958984375	466.255667822818
0.296478271484375	0.00079376220703125	467.140677820583
0.3009033203125	0.0007916259765625	468.025687818349
0.305328369140625	0.00078857421875	468.910697816114
0.30975341796875	0.0007867431640625	469.79570781388
0.314178466796875	0.00078643798828125	470.680717811645
0.318603515625	0.00078399658203125	471.565727809411
0.323028564453125	0.00078125	472.450737807177
0.32745361328125	0.0007794189453125	473.335747804942
0.331878662109375	0.00077728271484375	474.220757802708
0.3363037109375	0.00077545166015625	475.105767800473
0.340728759765625	0.00077423095703125	475.990777798239
0.34515380859375	0.00077239990234375	476.875787796004
0.349578857421875	0.00077117919921875	477.76079779377
0.35400390625	0.000767822265625	478.645807791536
0.358428955078125	0.0007666015625	479.530817789301
0.36285400390625	0.00076629638671875	480.415827787067
0.367279052734375	0.00076507568359375	481.300837784832
0.3717041015625	0.00076446533203125	482.185847782598
0.376129150390625	0.00076324462890625	483.070857780363
0.38055419921875	0.0007623291015625	483.955867778129
0.384979248046875	0.00076080322265625	484.840877775894
0.389404296875	0.00075958251953125	485.72588777366
0.393829345703125	0.000758056640625	486.610897771426
0.39825439453125	0.00075775146484375	487.495907769191
0.402679443359375	0.0007562255859375	488.380917766957
0.4071044921875	0.0007562255859375	489.265927764722
0.411529541015625	0.00075531005859375	490.150937762488
0.41595458984375	0.00075439453125	491.035947760253
0.420379638671875	0.0007537841796875	491.920957758019
0.4248046875	0.000753173828125	492.805967755785
0.429229736328125	0.00075225830078125	493.69097775355
0.43365478515625	0.00075164794921875	494.575987751316
0.438079833984375	0.00075103759765625	495.460997749081
0.4425048828125	0.000750732421875	496.346007746847
0.446929931640625	0.0007501220703125	497.231017744612
0.45135498046875	0.00075042724609375	498.116027742378
0.455780029296875	0.0007501220703125	499.001037740143
0.460205078125	0.00074951171875	499.886047737909
0.464630126953125	0.00074951171875	500.771057735675
0.46905517578125	0.0007489013671875	501.65606773344
0.473480224609375	0.0007489013671875	502.541077731206
0.4779052734375	0.00074859619140625	503.426087728971
0.482330322265625	0.00074920654296875	504.311097726737
0.48675537109375	0.00074951171875	505.196107724502
0.491180419921875	0.00074920654296875	506.081117722268
0.49560546875	0.00074981689453125	506.966127720034
0.500030517578125	0.00074981689453125	507.851137717799
0.50445556640625	0.00075042724609375	508.736147715565
0.508880615234375	0.00074981689453125	509.62115771333
0.5133056640625	0.0007501220703125	510.506167711096
0.517730712890625	0.000750732421875	511.391177708861
0.52215576171875	0.0007513427734375	512.276187706627
0.526580810546875	0.00075225830078125	513.161197704393
0.531005859375	0.000753173828125	514.046207702158
0.535430908203125	0.00075408935546875	514.931217699924
0.53985595703125	0.00075439453125	515.816227697689
0.544281005859375	0.000755615234375	516.701237695455
0.5487060546875	0.00075531005859375	517.58624769322
0.553131103515625	0.00075653076171875	518.471257690986
0.55755615234375	0.00075714111328125	519.356267688751
0.561981201171875	0.00075927734375	520.241277686517
0.56640625	0.00076019287109375	521.126287684283
0.570831298828125	0.00076171875	522.011297682048
0.57525634765625	0.0007635498046875	522.896307679814
0.579681396484375	0.00076507568359375	523.781317677579
0.5841064453125	0.0007666015625	524.666327675345
0.588531494140625	0.0007672119140625	525.55133767311
0.59295654296875	0.00076904296875	526.436347670876
0.597381591796875	0.00077117919921875	527.321357668642
0.601806640625	0.0007733154296875	528.206367666407
0.606231689453125	0.000775146484375	529.091377664173
0.61065673828125	0.000777587890625	529.976387661938
0.615081787109375	0.0007794189453125	530.861397659704
0.6195068359375	0.00078125	531.746407657469
0.623931884765625	0.00078460693359375	532.631417655235
0.62835693359375	0.00078887939453125	533.516427653001
0.632781982421875	0.0007904052734375	534.401437650766
0.63720703125	0.00079254150390625	535.286447648532
0.641632080078125	0.0007952880859375	536.171457646297
0.64605712890625	0.00079833984375	537.056467644063
0.650482177734375	0.00080078125	537.941477641828
0.6549072265625	0.0008038330078125	538.826487639594
0.659332275390625	0.000806884765625	539.711497637359
0.66375732421875	0.00081024169921875	540.596507635125
0.668182373046875	0.0008135986328125	541.481517632891
0.672607421875	0.00081695556640625	542.366527630656
0.677032470703125	0.0008203125	543.251537628422
0.68145751953125	0.00082427978515625	544.136547626187
0.685882568359375	0.00082855224609375	545.021557623953
0.6903076171875	0.00083221435546875	545.906567621718
0.694732666015625	0.000836181640625	546.791577619484
0.69915771484375	0.00084075927734375	547.67658761725
0.703582763671875	0.00084442138671875	548.561597615015
0.7080078125	0.00084930419921875	549.446607612781
0.712432861328125	0.00085418701171875	550.331617610546
0.71685791015625	0.0008587646484375	551.216627608312
0.721282958984375	0.0008642578125	552.101637606077
0.7257080078125	0.0008697509765625	552.986647603843
0.730133056640625	0.0008746337890625	553.871657601608
0.73455810546875	0.0008807373046875	554.756667599374
0.738983154296875	0.0008868408203125	555.64167759714
0.743408203125	0.0008917236328125	556.526687594905
0.747833251953125	0.00089874267578125	557.411697592671
0.75225830078125	0.00090576171875	558.296707590436
0.756683349609375	0.00091339111328125	559.181717588202
0.7611083984375	0.00092010498046875	560.066727585967
0.765533447265625	0.00092742919921875	560.951737583733
0.76995849609375	0.00093505859375	561.836747581499
0.774383544921875	0.000943603515625	562.721757579264
0.77880859375	0.00095245361328125	563.60676757703
0.783233642578125	0.00096038818359375	564.491777574795
0.78765869140625	0.000970458984375	565.376787572561
0.792083740234375	0.000980224609375	566.261797570326
0.7965087890625	0.00099029541015625	567.146807568092
0.800933837890625	0.00100128173828125	568.031817565858
0.80535888671875	0.0010125732421875	568.916827563623
0.809783935546875	0.00102386474609375	569.801837561389
0.814208984375	0.00103607177734375	570.686847559154
0.818634033203125	0.001048583984375	571.57185755692
0.82305908203125	0.00106201171875	572.456867554685
0.827484130859375	0.00107574462890625	573.341877552451
0.8319091796875	0.00108978271484375	574.226887550216
0.836334228515625	0.00110382080078125	575.111897547982
0.84075927734375	0.00111968994140625	575.996907545748
0.845184326171875	0.00113616943359375	576.881917543513
0.849609375	0.00115234375	577.766927541279
0.854034423828125	0.001170654296875	578.651937539044
0.85845947265625	0.00118896484375	579.53694753681
0.862884521484375	0.00120697021484375	580.421957534575
0.8673095703125	0.001226806640625	581.306967532341
0.871734619140625	0.00124786376953125	582.191977530107
0.87615966796875	0.00126922607421875	583.076987527872
0.880584716796875	0.00129119873046875	583.961997525638
0.885009765625	0.00131500244140625	584.847007523403
0.889434814453125	0.00133941650390625	585.732017521169
0.89385986328125	0.00136505126953125	586.617027518934
0.898284912109375	0.0013916015625	587.5020375167
0.9027099609375	0.0014190673828125	588.387047514466
0.907135009765625	0.001448974609375	589.272057512231
0.91156005859375	0.00147857666015625	590.157067509997
0.915985107421875	0.0015106201171875	591.042077507762
0.92041015625	0.00154449462890625	591.927087505528
0.924835205078125	0.00157958984375	592.812097503293
0.92926025390625	0.0016168212890625	593.697107501059
0.933685302734375	0.0016552734375	594.582117498824
0.9381103515625	0.001697998046875	595.46712749659
0.942535400390625	0.00174102783203125	596.352137494356
0.94696044921875	0.0017864990234375	597.237147492121
0.951385498046875	0.00183502197265625	598.122157489887
0.955810546875	0.00188751220703125	599.007167487652
0.960235595703125	0.0019427490234375	599.892177485418
0.96466064453125	0.00200225830078125	600.777187483183
0.969085693359375	0.00206268310546875	601.662197480949
0.9735107421875	0.00212860107421875	602.547207478715
0.977935791015625	0.00219757080078125	603.43221747648
0.98236083984375	0.00227264404296875	604.317227474246
0.986785888671875	0.00235015869140625	605.202237472011
0.9912109375	0.00243316650390625	606.087247469777
0.995635986328125	0.0025213623046875	606.972257467542
1.00006103515625	0.0026116943359375	607.857267465308
0.995635986328125	0.00218597412109375	608.742277463073
0.9912109375	0.0018634033203125	609.627287460839
0.986785888671875	0.00159942626953125	610.512297458605
0.98236083984375	0.00137481689453125	611.39730745637
0.977935791015625	0.00117919921875	612.282317454136
0.9735107421875	0.0010076904296875	613.167327451901
0.969085693359375	0.0008526611328125	614.052337449667
0.96466064453125	0.0007147216796875	614.937347447432
0.960235595703125	0.000589599609375	615.822357445198
0.955810546875	0.000476837158203125	616.707367442964
0.951385498046875	0.00037542724609375	617.592377440729
0.94696044921875	0.00028375244140625	618.477387438495
0.942535400390625	0.00020098876953125	619.36239743626
0.9381103515625	0.000125885009765625	620.247407434026
0.933685302734375	5.6671142578125E-05	621.132417431791
0.92926025390625	-3.9642333984375E-06	622.017427429557
0.924835205078125	-5.8685302734375E-05	622.902437427323
0.92041015625	-0.000108612060546875	623.787447425088
0.915985107421875	-0.000153472900390625	624.672457422854
0.91156005859375	-0.0001944580078125	625.557467420619
0.907135009765625	-0.0002313232421875	626.442477418385
0.9027099609375	-0.00026507568359375	627.32748741615
0.898284912109375	-0.00029559326171875	628.212497413916
0.89385986328125	-0.00032318115234375	629.097507411681
0.889434814453125	-0.00034869384765625	629.982517409447
0.885009765625	-0.00037188720703125	630.867527407213
0.880584716796875	-0.000393341064453125	631.752537404978
0.87615966796875	-0.000412841796875	632.637547402744
0.871734619140625	-0.00043072509765625	633.522557400509
0.8673095703125	-0.00044732666015625	634.407567398275
0.862884521484375	-0.000463134765625	635.29257739604
0.85845947265625	-0.000476287841796875	636.177587393806
0.854034423828125	-0.000489837646484375	637.062597391572
0.849609375	-0.000502410888671875	637.947607389337
0.845184326171875	-0.000513641357421875	638.832617387103
0.84075927734375	-0.0005242919921875	639.717627384868
0.836334228515625	-0.000534576416015625	640.602637382634
0.8319091796875	-0.00054364013671875	641.487647380399
0.827484130859375	-0.000552093505859375	642.372657378165
0.82305908203125	-0.00056048583984375	643.257667375931
0.818634033203125	-0.000568084716796875	644.142677373696
0.814208984375	-0.000575469970703125	645.027687371462
0.809783935546875	-0.00058233642578125	645.912697369227
0.80535888671875	-0.000588958740234375	646.797707366993
0.800933837890625	-0.0005953369140625	647.682717364758
0.7965087890625	-0.00060137939453125	648.567727362524
0.792083740234375	-0.00060638427734375	649.452737360289
0.78765869140625	-0.000611572265625	650.337747358055
0.783233642578125	-0.00061737060546875	651.222757355821
0.77880859375	-0.0006219482421875	652.107767353586
0.774383544921875	-0.00062652587890625	652.992777351352
0.76995849609375	-0.000631103515625	653.877787349117
0.765533447265625	-0.00063507080078125	654.762797346883
0.7611083984375	-0.0006396484375	655.647807344648
0.756683349609375	-0.0006439208984375	656.532817342414
0.75225830078125	-0.000648193359375	657.41782734018
0.747833251953125	-0.00065216064453125	658.302837337945
0.743408203125	-0.00065582275390625	659.187847335711
0.738983154296875	-0.000657958984375	660.072857333476
0.73455810546875	-0.00066162109375	660.957867331242
0.730133056640625	-0.000665283203125	661.842877329007
0.7257080078125	-0.00066925048828125	662.727887326773
0.721282958984375	-0.000672607421875	663.612897324538
0.71685791015625	-0.00067596435546875	664.497907322304
0.712432861328125	-0.0006787109375	665.38291732007
0.7080078125	-0.00068206787109375	666.267927317835
0.703582763671875	-0.000684814453125	667.152937315601
0.69915771484375	-0.00068756103515625	668.037947313366
0.694732666015625	-0.00069122314453125	668.922957311132
0.6903076171875	-0.00069427490234375	669.807967308897
0.685882568359375	-0.00069732666015625	670.692977306663
0.68145751953125	-0.0007000732421875	671.577987304429
0.677032470703125	-0.000703125	672.462997302194
0.672607421875	-0.00070556640625	673.34800729996
0.668182373046875	-0.0007080078125	674.233017297725
0.66375732421875	-0.00071044921875	675.118027295491
0.659332275390625	-0.00071319580078125	676.003037293256
0.6549072265625	-0.0007159423828125	676.888047291022
0.650482177734375	-0.00071868896484375	677.773057288788
0.64605712890625	-0.00072174072265625	678.658067286553
0.641632080078125	-0.0007244873046875	679.543077284319
0.63720703125	-0.0007269287109375	680.428087282084
0.632781982421875	-0.0007293701171875	681.31309727985
0.62835693359375	-0.00073211669921875	682.198107277615
0.623931884765625	-0.00073699951171875	683.083117275381
0.6195068359375	-0.000738525390625	683.968127273146
0.615081787109375	-0.00074066162109375	684.853137270912
0.61065673828125	-0.00074310302734375	685.738147268678
0.606231689453125	-0.00074554443359375	686.623157266443
0.601806640625	-0.00074798583984375	687.508167264209
0.597381591796875	-0.0007501220703125	688.393177261974
0.59295654296875	-0.00075286865234375	689.27818725974
0.588531494140625	-0.00075531005859375	690.163197257505
0.5841064453125	-0.00075714111328125	691.048207255271
0.579681396484375	-0.00076019287109375	691.933217253037
0.57525634765625	-0.000762939453125	692.818227250802
0.570831298828125	-0.00076568603515625	693.703237248568
0.56640625	-0.0007684326171875	694.588247246333
0.561981201171875	-0.0007708740234375	695.473257244099
0.55755615234375	-0.00077362060546875	696.358267241864
0.553131103515625	-0.0007763671875	697.24327723963
0.5487060546875	-0.00077911376953125	698.128287237396
0.544281005859375	-0.00078094482421875	699.013297235161
0.53985595703125	-0.00078369140625	699.898307232927
0.535430908203125	-0.00078643798828125	700.783317230692
0.531005859375	-0.0007891845703125	701.668327228458
0.526580810546875	-0.00079193115234375	702.553337226223
0.52215576171875	-0.000794677734375	703.438347223989
0.517730712890625	-0.00079742431640625	704.323357221754
0.5133056640625	-0.00079986572265625	705.20836721952
0.508880615234375	-0.0008026123046875	706.093377217286
0.50445556640625	-0.0008050537109375	706.978387215051
0.500030517578125	-0.00080780029296875	707.863397212817
0.49560546875	-0.000810546875	708.748407210582
0.491180419921875	-0.00081298828125	709.633417208348
0.48675537109375	-0.0008154296875	710.518427206113
0.482330322265625	-0.00081787109375	711.403437203879
0.4779052734375	-0.00082061767578125	712.288447201645
0.473480224609375	-0.0008233642578125	713.17345719941
0.46905517578125	-0.00082550048828125	714.058467197176
0.464630126953125	-0.00082794189453125	714.943477194941
0.460205078125	-0.0008306884765625	715.828487192707
0.455780029296875	-0.0008331298828125	716.713497190472
0.45135498046875	-0.00083526611328125	717.598507188238
0.446929931640625	-0.00083831787109375	718.483517186003
0.4425048828125	-0.000841064453125	719.368527183769
0.438079833984375	-0.000843505859375	720.253537181535
0.43365478515625	-0.00084564208984375	721.1385471793
0.429229736328125	-0.00084869384765625	722.023557177066
0.4248046875	-0.000850830078125	722.908567174831
0.420379638671875	-0.00085357666015625	723.793577172597
0.41595458984375	-0.000855712890625	724.678587170362
0.411529541015625	-0.00085784912109375	725.563597168128
0.4071044921875	-0.0008599853515625	726.448607165894
0.402679443359375	-0.00086273193359375	727.333617163659
0.39825439453125	-0.00086578369140625	728.218627161425
0.393829345703125	-0.000867919921875	729.10363715919
0.389404296875	-0.00086944580078125	729.988647156956
0.384979248046875	-0.000872802734375	730.873657154721
0.38055419921875	-0.000875244140625	731.758667152487
0.376129150390625	-0.00087738037109375	732.643677150253
0.3717041015625	-0.000880126953125	733.528687148018
0.367279052734375	-0.00088287353515625	734.413697145784
0.36285400390625	-0.0008856201171875	735.298707143549
0.358428955078125	-0.000888671875	736.183717141315
0.35400390625	-0.00089141845703125	737.06872713908
0.349578857421875	-0.0008929443359375	737.953737136846
0.34515380859375	-0.00089599609375	738.838747134611
0.340728759765625	-0.0008984375	739.723757132377
0.3363037109375	-0.000902099609375	740.608767130143
0.331878662109375	-0.0009051513671875	741.493777127908
0.32745361328125	-0.00090850830078125	742.378787125674
0.323028564453125	-0.00091156005859375	743.263797123439
0.318603515625	-0.00091461181640625	744.148807121205
0.314178466796875	-0.00091796875	745.03381711897
0.30975341796875	-0.0009228515625	745.918827116736
0.305328369140625	-0.00092559814453125	746.803837114502
0.3009033203125	-0.00092864990234375	747.688847112267
0.296478271484375	-0.00093170166015625	748.573857110033
0.29205322265625	-0.00093536376953125	749.458867107798
0.287628173828125	-0.00093841552734375	750.343877105564
0.283203125	-0.00094207763671875	751.228887103329
0.278778076171875	-0.000946044921875	752.113897101095
0.27435302734375	-0.00094940185546875	752.998907098861
0.269927978515625	-0.00095306396484375	753.883917096626
0.2655029296875	-0.0009576416015625	754.768927094392
0.261077880859375	-0.0009613037109375	755.653937092157
0.25665283203125	-0.00096466064453125	756.538947089923
0.252227783203125	-0.00096923828125	757.423957087688
0.247802734375	-0.00097320556640625	758.308967085454
0.243377685546875	-0.00097808837890625	759.193977083219
0.23895263671875	-0.0009820556640625	760.078987080985
0.234527587890625	-0.0009869384765625	760.963997078751
0.2301025390625	-0.00099151611328125	761.849007076516
0.225677490234375	-0.00099700927734375	762.734017074282
0.22125244140625	-0.00100189208984375	763.619027072047
0.216827392578125	-0.00100799560546875	764.504037069813
0.21240234375	-0.00101287841796875	765.389047067578
0.207977294921875	-0.00101806640625	766.274057065344
0.20355224609375	-0.00102294921875	767.15906706311
0.199127197265625	-0.00102935791015625	768.044077060875
0.1947021484375	-0.00103485107421875	768.929087058641
0.190277099609375	-0.00104034423828125	769.814097056406
0.18585205078125	-0.00104644775390625	770.699107054172
0.181427001953125	-0.00105224609375	771.584117051937
0.177001953125	-0.00105865478515625	772.469127049703
0.172576904296875	-0.00106475830078125	773.354137047468
0.16815185546875	-0.00107177734375	774.239147045234
0.163726806640625	-0.00107818603515625	775.124157043
0.1593017578125	-0.001085205078125	776.009167040765
0.154876708984375	-0.0010919189453125	776.894177038531
0.15045166015625	-0.0010986328125	777.779187036296
0.146026611328125	-0.00110626220703125	778.664197034062
0.1416015625	-0.00111419677734375	779.549207031827
0.137176513671875	-0.001121826171875	780.434217029593
0.13275146484375	-0.001129150390625	781.319227027359
0.128326416015625	-0.0011370849609375	782.204237025124
0.1239013671875	-0.00114501953125	783.08924702289
0.119476318359375	-0.00115325927734375	783.974257020655
0.11505126953125	-0.001160888671875	784.859267018421
0.110626220703125	-0.00116973876953125	785.744277016186
0.106201171875	-0.0011785888671875	786.629287013952
0.101776123046875	-0.001187744140625	787.514297011718
0.09735107421875	-0.00119720458984375	788.399307009483
0.092926025390625	-0.0012066650390625	789.284317007249
0.0885009765625	-0.00121551513671875	790.169327005014
0.084075927734375	-0.001224365234375	791.05433700278
0.07965087890625	-0.0012347412109375	791.939347000545
0.075225830078125	-0.0012445068359375	792.824356998311
0.07080078125	-0.0012542724609375	793.709366996076
0.066375732421875	-0.0012646484375	794.594376993842
0.06195068359375	-0.00127593994140625	795.479386991608
0.057525634765625	-0.00128692626953125	796.364396989373
0.0531005859375	-0.0012982177734375	797.249406987139
0.048675537109375	-0.00130950927734375	798.134416984904
0.04425048828125	-0.00132049560546875	799.01942698267
0.039825439453125	-0.00133270263671875	799.904436980435
0.035400390625	-0.0013446044921875	800.789446978201
0.030975341796875	-0.00135711669921875	801.674456975967
0.02655029296875	-0.00136993408203125	802.559466973732
0.022125244140625	-0.001383056640625	803.444476971498
0.0177001953125	-0.00139678955078125	804.329486969263
0.013275146484375	-0.00140960693359375	805.214496967029
0.00885009765625	-0.00142333984375	806.099506964794
0.004425048828125	-0.0014385986328125	806.98451696256
0	-0.00145355224609375	807.869526960326
0.004425048828125	-0.0009234619140625	808.754536958091
0.00885009765625	-0.00052215576171875	809.639546955857
0.013275146484375	-0.00021295166015625	810.524556953622
0.0177001953125	2.8302001953125E-05	811.409566951388
0.022125244140625	0.0002181396484375	812.294576949153
0.02655029296875	0.0003687744140625	813.179586946919
0.030975341796875	0.000488494873046875	814.064596944684
0.035400390625	0.000584228515625	814.94960694245
0.039825439453125	0.000662322998046875	815.834616940216
0.04425048828125	0.0007244873046875	816.719626937981
0.048675537109375	0.0007745361328125	817.604636935747
0.0531005859375	0.000814208984375	818.489646933512
0.057525634765625	0.0008465576171875	819.374656931278
0.06195068359375	0.00087249755859375	820.259666929043
0.066375732421875	0.00089324951171875	821.144676926809
0.07080078125	0.00090911865234375	822.029686924575
0.075225830078125	0.00092193603515625	822.91469692234
0.07965087890625	0.00093109130859375	823.799706920106
0.084075927734375	0.00093841552734375	824.684716917871
0.0885009765625	0.00094390869140625	825.569726915637
0.092926025390625	0.00094757080078125	826.454736913402
0.09735107421875	0.00094970703125	827.339746911168
0.101776123046875	0.00095062255859375	828.224756908934
0.106201171875	0.00095062255859375	829.109766906699
0.110626220703125	0.0009490966796875	829.994776904465
0.11505126953125	0.0009478759765625	830.87978690223
0.119476318359375	0.00094482421875	831.764796899996
0.1239013671875	0.00094207763671875	832.649806897761
0.128326416015625	0.000938720703125	833.534816895527
0.13275146484375	0.00093536376953125	834.419826893292
0.137176513671875	0.00093109130859375	835.304836891058
0.1416015625	0.0009271240234375	836.189846888824
0.146026611328125	0.00092376708984375	837.074856886589
0.15045166015625	0.00091949462890625	837.959866884355
0.154876708984375	0.0009149169921875	838.84487688212
0.1593017578125	0.00090972900390625	839.729886879886
0.163726806640625	0.0009051513671875	840.614896877651
0.16815185546875	0.00089996337890625	841.499906875417
0.172576904296875	0.00089569091796875	842.384916873183
0.177001953125	0.00089080810546875	843.269926870948
0.181427001953125	0.00088653564453125	844.154936868714
0.18585205078125	0.0008819580078125	845.039946866479
0.190277099609375	0.0008770751953125	845.924956864245
0.1947021484375	0.000872802734375	846.80996686201
0.199127197265625	0.00086761474609375	847.694976859776
0.20355224609375	0.000863037109375	848.579986857541
0.207977294921875	0.0008587646484375	849.464996855307
0.21240234375	0.0008544921875	850.350006853073
0.216827392578125	0.000850830078125	851.235016850838
0.22125244140625	0.00084625244140625	852.120026848604
0.225677490234375	0.00084228515625	853.005036846369
0.2301025390625	0.0008380126953125	853.890046844135
0.234527587890625	0.00083404541015625	854.7750568419
0.23895263671875	0.0008306884765625	855.660066839666
0.243377685546875	0.00082733154296875	856.545076837432
0.247802734375	0.00082366943359375	857.430086835197
0.252227783203125	0.0008203125	858.315096832963
0.25665283203125	0.0008172607421875	859.200106830728
0.261077880859375	0.00081390380859375	860.085116828494
0.2655029296875	0.00081085205078125	860.970126826259
0.269927978515625	0.00080810546875	861.855136824025
0.27435302734375	0.00080474853515625	862.740146821791
0.278778076171875	0.00080230712890625	863.625156819556
0.283203125	0.0007989501953125	864.510166817322
0.287628173828125	0.0007965087890625	865.395176815087
0.29205322265625	0.00079376220703125	866.280186812853
0.296478271484375	0.000791015625	867.165196810618
0.3009033203125	0.00078857421875	868.050206808384
0.305328369140625	0.0007861328125	868.935216806149
0.30975341796875	0.00078399658203125	869.820226803915
0.314178466796875	0.00078369140625	870.705236801681
0.318603515625	0.00078125	871.590246799446
0.323028564453125	0.00077880859375	872.475256797212
0.32745361328125	0.0007763671875	873.360266794977
0.331878662109375	0.0007745361328125	874.245276792743
0.3363037109375	0.00077301025390625	875.130286790508
0.340728759765625	0.000771484375	876.015296788274
0.34515380859375	0.00076995849609375	876.90030678604
0.349578857421875	0.0007684326171875	877.785316783805
0.35400390625	0.000765380859375	878.670326781571
0.358428955078125	0.0007647705078125	879.555336779336
0.36285400390625	0.0007635498046875	880.440346777102
0.367279052734375	0.00076202392578125	881.325356774867
0.3717041015625	0.00076141357421875	882.210366772633
0.376129150390625	0.0007598876953125	883.095376770399
0.38055419921875	0.00075897216796875	883.980386768164
0.384979248046875	0.00075836181640625	884.86539676593
0.389404296875	0.00075714111328125	885.750406763695
0.393829345703125	0.00075531005859375	886.635416761461
0.39825439453125	0.00075469970703125	887.520426759226
0.402679443359375	0.0007537841796875	888.405436756992
0.4071044921875	0.00075286865234375	889.290446754757
0.411529541015625	0.00075225830078125	890.175456752523
0.41595458984375	0.00075164794921875	891.060466750289
0.420379638671875	0.00075103759765625	891.945476748054
0.4248046875	0.00075042724609375	892.83048674582
0.429229736328125	0.00074951171875	893.715496743585
0.43365478515625	0.0007489013671875	894.600506741351
0.438079833984375	0.00074798583984375	895.485516739116
0.4425048828125	0.00074737548828125	896.370526736882
0.446929931640625	0.00074737548828125	897.255536734648
0.45135498046875	0.00074676513671875	898.140546732413
0.455780029296875	0.00074615478515625	899.025556730179
0.460205078125	0.000745849609375	899.910566727944
0.464630126953125	0.000745849609375	900.79557672571
0.46905517578125	0.00074493408203125	901.680586723475
0.473480224609375	0.0007452392578125	902.565596721241
0.4779052734375	0.0007452392578125	903.450606719006
0.482330322265625	0.000745849609375	904.335616716772
0.48675537109375	0.00074554443359375	905.220626714538
0.491180419921875	0.00074554443359375	906.105636712303
0.49560546875	0.0007452392578125	906.990646710069
0.500030517578125	0.00074615478515625	907.875656707834
0.50445556640625	0.00074615478515625	908.7606667056
0.508880615234375	0.000745849609375	909.645676703365
0.5133056640625	0.0007464599609375	910.530686701131
0.517730712890625	0.0007464599609375	911.415696698897
0.52215576171875	0.0007470703125	912.300706696662
0.526580810546875	0.0007476806640625	913.185716694428
0.531005859375	0.00074798583984375	914.070726692193
0.535430908203125	0.00074859619140625	914.955736689959
0.53985595703125	0.00074951171875	915.840746687724
0.544281005859375	0.00075042724609375	916.72575668549
0.5487060546875	0.000750732421875	917.610766683256
0.553131103515625	0.00075164794921875	918.495776681021
0.55755615234375	0.0007525634765625	919.380786678787
0.561981201171875	0.00075347900390625	920.265796676552
0.56640625	0.00075531005859375	921.150806674318
0.570831298828125	0.0007562255859375	922.035816672083
0.57525634765625	0.0007574462890625	922.920826669849
0.579681396484375	0.00075897216796875	923.805836667614
0.5841064453125	0.00076080322265625	924.69084666538
0.588531494140625	0.0007611083984375	925.575856663146
0.59295654296875	0.00076324462890625	926.460866660911
0.597381591796875	0.000765380859375	927.345876658677
0.601806640625	0.0007672119140625	928.230886656442
0.606231689453125	0.00076904296875	929.115896654208
0.61065673828125	0.0007708740234375	930.000906651973
0.615081787109375	0.000772705078125	930.885916649739
0.6195068359375	0.000775146484375	931.770926647505
0.623931884765625	0.000777587890625	932.65593664527
0.62835693359375	0.0007818603515625	933.540946643036
0.632781982421875	0.00078338623046875	934.425956640801
0.63720703125	0.0007855224609375	935.310966638567
0.641632080078125	0.00078826904296875	936.195976636332
0.64605712890625	0.00079071044921875	937.080986634098
0.650482177734375	0.00079345703125	937.965996631864
0.6549072265625	0.00079620361328125	938.851006629629
0.659332275390625	0.00079986572265625	939.736016627395
0.66375732421875	0.00080230712890625	940.62102662516
0.668182373046875	0.00080596923828125	941.506036622926
0.672607421875	0.0008099365234375	942.391046620691
0.677032470703125	0.0008135986328125	943.276056618457
0.68145751953125	0.00081695556640625	944.161066616222
0.685882568359375	0.00082061767578125	945.046076613988
0.6903076171875	0.0008251953125	945.931086611754
0.694732666015625	0.0008282470703125	946.816096609519
0.69915771484375	0.00083251953125	947.701106607285
0.703582763671875	0.000836181640625	948.58611660505
0.7080078125	0.00084136962890625	949.471126602816
0.712432861328125	0.0008465576171875	950.356136600581
0.71685791015625	0.000850830078125	951.241146598347
0.721282958984375	0.0008563232421875	952.126156596113
0.7257080078125	0.00086151123046875	953.011166593878
0.730133056640625	0.0008673095703125	953.896176591644
0.73455810546875	0.00087188720703125	954.781186589409
0.738983154296875	0.00087890625	955.666196587175
0.743408203125	0.0008837890625	956.55120658494
0.747833251953125	0.00089111328125	957.436216582706
0.75225830078125	0.00089752197265625	958.321226580471
0.756683349609375	0.00090423583984375	959.206236578237
0.7611083984375	0.000911865234375	960.091246576003
0.765533447265625	0.000919189453125	960.976256573768
0.76995849609375	0.000927734375	961.861266571534
0.774383544921875	0.00093536376953125	962.746276569299
0.77880859375	0.000943603515625	963.631286567065
0.783233642578125	0.00095245361328125	964.51629656483
0.78765869140625	0.00096221923828125	965.401306562596
0.792083740234375	0.0009710693359375	966.286316560362
0.7965087890625	0.0009820556640625	967.171326558127
0.800933837890625	0.000992431640625	968.056336555893
0.80535888671875	0.00100341796875	968.941346553658
0.809783935546875	0.00101470947265625	969.826356551424
0.814208984375	0.00102630615234375	970.711366549189
0.818634033203125	0.00103912353515625	971.596376546955
0.82305908203125	0.00105194091796875	972.481386544721
0.827484130859375	0.00106536865234375	973.366396542486
0.8319091796875	0.00107940673828125	974.251406540252
0.836334228515625	0.00109344482421875	975.136416538017
0.84075927734375	0.0011083984375	976.021426535783
0.845184326171875	0.00112457275390625	976.906436533548
0.849609375	0.001141357421875	977.791446531314
0.854034423828125	0.00115875244140625	978.676456529079
0.85845947265625	0.0011767578125	979.561466526845
0.862884521484375	0.0011944580078125	980.446476524611
0.8673095703125	0.0012139892578125	981.331486522376
0.871734619140625	0.00123443603515625	982.216496520142
0.87615966796875	0.00125457763671875	983.101506517907
0.880584716796875	0.00127716064453125	983.986516515673
0.885009765625	0.00130035400390625	984.871526513438
0.889434814453125	0.00132354736328125	985.756536511204
0.89385986328125	0.00134857177734375	986.64154650897
0.898284912109375	0.00137420654296875	987.526556506735
0.9027099609375	0.00140228271484375	988.411566504501
0.907135009765625	0.0014300537109375	989.296576502266
0.91156005859375	0.001458740234375	990.181586500032
0.915985107421875	0.00149017333984375	991.066596497797
0.92041015625	0.001522216796875	991.951606495563
0.924835205078125	0.00155670166015625	992.836616493329
0.92926025390625	0.0015924072265625	993.721626491094
0.933685302734375	0.001630859375	994.60663648886
0.9381103515625	0.0016717529296875	995.491646486625
0.942535400390625	0.0017138671875	996.376656484391
0.94696044921875	0.00175811767578125	997.261666482156
0.951385498046875	0.00180450439453125	998.146676479922
0.955810546875	0.00185577392578125	999.031686477687
0.960235595703125	0.00190887451171875	999.916696475453
0.96466064453125	0.00196563720703125	1000.80170647322
0.969085693359375	0.0020263671875	1001.68671647098
0.9735107421875	0.00209075927734375	1002.57172646875
0.977935791015625	0.0021563720703125	1003.45673646652
0.98236083984375	0.0022296142578125	1004.34174646428
0.986785888671875	0.00230560302734375	1005.22675646205
0.9912109375	0.0023858642578125	1006.11176645981
0.995635986328125	0.0024700927734375	1006.99677645758
1.00006103515625	0.00255950927734375	1007.88178645534
0.995635986328125	0.0021343994140625	1008.76679645311
0.9912109375	0.00181365966796875	1009.65180645087
0.986785888671875	0.00155242919921875	1010.53681644864
0.98236083984375	0.00133087158203125	1011.42182644641
0.977935791015625	0.0011383056640625	1012.30683644417
0.9735107421875	0.0009698486328125	1013.19184644194
0.969085693359375	0.00081787109375	1014.0768564397
0.96466064453125	0.000682373046875	1014.96186643747
0.960235595703125	0.0005596923828125	1015.84687643523
0.955810546875	0.00045013427734375	1016.731886433
0.951385498046875	0.00035089111328125	1017.61689643076
0.94696044921875	0.000261322021484375	1018.50190642853
0.942535400390625	0.0001807861328125	1019.3869164263
0.9381103515625	0.000108184814453125	1020.27192642406
0.933685302734375	4.09942626953125E-05	1021.15693642183
0.92926025390625	-1.82952880859375E-05	1022.04194641959
0.924835205078125	-7.1258544921875E-05	1022.92695641736
0.92041015625	-0.0001190185546875	1023.81196641512
0.915985107421875	-0.000162353515625	1024.69697641289
0.91156005859375	-0.00020220947265625	1025.58198641065
0.907135009765625	-0.000237640380859375	1026.46699640842
0.9027099609375	-0.000269866943359375	1027.35200640619
0.898284912109375	-0.000299163818359375	1028.23701640395
0.89385986328125	-0.000325714111328125	1029.12202640172
0.889434814453125	-0.000350189208984375	1030.00703639948
0.885009765625	-0.000372894287109375	1030.89204639725
0.880584716796875	-0.000393218994140625	1031.77705639501
0.87615966796875	-0.000412017822265625	1032.66206639278
0.871734619140625	-0.000429351806640625	1033.54707639054
0.8673095703125	-0.000445037841796875	1034.43208638831
0.862884521484375	-0.00045977783203125	1035.31709638608
0.85845947265625	-0.000473052978515625	1036.20210638384
0.854034423828125	-0.00048590087890625	1037.08711638161
0.849609375	-0.000498046875	1037.97212637937
0.845184326171875	-0.000508880615234375	1038.85713637714
0.84075927734375	-0.00051898193359375	1039.7421463749
0.836334228515625	-0.000528594970703125	1040.62715637267
0.8319091796875	-0.000537445068359375	1041.51216637043
0.827484130859375	-0.00054620361328125	1042.3971763682
0.82305908203125	-0.000554046630859375	1043.28218636597
0.818634033203125	-0.000561187744140625	1044.16719636373
0.814208984375	-0.000568511962890625	1045.0522063615
0.809783935546875	-0.00057537841796875	1045.93721635926
0.80535888671875	-0.000581756591796875	1046.82222635703
0.800933837890625	-0.00058758544921875	1047.70723635479
0.7965087890625	-0.000593292236328125	1048.59224635256
0.792083740234375	-0.0005985107421875	1049.47725635032
0.78765869140625	-0.000603759765625	1050.36226634809
0.783233642578125	-0.000609130859375	1051.24727634586
0.77880859375	-0.0006134033203125	1052.13228634362
0.774383544921875	-0.00061798095703125	1053.01729634139
0.76995849609375	-0.00062255859375	1053.90230633915
0.765533447265625	-0.0006268310546875	1054.78731633692
0.7611083984375	-0.000631103515625	1055.67232633468
0.756683349609375	-0.00063507080078125	1056.55733633245
0.75225830078125	-0.00063873291015625	1057.44234633021
0.747833251953125	-0.00064239501953125	1058.32735632798
0.743408203125	-0.0006463623046875	1059.21236632575
0.738983154296875	-0.00064910888671875	1060.09737632351
0.73455810546875	-0.00065277099609375	1060.98238632128
0.730133056640625	-0.00065643310546875	1061.86739631904
0.7257080078125	-0.00065948486328125	1062.75240631681
0.721282958984375	-0.0006634521484375	1063.63741631457
0.71685791015625	-0.00066619873046875	1064.52242631234
0.712432861328125	-0.0006695556640625	1065.4074363101
0.7080078125	-0.00067291259765625	1066.29244630787
0.703582763671875	-0.0006756591796875	1067.17745630564
0.69915771484375	-0.00067779541015625	1068.0624663034
0.694732666015625	-0.0006817626953125	1068.94747630117
0.6903076171875	-0.000684814453125	1069.83248629893
0.685882568359375	-0.0006878662109375	1070.7174962967
0.68145751953125	-0.0006903076171875	1071.60250629446
0.677032470703125	-0.00069366455078125	1072.48751629223
0.672607421875	-0.00069610595703125	1073.37252628999
0.668182373046875	-0.0006988525390625	1074.25753628776
0.66375732421875	-0.00070159912109375	1075.14254628553
0.659332275390625	-0.00070465087890625	1076.02755628329
0.6549072265625	-0.0007073974609375	1076.91256628106
0.650482177734375	-0.00071044921875	1077.79757627882
0.64605712890625	-0.00071319580078125	1078.68258627659
0.641632080078125	-0.00071563720703125	1079.56759627435
0.63720703125	-0.00071868896484375	1080.45260627212
0.632781982421875	-0.00072113037109375	1081.33761626989
0.62835693359375	-0.000723876953125	1082.22262626765
0.623931884765625	-0.000728759765625	1083.10763626542
0.6195068359375	-0.00073089599609375	1083.99264626318
0.615081787109375	-0.0007330322265625	1084.87765626095
0.61065673828125	-0.00073577880859375	1085.76266625871
0.606231689453125	-0.00073822021484375	1086.64767625648
0.601806640625	-0.000740966796875	1087.53268625424
0.597381591796875	-0.00074310302734375	1088.41769625201
0.59295654296875	-0.0007452392578125	1089.30270624977
0.588531494140625	-0.000748291015625	1090.18771624754
0.5841064453125	-0.00074981689453125	1091.07272624531
0.579681396484375	-0.000753173828125	1091.95773624307
0.57525634765625	-0.00075592041015625	1092.84274624084
0.570831298828125	-0.00075927734375	1093.7277562386
0.56640625	-0.00076202392578125	1094.61276623637
0.561981201171875	-0.0007647705078125	1095.49777623413
0.55755615234375	-0.00076751708984375	1096.3827862319
0.553131103515625	-0.000770263671875	1097.26779622967
0.5487060546875	-0.000772705078125	1098.15280622743
0.544281005859375	-0.000775146484375	1099.0378162252
0.53985595703125	-0.00077850341796875	1099.92282622296
0.535430908203125	-0.00078125	1100.80783622073
0.531005859375	-0.00078399658203125	1101.69284621849
0.526580810546875	-0.0007861328125	1102.57785621626
0.52215576171875	-0.000789794921875	1103.46286621402
0.517730712890625	-0.00079254150390625	1104.34787621179
0.5133056640625	-0.00079498291015625	1105.23288620956
0.508880615234375	-0.00079833984375	1106.11789620732
0.50445556640625	-0.00080108642578125	1107.00290620509
0.500030517578125	-0.00080352783203125	1107.88791620285
0.49560546875	-0.0008062744140625	1108.77292620062
0.491180419921875	-0.00080902099609375	1109.65793619838
0.48675537109375	-0.000811767578125	1110.54294619615
0.482330322265625	-0.00081451416015625	1111.42795619391
0.4779052734375	-0.00081695556640625	1112.31296619168
0.473480224609375	-0.00082000732421875	1113.19797618945
0.46905517578125	-0.00082275390625	1114.08298618721
0.464630126953125	-0.0008245849609375	1114.96799618498
0.460205078125	-0.00082733154296875	1115.85300618274
0.455780029296875	-0.000830078125	1116.73801618051
0.45135498046875	-0.00083282470703125	1117.62302617827
0.446929931640625	-0.00083526611328125	1118.50803617604
0.4425048828125	-0.0008380126953125	1119.3930461738
0.438079833984375	-0.00084075927734375	1120.27805617157
0.43365478515625	-0.000843505859375	1121.16306616934
0.429229736328125	-0.00084564208984375	1122.0480761671
0.4248046875	-0.00084808349609375	1122.93308616487
0.420379638671875	-0.00085052490234375	1123.81809616263
0.41595458984375	-0.0008526611328125	1124.7031061604
0.411529541015625	-0.0008551025390625	1125.58811615816
0.4071044921875	-0.00085723876953125	1126.47312615593
0.402679443359375	-0.0008599853515625	1127.35813615369
0.39825439453125	-0.00086212158203125	1128.24314615146
0.393829345703125	-0.0008648681640625	1129.12815614923
0.389404296875	-0.00086669921875	1130.01316614699
0.384979248046875	-0.0008697509765625	1130.89817614476
0.38055419921875	-0.0008721923828125	1131.78318614252
0.376129150390625	-0.0008746337890625	1132.66819614029
0.3717041015625	-0.00087738037109375	1133.55320613805
0.367279052734375	-0.000880126953125	1134.43821613582
0.36285400390625	-0.000882568359375	1135.32322613358
0.358428955078125	-0.00088531494140625	1136.20823613135
0.35400390625	-0.00088836669921875	1137.09324612912
0.349578857421875	-0.00088958740234375	1137.97825612688
0.34515380859375	-0.00089263916015625	1138.86326612465
0.340728759765625	-0.00089569091796875	1139.74827612241
0.3363037109375	-0.0008990478515625	1140.63328612018
0.331878662109375	-0.00090240478515625	1141.51829611794
0.32745361328125	-0.0009051513671875	1142.40330611571
0.323028564453125	-0.000908203125	1143.28831611347
0.318603515625	-0.00091094970703125	1144.17332611124
0.314178466796875	-0.00091400146484375	1145.05833610901
0.30975341796875	-0.00091888427734375	1145.94334610677
0.305328369140625	-0.00092193603515625	1146.82835610454
0.3009033203125	-0.00092498779296875	1147.7133661023
0.296478271484375	-0.00092864990234375	1148.59837610007
0.29205322265625	-0.00093109130859375	1149.48338609783
0.287628173828125	-0.00093475341796875	1150.3683960956
0.283203125	-0.000938720703125	1151.25340609336
0.278778076171875	-0.0009423828125	1152.13841609113
0.27435302734375	-0.00094635009765625	1153.0234260889
0.269927978515625	-0.00094940185546875	1153.90843608666
0.2655029296875	-0.00095367431640625	1154.79344608443
0.261077880859375	-0.00095794677734375	1155.67845608219
0.25665283203125	-0.00096160888671875	1156.56346607996
0.252227783203125	-0.00096588134765625	1157.44847607772
0.247802734375	-0.00097015380859375	1158.33348607549
0.243377685546875	-0.0009747314453125	1159.21849607325
0.23895263671875	-0.00097900390625	1160.10350607102
0.234527587890625	-0.00098358154296875	1160.98851606879
0.2301025390625	-0.0009881591796875	1161.87352606655
0.225677490234375	-0.00099365234375	1162.75853606432
0.22125244140625	-0.00099822998046875	1163.64354606208
0.216827392578125	-0.00100311279296875	1164.52855605985
0.21240234375	-0.00100860595703125	1165.41356605761
0.207977294921875	-0.00101409912109375	1166.29857605538
0.20355224609375	-0.0010198974609375	1167.18358605314
0.199127197265625	-0.001025390625	1168.06859605091
0.1947021484375	-0.00102996826171875	1168.95360604868
0.190277099609375	-0.00103607177734375	1169.83861604644
0.18585205078125	-0.0010418701171875	1170.72362604421
0.181427001953125	-0.00104827880859375	1171.60863604197
0.177001953125	-0.0010546875	1172.49364603974
0.172576904296875	-0.0010614013671875	1173.3786560375
0.16815185546875	-0.001068115234375	1174.26366603527
0.163726806640625	-0.00107452392578125	1175.14867603303
0.1593017578125	-0.00108123779296875	1176.0336860308
0.154876708984375	-0.00108734130859375	1176.91869602857
0.15045166015625	-0.001094970703125	1177.80370602633
0.146026611328125	-0.00110198974609375	1178.6887160241
0.1416015625	-0.0011102294921875	1179.57372602186
0.137176513671875	-0.0011175537109375	1180.45873601963
0.13275146484375	-0.00112548828125	1181.34374601739
0.128326416015625	-0.0011334228515625	1182.22875601516
0.1239013671875	-0.00114105224609375	1183.11376601292
0.119476318359375	-0.0011492919921875	1183.99877601069
0.11505126953125	-0.0011566162109375	1184.88378600846
0.110626220703125	-0.001165771484375	1185.76879600622
0.106201171875	-0.00117431640625	1186.65380600399
0.101776123046875	-0.00118316650390625	1187.53881600175
0.09735107421875	-0.00119293212890625	1188.42382599952
0.092926025390625	-0.001202392578125	1189.30883599728
0.0885009765625	-0.00121185302734375	1190.19384599505
0.084075927734375	-0.001221923828125	1191.07885599282
0.07965087890625	-0.001231689453125	1191.96386599058
0.075225830078125	-0.0012408447265625	1192.84887598835
0.07080078125	-0.00125152587890625	1193.73388598611
0.066375732421875	-0.00126220703125	1194.61889598388
0.06195068359375	-0.0012725830078125	1195.50390598164
0.057525634765625	-0.0012835693359375	1196.38891597941
0.0531005859375	-0.00129486083984375	1197.27392597717
0.048675537109375	-0.0013067626953125	1198.15893597494
0.04425048828125	-0.001318359375	1199.0439459727
0.039825439453125	-0.0013299560546875	1199.92895597047
0.035400390625	-0.0013421630859375	1200.81396596824
0.030975341796875	-0.00135528564453125	1201.698975966
0.02655029296875	-0.00136810302734375	1202.58398596377
0.022125244140625	-0.0013812255859375	1203.46899596153
0.0177001953125	-0.001395263671875	1204.3540059593
0.013275146484375	-0.00140869140625	1205.23901595706
0.00885009765625	-0.0014227294921875	1206.12402595483
0.004425048828125	-0.00143798828125	1207.0090359526
0	-0.00145294189453125	1207.89404595036
0.004425048828125	-0.0009222412109375	1208.77905594813
0.00885009765625	-0.0005206298828125	1209.66406594589
0.013275146484375	-0.000211944580078125	1210.54907594366
