Potential applied (V)	WE(1).Current (A)	Time (s)
0.004425048828125	-0.00050811767578125	8.70549897802073
0.00885009765625	-0.00018365478515625	9.59050897578629
0.013275146484375	6.7413330078125E-05	10.4755189735519
0.0177001953125	0.000263397216796875	11.3605289713174
0.022125244140625	0.0004163818359375	12.245538969083
0.02655029296875	0.0005364990234375	13.1305489668486
0.030975341796875	0.00063232421875	14.0155589646141
0.035400390625	0.00070831298828125	14.9005689623797
0.039825439453125	0.00076751708984375	15.7855789601452
0.04425048828125	0.00081329345703125	16.6705889579108
0.048675537109375	0.00085205078125	17.5555989556764
0.0531005859375	0.0008819580078125	18.4406089534419
0.057525634765625	0.00090484619140625	19.3256189512075
0.06195068359375	0.0009234619140625	20.2106289489731
0.066375732421875	0.0009375	21.0956389467386
0.07080078125	0.00094818115234375	21.9806489445042
0.075225830078125	0.00095550537109375	22.8656589422698
0.07965087890625	0.0009613037109375	23.7506689400353
0.084075927734375	0.00096466064453125	24.6356789378009
0.0885009765625	0.00096710205078125	25.5206889355665
0.092926025390625	0.0009686279296875	26.405698933332
0.09735107421875	0.00096832275390625	27.2907089310976
0.101776123046875	0.000966796875	28.1757189288631
0.106201171875	0.0009649658203125	29.0607289266287
0.110626220703125	0.00096343994140625	29.9457389243943
0.11505126953125	0.00096038818359375	30.8307489221598
0.119476318359375	0.00095672607421875	31.7157589199254
0.1239013671875	0.000953369140625	32.600768917691
0.128326416015625	0.000948486328125	33.4857789154565
0.13275146484375	0.00094451904296875	34.3707889132221
0.137176513671875	0.0009417724609375	35.2557989109877
0.1416015625	0.0009375	36.1408089087532
0.146026611328125	0.00093353271484375	37.0258189065188
0.15045166015625	0.0009283447265625	37.9108289042844
0.154876708984375	0.00092437744140625	38.7958389020499
0.1593017578125	0.0009185791015625	39.6808488998155
0.163726806640625	0.00091339111328125	40.5658588975811
0.16815185546875	0.0009088134765625	41.4508688953466
0.172576904296875	0.0009033203125	42.3358788931122
0.177001953125	0.00089996337890625	43.2208888908777
0.181427001953125	0.00089508056640625	44.1058988886433
0.18585205078125	0.00089019775390625	44.9909088864089
0.190277099609375	0.00088592529296875	45.8759188841744
0.1947021484375	0.00088043212890625	46.76092888194
0.199127197265625	0.00087677001953125	47.6459388797056
0.20355224609375	0.00087158203125	48.5309488774711
0.207977294921875	0.0008673095703125	49.4159588752367
0.21240234375	0.000863037109375	50.3009688730023
0.216827392578125	0.0008587646484375	51.1859788707678
0.22125244140625	0.00085479736328125	52.0709888685334
0.225677490234375	0.00085052490234375	52.955998866299
0.2301025390625	0.000845947265625	53.8410088640645
0.234527587890625	0.00084259033203125	54.7260188618301
0.23895263671875	0.0008392333984375	55.6110288595956
0.243377685546875	0.00083526611328125	56.4960388573612
0.247802734375	0.000831298828125	57.3810488551268
0.252227783203125	0.0008270263671875	58.2660588528923
0.25665283203125	0.00082366943359375	59.1510688506579
0.261077880859375	0.00082061767578125	60.0360788484235
0.2655029296875	0.0008172607421875	60.921088846189
0.269927978515625	0.000814208984375	61.8060988439546
0.27435302734375	0.000810546875	62.6911088417202
0.278778076171875	0.00080810546875	63.5761188394857
0.283203125	0.00080474853515625	64.4611288372513
0.287628173828125	0.00080291748046875	65.3461388350169
0.29205322265625	0.0008001708984375	66.2311488327824
0.296478271484375	0.00079833984375	67.116158830548
0.3009033203125	0.00079437255859375	68.0011688283136
0.305328369140625	0.000792236328125	68.8861788260791
0.30975341796875	0.00079071044921875	69.7711888238447
0.314178466796875	0.00079010009765625	70.6561988216102
0.318603515625	0.0007879638671875	71.5412088193758
0.323028564453125	0.0007855224609375	72.4262188171414
0.32745361328125	0.00078369140625	73.3112288149069
0.331878662109375	0.00078216552734375	74.1962388126725
0.3363037109375	0.00077972412109375	75.0812488104381
0.340728759765625	0.00077850341796875	75.9662588082036
0.34515380859375	0.0007763671875	76.8512688059692
0.349578857421875	0.00077545166015625	77.7362788037348
0.35400390625	0.00077301025390625	78.6212888015003
0.358428955078125	0.0007720947265625	79.5062987992659
0.36285400390625	0.00077056884765625	80.3913087970315
0.367279052734375	0.000770263671875	81.276318794797
0.3717041015625	0.00076873779296875	82.1613287925626
0.376129150390625	0.0007672119140625	83.0463387903282
0.38055419921875	0.0007666015625	83.9313487880937
0.384979248046875	0.0007647705078125	84.8163587858593
0.389404296875	0.00076324462890625	85.7013687836248
0.393829345703125	0.00076263427734375	86.5863787813904
0.39825439453125	0.0007623291015625	87.471388779156
0.402679443359375	0.00076171875	88.3563987769215
0.4071044921875	0.00076080322265625	89.2414087746871
0.411529541015625	0.00075958251953125	90.1264187724527
0.41595458984375	0.0007586669921875	91.0114287702182
0.420379638671875	0.00075775146484375	91.8964387679838
0.4248046875	0.00075714111328125	92.7814487657494
0.429229736328125	0.0007568359375	93.6664587635149
0.43365478515625	0.0007562255859375	94.5514687612805
0.438079833984375	0.000755615234375	95.4364787590461
0.4425048828125	0.00075531005859375	96.3214887568116
0.446929931640625	0.000755615234375	97.2064987545772
0.45135498046875	0.00075531005859375	98.0915087523427
0.455780029296875	0.00075408935546875	98.9765187501083
0.460205078125	0.00075408935546875	99.8615287478739
0.464630126953125	0.00075469970703125	100.746538745639
0.46905517578125	0.00075347900390625	101.631548743405
0.473480224609375	0.00075347900390625	102.516558741171
0.4779052734375	0.00075347900390625	103.401568738936
0.482330322265625	0.00075347900390625	104.286578736702
0.48675537109375	0.000753173828125	105.171588734467
0.491180419921875	0.000753173828125	106.056598732233
0.49560546875	0.0007537841796875	106.941608729998
0.500030517578125	0.0007537841796875	107.826618727764
0.50445556640625	0.00075408935546875	108.71162872553
0.508880615234375	0.00075408935546875	109.596638723295
0.5133056640625	0.00075439453125	110.481648721061
0.517730712890625	0.00075469970703125	111.366658718826
0.52215576171875	0.00075592041015625	112.251668716592
0.526580810546875	0.0007562255859375	113.136678714357
0.531005859375	0.00075653076171875	114.021688712123
0.535430908203125	0.0007568359375	114.906698709888
0.53985595703125	0.0007574462890625	115.791708707654
0.544281005859375	0.00075836181640625	116.67671870542
0.5487060546875	0.00075897216796875	117.561728703185
0.553131103515625	0.0007598876953125	118.446738700951
0.55755615234375	0.00076171875	119.331748698716
0.561981201171875	0.0007623291015625	120.216758696482
0.56640625	0.0007635498046875	121.101768694247
0.570831298828125	0.00076507568359375	121.986778692013
0.57525634765625	0.0007659912109375	122.871788689779
0.579681396484375	0.0007672119140625	123.756798687544
0.5841064453125	0.00076873779296875	124.64180868531
0.588531494140625	0.00076934814453125	125.526818683075
0.59295654296875	0.00077117919921875	126.411828680841
0.597381591796875	0.00077362060546875	127.296838678606
0.601806640625	0.000775146484375	128.181848676372
0.606231689453125	0.00077728271484375	129.066858674138
0.61065673828125	0.0007794189453125	129.951868671903
0.615081787109375	0.00078155517578125	130.836878669669
0.6195068359375	0.00078338623046875	131.721888667434
0.623931884765625	0.00078582763671875	132.6068986652
0.62835693359375	0.00079010009765625	133.491908662965
0.632781982421875	0.00079193115234375	134.376918660731
0.63720703125	0.0007940673828125	135.261928658496
0.641632080078125	0.0007965087890625	136.146938656262
0.64605712890625	0.00079925537109375	137.031948654028
0.650482177734375	0.00080230712890625	137.916958651793
0.6549072265625	0.00080474853515625	138.801968649559
0.659332275390625	0.00080718994140625	139.686978647324
0.66375732421875	0.0008111572265625	140.57198864509
0.668182373046875	0.00081390380859375	141.456998642855
0.672607421875	0.0008172607421875	142.342008640621
0.677032470703125	0.0008209228515625	143.227018638387
0.68145751953125	0.00082427978515625	144.112028636152
0.685882568359375	0.00082855224609375	144.997038633918
0.6903076171875	0.0008319091796875	145.882048631683
0.694732666015625	0.00083587646484375	146.767058629449
0.69915771484375	0.00083984375	147.652068627214
0.703582763671875	0.00084381103515625	148.53707862498
0.7080078125	0.00084869384765625	149.422088622745
0.712432861328125	0.00085296630859375	150.307098620511
0.71685791015625	0.0008575439453125	151.192108618277
0.721282958984375	0.0008636474609375	152.077118616042
0.7257080078125	0.00086883544921875	152.962128613808
0.730133056640625	0.0008740234375	153.847138611573
0.73455810546875	0.00087921142578125	154.732148609339
0.738983154296875	0.00088531494140625	155.617158607104
0.743408203125	0.00089019775390625	156.50216860487
0.747833251953125	0.000897216796875	157.387178602636
0.75225830078125	0.00090362548828125	158.272188600401
0.756683349609375	0.000909423828125	159.157198598167
0.7611083984375	0.00091705322265625	160.042208595932
0.765533447265625	0.00092498779296875	160.927218593698
0.76995849609375	0.0009326171875	161.812228591463
0.774383544921875	0.00094024658203125	162.697238589229
0.77880859375	0.000948486328125	163.582248586995
0.783233642578125	0.00095672607421875	164.46725858476
0.78765869140625	0.0009661865234375	165.352268582526
0.792083740234375	0.00097564697265625	166.237278580291
0.7965087890625	0.00098602294921875	167.122288578057
0.800933837890625	0.00099609375	168.007298575822
0.80535888671875	0.00100738525390625	168.892308573588
0.809783935546875	0.00101837158203125	169.777318571353
0.814208984375	0.0010308837890625	170.662328569119
0.818634033203125	0.00104248046875	171.547338566885
0.82305908203125	0.0010565185546875	172.43234856465
0.827484130859375	0.00106903076171875	173.317358562416
0.8319091796875	0.001083984375	174.202368560181
0.836334228515625	0.00109832763671875	175.087378557947
0.84075927734375	0.0011138916015625	175.972388555712
0.845184326171875	0.00113037109375	176.857398553478
0.849609375	0.0011474609375	177.742408551244
0.854034423828125	0.0011639404296875	178.627418549009
0.85845947265625	0.001182861328125	179.512428546775
0.862884521484375	0.001202392578125	180.39743854454
0.8673095703125	0.00122314453125	181.282448542306
0.871734619140625	0.00124298095703125	182.167458540071
0.87615966796875	0.0012652587890625	183.052468537837
0.880584716796875	0.00128814697265625	183.937478535603
0.885009765625	0.00131195068359375	184.822488533368
0.889434814453125	0.00133758544921875	185.707498531134
0.89385986328125	0.00136383056640625	186.592508528899
0.898284912109375	0.00139190673828125	187.477518526665
0.9027099609375	0.0014202880859375	188.36252852443
0.907135009765625	0.00145050048828125	189.247538522196
0.91156005859375	0.00148193359375	190.132548519961
0.915985107421875	0.00151519775390625	191.017558517727
0.92041015625	0.00155120849609375	191.902568515493
0.924835205078125	0.00158843994140625	192.787578513258
0.92926025390625	0.00162811279296875	193.672588511024
0.933685302734375	0.00166900634765625	194.557598508789
0.9381103515625	0.001715087890625	195.442608506555
0.942535400390625	0.00176116943359375	196.32761850432
0.94696044921875	0.001810302734375	197.212628502086
0.951385498046875	0.0018621826171875	198.097638499852
0.955810546875	0.00191925048828125	198.982648497617
0.960235595703125	0.0019793701171875	199.867658495383
0.96466064453125	0.00204132080078125	200.752668493148
0.969085693359375	0.0021087646484375	201.637678490914
0.9735107421875	0.00217987060546875	202.522688488679
0.977935791015625	0.00225341796875	203.407698486445
0.98236083984375	0.00233367919921875	204.29270848421
0.986785888671875	0.00241729736328125	205.177718481976
0.9912109375	0.00250335693359375	206.062728479742
0.995635986328125	0.00259674072265625	206.947738477507
1.00006103515625	0.00269317626953125	207.832748475273
0.995635986328125	0.00226470947265625	208.717758473038
0.9912109375	0.00194091796875	209.602768470804
0.986785888671875	0.0016741943359375	210.487778468569
0.98236083984375	0.0014459228515625	211.372788466335
0.977935791015625	0.00124786376953125	212.257798464101
0.9735107421875	0.0010723876953125	213.142808461866
0.969085693359375	0.0009136962890625	214.027818459632
0.96466064453125	0.00077117919921875	214.912828457397
0.960235595703125	0.00064178466796875	215.797838455163
0.955810546875	0.0005255126953125	216.682848452928
0.951385498046875	0.00042022705078125	217.567858450694
0.94696044921875	0.000324859619140625	218.45286844846
0.942535400390625	0.000238189697265625	219.337878446225
0.9381103515625	0.000159820556640625	220.222888443991
0.933685302734375	8.7432861328125E-05	221.107898441756
0.92926025390625	2.34130859375E-05	221.992908439522
0.924835205078125	-3.42498779296875E-05	222.877918437287
0.92041015625	-8.7005615234375E-05	223.762928435053
0.915985107421875	-0.000134185791015625	224.647938432818
0.91156005859375	-0.0001773681640625	225.532948430584
0.907135009765625	-0.0002161865234375	226.41795842835
0.9027099609375	-0.000252044677734375	227.302968426115
0.898284912109375	-0.000284088134765625	228.187978423881
0.89385986328125	-0.0003134765625	229.072988421646
0.889434814453125	-0.000340728759765625	229.957998419412
0.885009765625	-0.000365234375	230.843008417177
0.880584716796875	-0.00038763427734375	231.728018414943
0.87615966796875	-0.000408416748046875	232.613028412709
0.871734619140625	-0.000427642822265625	233.498038410474
0.8673095703125	-0.00044488525390625	234.38304840824
0.862884521484375	-0.000461669921875	235.268058406005
0.85845947265625	-0.000475250244140625	236.153068403771
0.854034423828125	-0.0004891357421875	237.038078401536
0.849609375	-0.000502471923828125	237.923088399302
0.845184326171875	-0.0005147705078125	238.808098397068
0.84075927734375	-0.000525726318359375	239.693108394833
0.836334228515625	-0.000536224365234375	240.578118392599
0.8319091796875	-0.0005460205078125	241.463128390364
0.827484130859375	-0.000555328369140625	242.34813838813
0.82305908203125	-0.00056402587890625	243.233148385895
0.818634033203125	-0.000571685791015625	244.118158383661
0.814208984375	-0.000578857421875	245.003168381426
0.809783935546875	-0.00058648681640625	245.888178379192
0.80535888671875	-0.00059344482421875	246.773188376958
0.800933837890625	-0.00059967041015625	247.658198374723
0.7965087890625	-0.00060601806640625	248.543208372489
0.792083740234375	-0.00061126708984375	249.428218370254
0.78765869140625	-0.000616455078125	250.31322836802
0.783233642578125	-0.0006219482421875	251.198238365785
0.77880859375	-0.0006268310546875	252.083248363551
0.774383544921875	-0.0006317138671875	252.968258361317
0.76995849609375	-0.00063629150390625	253.853268359082
0.765533447265625	-0.00064056396484375	254.738278356848
0.7611083984375	-0.00064453125	255.623288354613
0.756683349609375	-0.00064910888671875	256.508298352379
0.75225830078125	-0.00065277099609375	257.393308350144
0.747833251953125	-0.00065673828125	258.27831834791
0.743408203125	-0.000660400390625	259.163328345675
0.738983154296875	-0.00066253662109375	260.048338343441
0.73455810546875	-0.00066650390625	260.933348341207
0.730133056640625	-0.000670166015625	261.818358338972
0.7257080078125	-0.0006732177734375	262.703368336738
0.721282958984375	-0.00067657470703125	263.588378334503
0.71685791015625	-0.000679931640625	264.473388332269
0.712432861328125	-0.00068267822265625	265.358398330034
0.7080078125	-0.00068572998046875	266.2434083278
0.703582763671875	-0.00068878173828125	267.128418325566
0.69915771484375	-0.00069122314453125	268.013428323331
0.694732666015625	-0.00069427490234375	268.898438321097
0.6903076171875	-0.000697021484375	269.783448318862
0.685882568359375	-0.00069976806640625	270.668458316628
0.68145751953125	-0.0007025146484375	271.553468314393
0.677032470703125	-0.00070556640625	272.438478312159
0.672607421875	-0.00070831298828125	273.323488309925
0.668182373046875	-0.00071075439453125	274.20849830769
0.66375732421875	-0.0007135009765625	275.093508305456
0.659332275390625	-0.0007159423828125	275.978518303221
0.6549072265625	-0.00071868896484375	276.863528300987
0.650482177734375	-0.00072113037109375	277.748538298752
0.64605712890625	-0.00072418212890625	278.633548296518
0.641632080078125	-0.00072723388671875	279.518558294283
0.63720703125	-0.00072967529296875	280.403568292049
0.632781982421875	-0.000732421875	281.288578289815
0.62835693359375	-0.00073486328125	282.17358828758
0.623931884765625	-0.00073974609375	283.058598285346
0.6195068359375	-0.0007421875	283.943608283111
0.615081787109375	-0.00074371337890625	284.828618280877
0.61065673828125	-0.00074615478515625	285.713628278642
0.606231689453125	-0.00074859619140625	286.598638276408
0.601806640625	-0.00075103759765625	287.483648274174
0.597381591796875	-0.0007537841796875	288.368658271939
0.59295654296875	-0.00075653076171875	289.253668269705
0.588531494140625	-0.0007598876953125	290.13867826747
0.5841064453125	-0.00076141357421875	291.023688265236
0.579681396484375	-0.00076446533203125	291.908698263001
0.57525634765625	-0.00076751708984375	292.793708260767
0.570831298828125	-0.00076995849609375	293.678718258533
0.56640625	-0.000772705078125	294.563728256298
0.561981201171875	-0.000775146484375	295.448738254064
0.55755615234375	-0.00077850341796875	296.333748251829
0.553131103515625	-0.00078125	297.218758249595
0.5487060546875	-0.00078399658203125	298.10376824736
0.544281005859375	-0.0007861328125	298.988778245126
0.53985595703125	-0.00078887939453125	299.873788242891
0.535430908203125	-0.00079132080078125	300.758798240657
0.531005859375	-0.000794677734375	301.643808238423
0.526580810546875	-0.0007977294921875	302.528818236188
0.52215576171875	-0.00080047607421875	303.413828233954
0.517730712890625	-0.00080322265625	304.298838231719
0.5133056640625	-0.0008062744140625	305.183848229485
0.508880615234375	-0.000809326171875	306.06885822725
0.50445556640625	-0.00081207275390625	306.953868225016
0.500030517578125	-0.00081512451171875	307.838878222782
0.49560546875	-0.00081787109375	308.723888220547
0.491180419921875	-0.00082122802734375	309.608898218313
0.48675537109375	-0.0008233642578125	310.493908216078
0.482330322265625	-0.000826416015625	311.378918213844
0.4779052734375	-0.00082855224609375	312.263928211609
0.473480224609375	-0.0008319091796875	313.148938209375
0.46905517578125	-0.00083465576171875	314.03394820714
0.464630126953125	-0.00083740234375	314.918958204906
0.460205078125	-0.00084014892578125	315.803968202672
0.455780029296875	-0.00084259033203125	316.688978200437
0.45135498046875	-0.0008453369140625	317.573988198203
0.446929931640625	-0.0008477783203125	318.458998195968
0.4425048828125	-0.00085052490234375	319.344008193734
0.438079833984375	-0.00085296630859375	320.229018191499
0.43365478515625	-0.00085540771484375	321.114028189265
0.429229736328125	-0.00085784912109375	321.999038187031
0.4248046875	-0.00086029052734375	322.884048184796
0.420379638671875	-0.00086334228515625	323.769058182562
0.41595458984375	-0.00086517333984375	324.654068180327
0.411529541015625	-0.00086761474609375	325.539078178093
0.4071044921875	-0.000870361328125	326.424088175858
0.402679443359375	-0.00087249755859375	327.309098173624
0.39825439453125	-0.00087554931640625	328.19410817139
0.393829345703125	-0.00087799072265625	329.079118169155
0.389404296875	-0.000880126953125	329.964128166921
0.384979248046875	-0.000882568359375	330.849138164686
0.38055419921875	-0.000885009765625	331.734148162452
0.376129150390625	-0.000887451171875	332.619158160217
