Potential applied (V)	WE(1).Current (A)	Time (s)
0.004425048828125	-0.00081146240234375	1213.36086893656
0.00885009765625	-0.00042376708984375	1213.80337393544
0.013275146484375	-9.0911865234375E-05	1214.24587893432
0.0177001953125	0.000197479248046875	1214.68838393321
0.022125244140625	0.0004476318359375	1215.13088893209
0.02655029296875	0.00066650390625	1215.57339393097
0.030975341796875	0.000858154296875	1216.01589892985
0.035400390625	0.0010247802734375	1216.45840392874
0.039825439453125	0.0011712646484375	1216.90090892762
0.04425048828125	0.0013006591796875	1217.3434139265
0.048675537109375	0.0014129638671875	1217.78591892539
0.0531005859375	0.00151214599609375	1218.22842392427
0.057525634765625	0.00159881591796875	1218.67092892315
0.06195068359375	0.0016741943359375	1219.11343392203
0.066375732421875	0.00173980712890625	1219.55593892092
0.07080078125	0.0017950439453125	1219.9984439198
0.075225830078125	0.00184356689453125	1220.44094891868
0.07965087890625	0.0018853759765625	1220.88345391757
0.084075927734375	0.00192138671875	1221.32595891645
0.0885009765625	0.0019512939453125	1221.76846391533
0.092926025390625	0.00197723388671875	1222.21096891421
0.09735107421875	0.0019976806640625	1222.6534739131
0.101776123046875	0.00201507568359375	1223.09597891198
0.106201171875	0.00202880859375	1223.53848391086
0.110626220703125	0.0020391845703125	1223.98098890975
0.11505126953125	0.002047119140625	1224.42349390863
0.119476318359375	0.00205230712890625	1224.86599890751
0.1239013671875	0.0020556640625	1225.30850390639
0.128326416015625	0.00205718994140625	1225.75100890528
0.13275146484375	0.002056884765625	1226.19351390416
0.137176513671875	0.00205596923828125	1226.63601890304
0.1416015625	0.00205352783203125	1227.07852390192
0.146026611328125	0.0020501708984375	1227.52102890081
0.15045166015625	0.00204498291015625	1227.96353389969
0.154876708984375	0.00203857421875	1228.40603889857
0.1593017578125	0.00203125	1228.84854389746
0.163726806640625	0.002025146484375	1229.29104889634
0.16815185546875	0.0020166015625	1229.73355389522
0.172576904296875	0.002008056640625	1230.1760588941
0.177001953125	0.0019989013671875	1230.61856389299
0.181427001953125	0.00198974609375	1231.06106889187
0.18585205078125	0.001981201171875	1231.50357389075
0.190277099609375	0.0019720458984375	1231.94607888964
0.1947021484375	0.0019622802734375	1232.38858388852
0.199127197265625	0.00195159912109375	1232.8310888874
0.20355224609375	0.00194244384765625	1233.27359388628
0.207977294921875	0.00193450927734375	1233.71609888517
0.21240234375	0.001925048828125	1234.15860388405
0.216827392578125	0.0019140625	1234.60110888293
0.22125244140625	0.00190460205078125	1235.04361388181
0.225677490234375	0.00189453125	1235.4861188807
0.2301025390625	0.001884765625	1235.92862387958
0.234527587890625	0.00187530517578125	1236.37112887846
0.23895263671875	0.0018670654296875	1236.81363387735
0.243377685546875	0.00185760498046875	1237.25613887623
0.247802734375	0.00184906005859375	1237.69864387511
0.252227783203125	0.00183990478515625	1238.14114887399
0.25665283203125	0.001832275390625	1238.58365387288
0.261077880859375	0.00182373046875	1239.02615887176
0.2655029296875	0.001815185546875	1239.46866387064
0.269927978515625	0.00180755615234375	1239.91116886953
0.27435302734375	0.00179901123046875	1240.35367386841
0.278778076171875	0.0017919921875	1240.79617886729
0.283203125	0.0017840576171875	1241.23868386617
0.287628173828125	0.00177734375	1241.68118886506
0.29205322265625	0.00177093505859375	1242.12369386394
0.296478271484375	0.0017633056640625	1242.56619886282
0.3009033203125	0.0017572021484375	1243.0087038617
0.305328369140625	0.0017510986328125	1243.45120886059
0.30975341796875	0.0017449951171875	1243.89371385947
0.314178466796875	0.00174163818359375	1244.33621885835
0.318603515625	0.00173614501953125	1244.77872385724
0.323028564453125	0.00173004150390625	1245.22122885612
0.32745361328125	0.00172454833984375	1245.663733855
0.331878662109375	0.0017193603515625	1246.10623885388
0.3363037109375	0.0017144775390625	1246.54874385277
0.340728759765625	0.00170928955078125	1246.99124885165
0.34515380859375	0.001705322265625	1247.43375385053
0.349578857421875	0.001700439453125	1247.87625884942
0.35400390625	0.00169525146484375	1248.3187638483
0.358428955078125	0.0016912841796875	1248.76126884718
0.36285400390625	0.001688232421875	1249.20377384606
0.367279052734375	0.0016845703125	1249.64627884495
0.3717041015625	0.001680908203125	1250.08878384383
0.376129150390625	0.0016778564453125	1250.53128884271
0.38055419921875	0.00167510986328125	1250.97379384159
0.384979248046875	0.00167144775390625	1251.41629884048
0.389404296875	0.00166839599609375	1251.85880383936
0.393829345703125	0.00166473388671875	1252.30130883824
0.39825439453125	0.00166168212890625	1252.74381383713
0.402679443359375	0.0016583251953125	1253.18631883601
0.4071044921875	0.001656494140625	1253.62882383489
0.411529541015625	0.00165374755859375	1254.07132883377
0.41595458984375	0.00165130615234375	1254.51383383266
0.420379638671875	0.0016485595703125	1254.95633883154
0.4248046875	0.00164520263671875	1255.39884383042
0.429229736328125	0.00164306640625	1255.84134882931
0.43365478515625	0.00164154052734375	1256.28385382819
0.438079833984375	0.00163970947265625	1256.72635882707
0.4425048828125	0.0016375732421875	1257.16886382595
0.446929931640625	0.00163543701171875	1257.61136882484
0.45135498046875	0.0016339111328125	1258.05387382372
0.455780029296875	0.00163238525390625	1258.4963788226
0.460205078125	0.00163055419921875	1258.93888382148
0.464630126953125	0.001629638671875	1259.38138882037
0.46905517578125	0.0016265869140625	1259.82389381925
0.473480224609375	0.0016259765625	1260.26639881813
0.4779052734375	0.00162445068359375	1260.70890381702
0.482330322265625	0.00162322998046875	1261.1514088159
0.48675537109375	0.0016229248046875	1261.59391381478
0.491180419921875	0.00162109375	1262.03641881366
0.49560546875	0.00162017822265625	1262.47892381255
0.500030517578125	0.0016192626953125	1262.92142881143
0.50445556640625	0.00161895751953125	1263.36393381031
0.508880615234375	0.0016180419921875	1263.8064388092
0.5133056640625	0.0016180419921875	1264.24894380808
0.517730712890625	0.00161712646484375	1264.69144880696
0.52215576171875	0.0016168212890625	1265.13395380584
0.526580810546875	0.00161651611328125	1265.57645880473
0.531005859375	0.00161590576171875	1266.01896380361
0.535430908203125	0.0016156005859375	1266.46146880249
0.53985595703125	0.00161529541015625	1266.90397380137
0.544281005859375	0.0016156005859375	1267.34647880026
0.5487060546875	0.00161468505859375	1267.78898379914
0.553131103515625	0.001614990234375	1268.23148879802
0.55755615234375	0.00161529541015625	1268.67399379691
0.561981201171875	0.0016162109375	1269.11649879579
0.56640625	0.00161712646484375	1269.55900379467
0.570831298828125	0.00161712646484375	1270.00150879355
0.57525634765625	0.0016180419921875	1270.44401379244
0.579681396484375	0.0016192626953125	1270.88651879132
0.5841064453125	0.00162017822265625	1271.3290237902
0.588531494140625	0.0016204833984375	1271.77152878909
0.59295654296875	0.00162261962890625	1272.21403378797
0.597381591796875	0.0016241455078125	1272.65653878685
0.601806640625	0.00162689208984375	1273.09904378573
0.606231689453125	0.00162841796875	1273.54154878462
0.61065673828125	0.0016302490234375	1273.9840537835
0.615081787109375	0.0016326904296875	1274.42655878238
0.6195068359375	0.00163482666015625	1274.86906378127
0.623931884765625	0.0016363525390625	1275.31156878015
0.62835693359375	0.00164215087890625	1275.75407377903
0.632781982421875	0.001644287109375	1276.19657877791
0.63720703125	0.00164642333984375	1276.6390837768
0.641632080078125	0.00165008544921875	1277.08158877568
0.64605712890625	0.0016534423828125	1277.52409377456
0.650482177734375	0.001656494140625	1277.96659877344
0.6549072265625	0.00166015625	1278.40910377233
0.659332275390625	0.00166351318359375	1278.85160877121
0.66375732421875	0.00166656494140625	1279.29411377009
0.668182373046875	0.001671142578125	1279.73661876898
0.672607421875	0.0016754150390625	1280.17912376786
0.677032470703125	0.0016796875	1280.62162876674
0.68145751953125	0.0016845703125	1281.06413376562
0.685882568359375	0.00168914794921875	1281.50663876451
0.6903076171875	0.00169403076171875	1281.94914376339
0.694732666015625	0.00169952392578125	1282.39164876227
0.69915771484375	0.00170440673828125	1282.83415376115
0.703582763671875	0.00170928955078125	1283.27665876004
0.7080078125	0.001715087890625	1283.71916375892
0.712432861328125	0.00172119140625	1284.1616687578
0.71685791015625	0.0017279052734375	1284.60417375669
0.721282958984375	0.00173370361328125	1285.04667875557
0.7257080078125	0.00174072265625	1285.48918375445
0.730133056640625	0.00174713134765625	1285.93168875333
0.73455810546875	0.00175445556640625	1286.37419375222
0.738983154296875	0.0017626953125	1286.8166987511
0.743408203125	0.00176910400390625	1287.25920374998
0.747833251953125	0.001778564453125	1287.70170874887
0.75225830078125	0.0017864990234375	1288.14421374775
0.756683349609375	0.00179473876953125	1288.58671874663
0.7611083984375	0.00180419921875	1289.02922374551
0.765533447265625	0.00181304931640625	1289.4717287444
0.76995849609375	0.00182281494140625	1289.91423374328
0.774383544921875	0.00183319091796875	1290.35673874216
0.77880859375	0.0018438720703125	1290.79924374105
0.783233642578125	0.0018548583984375	1291.24174873993
0.78765869140625	0.00186614990234375	1291.68425373881
0.792083740234375	0.0018780517578125	1292.12675873769
0.7965087890625	0.001890869140625	1292.56926373658
0.800933837890625	0.001903076171875	1293.01176873546
0.80535888671875	0.00191619873046875	1293.45427373434
0.809783935546875	0.001929931640625	1293.89677873322
0.814208984375	0.00194427490234375	1294.33928373211
0.818634033203125	0.0019598388671875	1294.78178873099
0.82305908203125	0.0019744873046875	1295.22429372987
0.827484130859375	0.001990966796875	1295.66679872876
0.8319091796875	0.0020074462890625	1296.10930372764
0.836334228515625	0.002025146484375	1296.55180872652
0.84075927734375	0.002042236328125	1296.9943137254
0.845184326171875	0.002061767578125	1297.43681872429
0.849609375	0.00208160400390625	1297.87932372317
0.854034423828125	0.00210205078125	1298.32182872205
0.85845947265625	0.002122802734375	1298.76433372094
0.862884521484375	0.0021441650390625	1299.20683871982
0.8673095703125	0.00216705322265625	1299.6493437187
0.871734619140625	0.0021905517578125	1300.09184871758
0.87615966796875	0.002215576171875	1300.53435371647
0.880584716796875	0.0022412109375	1300.97685871535
0.885009765625	0.00226776123046875	1301.41936371423
0.889434814453125	0.00229583740234375	1301.86186871311
0.89385986328125	0.00232421875	1302.304373712
0.898284912109375	0.00235321044921875	1302.74687871088
0.9027099609375	0.00238250732421875	1303.18938370976
0.907135009765625	0.0024151611328125	1303.63188870865
0.91156005859375	0.0024468994140625	1304.07439370753
0.915985107421875	0.0024810791015625	1304.51689870641
0.92041015625	0.0025164794921875	1304.95940370529
0.924835205078125	0.00255279541015625	1305.40190870418
0.92926025390625	0.0025921630859375	1305.84441370306
0.933685302734375	0.0026318359375	1306.28691870194
0.9381103515625	0.00267547607421875	1306.72942370083
0.942535400390625	0.0027178955078125	1307.17192869971
0.94696044921875	0.002762451171875	1307.61443369859
0.951385498046875	0.00280975341796875	1308.05693869747
0.955810546875	0.00285888671875	1308.49944369636
0.960235595703125	0.00291046142578125	1308.94194869524
0.96466064453125	0.0029638671875	1309.38445369412
0.969085693359375	0.00301910400390625	1309.826958693
0.9735107421875	0.0030780029296875	1310.26946369189
0.977935791015625	0.0031396484375	1310.71196869077
0.98236083984375	0.0032049560546875	1311.15447368965
0.986785888671875	0.00327362060546875	1311.59697868854
0.9912109375	0.0033447265625	1312.03948368742
0.995635986328125	0.003421630859375	1312.4819886863
1.00006103515625	0.00350250244140625	1312.92449368518
0.995635986328125	0.0029791259765625	1313.36699868407
0.9912109375	0.002547607421875	1313.80950368295
0.986785888671875	0.00217742919921875	1314.25200868183
0.98236083984375	0.00185455322265625	1314.69451368072
0.977935791015625	0.00156768798828125	1315.1370186796
0.9735107421875	0.0013116455078125	1315.57952367848
0.969085693359375	0.0010791015625	1316.02202867736
0.96466064453125	0.000867919921875	1316.46453367625
0.960235595703125	0.000675048828125	1316.90703867513
0.955810546875	0.00049957275390625	1317.34954367401
0.951385498046875	0.000339141845703125	1317.79204867289
0.94696044921875	0.000192657470703125	1318.23455367178
0.942535400390625	5.8502197265625E-05	1318.67705867066
0.9381103515625	-6.4422607421875E-05	1319.11956366954
0.933685302734375	-0.00017852783203125	1319.56206866843
0.92926025390625	-0.000280731201171875	1320.00457366731
0.924835205078125	-0.0003736572265625	1320.44707866619
0.92041015625	-0.000458709716796875	1320.88958366507
0.915985107421875	-0.00053570556640625	1321.33208866396
0.91156005859375	-0.000606292724609375	1321.77459366284
0.907135009765625	-0.00067047119140625	1322.21709866172
0.9027099609375	-0.000728759765625	1322.65960366061
0.898284912109375	-0.00078155517578125	1323.10210865949
0.89385986328125	-0.00082977294921875	1323.54461365837
0.889434814453125	-0.0008734130859375	1323.98711865725
0.885009765625	-0.00091339111328125	1324.42962365614
0.880584716796875	-0.0009490966796875	1324.87212865502
0.87615966796875	-0.000982666015625	1325.3146336539
0.871734619140625	-0.0010137939453125	1325.75713865278
0.8673095703125	-0.00104095458984375	1326.19964365167
0.862884521484375	-0.00106658935546875	1326.64214865055
0.85845947265625	-0.0010888671875	1327.08465364943
0.854034423828125	-0.00110992431640625	1327.52715864832
0.849609375	-0.00112945556640625	1327.9696636472
0.845184326171875	-0.00114776611328125	1328.41216864608
0.84075927734375	-0.00116455078125	1328.85467364496
0.836334228515625	-0.00118072509765625	1329.29717864385
0.8319091796875	-0.001195068359375	1329.73968364273
0.827484130859375	-0.00120819091796875	1330.18218864161
0.82305908203125	-0.001220703125	1330.6246936405
0.818634033203125	-0.00123260498046875	1331.06719863938
0.814208984375	-0.001243896484375	1331.50970363826
0.809783935546875	-0.00125396728515625	1331.95220863714
0.80535888671875	-0.001263427734375	1332.39471363603
0.800933837890625	-0.00127349853515625	1332.83721863491
0.7965087890625	-0.0012823486328125	1333.27972363379
0.792083740234375	-0.001290283203125	1333.72222863268
0.78765869140625	-0.001298828125	1334.16473363156
0.783233642578125	-0.00130645751953125	1334.60723863044
0.77880859375	-0.0013134765625	1335.04974362932
0.774383544921875	-0.00132110595703125	1335.49224862821
0.76995849609375	-0.0013275146484375	1335.93475362709
0.765533447265625	-0.00133453369140625	1336.37725862597
0.7611083984375	-0.00134185791015625	1336.81976362485
0.756683349609375	-0.0013482666015625	1337.26226862374
0.75225830078125	-0.00135406494140625	1337.70477362262
0.747833251953125	-0.0013604736328125	1338.1472786215
0.743408203125	-0.001365966796875	1338.58978362039
0.738983154296875	-0.001370849609375	1339.03228861927
0.73455810546875	-0.00137725830078125	1339.47479361815
0.730133056640625	-0.001383056640625	1339.91729861703
0.7257080078125	-0.0013885498046875	1340.35980361592
0.721282958984375	-0.0013934326171875	1340.8023086148
0.71685791015625	-0.00139923095703125	1341.24481361368
0.712432861328125	-0.0014044189453125	1341.68731861257
0.7080078125	-0.0014093017578125	1342.12982361145
0.703582763671875	-0.00141448974609375	1342.57232861033
0.69915771484375	-0.0014190673828125	1343.01483360921
0.694732666015625	-0.001424560546875	1343.4573386081
0.6903076171875	-0.00143035888671875	1343.89984360698
0.685882568359375	-0.00143524169921875	1344.34234860586
0.68145751953125	-0.00144073486328125	1344.78485360474
0.677032470703125	-0.0014453125	1345.22735860363
0.672607421875	-0.0014501953125	1345.66986360251
0.668182373046875	-0.00145538330078125	1346.11236860139
0.66375732421875	-0.00146026611328125	1346.55487360028
0.659332275390625	-0.00146636962890625	1346.99737859916
0.6549072265625	-0.00147064208984375	1347.43988359804
0.650482177734375	-0.00147552490234375	1347.88238859692
0.64605712890625	-0.0014801025390625	1348.32489359581
0.641632080078125	-0.00148590087890625	1348.76739859469
0.63720703125	-0.0014910888671875	1349.20990359357
0.632781982421875	-0.0014959716796875	1349.65240859246
0.62835693359375	-0.0015008544921875	1350.09491359134
0.623931884765625	-0.0015081787109375	1350.53741859022
0.6195068359375	-0.0015130615234375	1350.9799235891
0.615081787109375	-0.0015179443359375	1351.42242858799
0.61065673828125	-0.00152252197265625	1351.86493358687
0.606231689453125	-0.00152679443359375	1352.30743858575
0.601806640625	-0.001531982421875	1352.74994358463
0.597381591796875	-0.00153717041015625	1353.19244858352
0.59295654296875	-0.00154144287109375	1353.6349535824
0.588531494140625	-0.001546630859375	1354.07745858128
0.5841064453125	-0.0015496826171875	1354.51996358017
0.579681396484375	-0.00155548095703125	1354.96246857905
0.57525634765625	-0.00156097412109375	1355.40497357793
0.570831298828125	-0.00156524658203125	1355.84747857681
0.56640625	-0.001571044921875	1356.2899835757
0.561981201171875	-0.001575927734375	1356.73248857458
0.55755615234375	-0.00158172607421875	1357.17499357346
0.553131103515625	-0.00158660888671875	1357.61749857235
0.5487060546875	-0.00159210205078125	1358.06000357123
0.544281005859375	-0.00159637451171875	1358.50250857011
0.53985595703125	-0.0016021728515625	1358.94501356899
0.535430908203125	-0.0016070556640625	1359.38751856788
0.531005859375	-0.00161224365234375	1359.83002356676
0.526580810546875	-0.00161773681640625	1360.27252856564
0.52215576171875	-0.00162353515625	1360.71503356452
0.517730712890625	-0.001629638671875	1361.15753856341
0.5133056640625	-0.00163482666015625	1361.60004356229
0.508880615234375	-0.00164031982421875	1362.04254856117
0.50445556640625	-0.00164459228515625	1362.48505356006
0.500030517578125	-0.0016510009765625	1362.92755855894
0.49560546875	-0.00165679931640625	1363.37006355782
0.491180419921875	-0.0016619873046875	1363.8125685567
0.48675537109375	-0.00166778564453125	1364.25507355559
0.482330322265625	-0.00167327880859375	1364.69757855447
0.4779052734375	-0.001678466796875	1365.14008355335
0.473480224609375	-0.0016839599609375	1365.58258855224
0.46905517578125	-0.001689453125	1366.02509355112
0.464630126953125	-0.0016949462890625	1366.46759855
0.460205078125	-0.001700439453125	1366.91010354888
0.455780029296875	-0.0017059326171875	1367.35260854777
0.45135498046875	-0.0017120361328125	1367.79511354665
0.446929931640625	-0.00171722412109375	1368.23761854553
0.4425048828125	-0.00172271728515625	1368.68012354441
0.438079833984375	-0.00172821044921875	1369.1226285433
0.43365478515625	-0.00173370361328125	1369.56513354218
0.429229736328125	-0.001739501953125	1370.00763854106
0.4248046875	-0.00174530029296875	1370.45014353995
0.420379638671875	-0.0017510986328125	1370.89264853883
0.41595458984375	-0.0017559814453125	1371.33515353771
0.411529541015625	-0.0017620849609375	1371.77765853659
0.4071044921875	-0.001767578125	1372.22016353548
0.402679443359375	-0.0017724609375	1372.66266853436
0.39825439453125	-0.00177764892578125	1373.10517353324
0.393829345703125	-0.001783447265625	1373.54767853213
0.389404296875	-0.001788330078125	1373.99018353101
0.384979248046875	-0.0017938232421875	1374.43268852989
0.38055419921875	-0.00179901123046875	1374.87519352877
0.376129150390625	-0.00180511474609375	1375.31769852766
0.3717041015625	-0.00181060791015625	1375.76020352654
