Potential applied (V)	WE(1).Current (A)	Time (s)
0.004425048828125	-0.0015057373046875	1816.39942841403
0.00885009765625	-0.001087646484375	1816.62068041347
0.013275146484375	-0.000703125	1816.84193241291
0.0177001953125	-0.00034765625	1817.06318441236
0.022125244140625	-1.7724609375E-05	1817.2844364118
0.02655029296875	0.000289764404296875	1817.50568841124
0.030975341796875	0.000576171875	1817.72694041068
0.035400390625	0.0008428955078125	1817.94819241012
0.039825439453125	0.00109222412109375	1818.16944440956
0.04425048828125	0.0013250732421875	1818.390696409
0.048675537109375	0.0015411376953125	1818.61194840845
0.0531005859375	0.001744384765625	1818.83320040789
0.057525634765625	0.001934814453125	1819.05445240733
0.06195068359375	0.00211181640625	1819.27570440677
0.066375732421875	0.00227569580078125	1819.49695640621
0.07080078125	0.0024285888671875	1819.71820840565
0.075225830078125	0.00257049560546875	1819.93946040509
0.07965087890625	0.002701416015625	1820.16071240454
0.084075927734375	0.0028253173828125	1820.38196440398
0.0885009765625	0.00294158935546875	1820.60321640342
0.092926025390625	0.003048095703125	1820.82446840286
0.09735107421875	0.0031475830078125	1821.0457204023
0.101776123046875	0.0032391357421875	1821.26697240174
0.106201171875	0.003323974609375	1821.48822440118
0.110626220703125	0.00340240478515625	1821.70947640063
0.11505126953125	0.0034735107421875	1821.93072840007
0.119476318359375	0.00353729248046875	1822.15198039951
0.1239013671875	0.00359832763671875	1822.37323239895
0.128326416015625	0.00365325927734375	1822.59448439839
0.13275146484375	0.00370208740234375	1822.81573639783
0.137176513671875	0.00374664306640625	1823.03698839727
0.1416015625	0.003787841796875	1823.25824039672
0.146026611328125	0.00382354736328125	1823.47949239616
0.15045166015625	0.0038568115234375	1823.7007443956
0.154876708984375	0.00388580322265625	1823.92199639504
0.1593017578125	0.003909912109375	1824.14324839448
0.163726806640625	0.00393218994140625	1824.36450039392
0.16815185546875	0.00394866943359375	1824.58575239336
0.172576904296875	0.0039654541015625	1824.80700439281
0.177001953125	0.003978271484375	1825.02825639225
0.181427001953125	0.00398773193359375	1825.24950839169
0.18585205078125	0.003995361328125	1825.47076039113
0.190277099609375	0.00400054931640625	1825.69201239057
0.1947021484375	0.00400421142578125	1825.91326439001
0.199127197265625	0.00400604248046875	1826.13451638945
0.20355224609375	0.00400665283203125	1826.35576838889
0.207977294921875	0.0040045166015625	1826.57702038834
0.21240234375	0.00400054931640625	1826.79827238778
0.216827392578125	0.00399627685546875	1827.01952438722
0.22125244140625	0.003990478515625	1827.24077638666
0.225677490234375	0.003983154296875	1827.4620283861
0.2301025390625	0.0039739990234375	1827.68328038554
0.234527587890625	0.00396697998046875	1827.90453238498
0.23895263671875	0.00395599365234375	1828.12578438443
0.243377685546875	0.003944091796875	1828.34703638387
0.247802734375	0.00393218994140625	1828.56828838331
0.252227783203125	0.003919677734375	1828.78954038275
0.25665283203125	0.00390899658203125	1829.01079238219
0.261077880859375	0.003896484375	1829.23204438163
0.2655029296875	0.00388275146484375	1829.45329638107
0.269927978515625	0.00386932373046875	1829.67454838052
0.27435302734375	0.003856201171875	1829.89580037996
0.278778076171875	0.00384124755859375	1830.1170523794
0.283203125	0.003826904296875	1830.33830437884
0.287628173828125	0.0038128662109375	1830.55955637828
0.29205322265625	0.00379913330078125	1830.78080837772
0.296478271484375	0.00378509521484375	1831.00206037716
0.3009033203125	0.00376983642578125	1831.22331237661
0.305328369140625	0.0037548828125	1831.44456437605
0.30975341796875	0.0037396240234375	1831.66581637549
0.314178466796875	0.00372833251953125	1831.88706837493
0.318603515625	0.003714599609375	1832.10832037437
0.323028564453125	0.003701171875	1832.32957237381
0.32745361328125	0.00368621826171875	1832.55082437325
0.331878662109375	0.0036724853515625	1832.7720763727
0.3363037109375	0.00365997314453125	1832.99332837214
0.340728759765625	0.00364654541015625	1833.21458037158
0.34515380859375	0.0036334228515625	1833.43583237102
0.349578857421875	0.0036212158203125	1833.65708437046
0.35400390625	0.0036065673828125	1833.8783363699
0.358428955078125	0.0035943603515625	1834.09958836934
0.36285400390625	0.0035833740234375	1834.32084036878
0.367279052734375	0.00357269287109375	1834.54209236823
0.3717041015625	0.0035601806640625	1834.76334436767
0.376129150390625	0.0035504150390625	1834.98459636711
0.38055419921875	0.0035400390625	1835.20584836655
0.384979248046875	0.003529052734375	1835.42710036599
0.389404296875	0.003519287109375	1835.64835236543
0.393829345703125	0.00350830078125	1835.86960436487
0.39825439453125	0.00349822998046875	1836.09085636432
0.402679443359375	0.00348876953125	1836.31210836376
0.4071044921875	0.00347900390625	1836.5333603632
0.411529541015625	0.0034710693359375	1836.75461236264
0.41595458984375	0.0034625244140625	1836.97586436208
0.420379638671875	0.00345306396484375	1837.19711636152
0.4248046875	0.0034454345703125	1837.41836836096
0.429229736328125	0.00343719482421875	1837.63962036041
0.43365478515625	0.00342803955078125	1837.86087235985
0.438079833984375	0.0034210205078125	1838.08212435929
0.4425048828125	0.00341400146484375	1838.30337635873
0.446929931640625	0.0034063720703125	1838.52462835817
0.45135498046875	0.00339996337890625	1838.74588035761
0.455780029296875	0.0033929443359375	1838.96713235705
0.460205078125	0.0033856201171875	1839.1883843565
0.464630126953125	0.00337890625	1839.40963635594
0.46905517578125	0.0033721923828125	1839.63088835538
0.473480224609375	0.00336517333984375	1839.85214035482
0.4779052734375	0.00335968017578125	1840.07339235426
0.482330322265625	0.0033544921875	1840.2946443537
0.48675537109375	0.00334869384765625	1840.51589635314
0.491180419921875	0.0033428955078125	1840.73714835259
0.49560546875	0.00333831787109375	1840.95840035203
0.500030517578125	0.00333343505859375	1841.17965235147
0.50445556640625	0.003328857421875	1841.40090435091
0.508880615234375	0.00332366943359375	1841.62215635035
0.5133056640625	0.00331817626953125	1841.84340834979
0.517730712890625	0.00331390380859375	1842.06466034923
0.52215576171875	0.00331146240234375	1842.28591234868
0.526580810546875	0.00330718994140625	1842.50716434812
0.531005859375	0.00330230712890625	1842.72841634756
0.535430908203125	0.00329864501953125	1842.949668347
0.53985595703125	0.00329345703125	1843.17092034644
0.544281005859375	0.0032904052734375	1843.39217234588
0.5487060546875	0.0032861328125	1843.61342434532
0.553131103515625	0.00328399658203125	1843.83467634476
0.55755615234375	0.00328033447265625	1844.05592834421
0.561981201171875	0.0032781982421875	1844.27718034365
0.56640625	0.0032745361328125	1844.49843234309
0.570831298828125	0.0032733154296875	1844.71968434253
0.57525634765625	0.003271484375	1844.94093634197
0.579681396484375	0.0032696533203125	1845.16218834141
0.5841064453125	0.00326751708984375	1845.38344034085
0.588531494140625	0.00326446533203125	1845.6046923403
0.59295654296875	0.00326263427734375	1845.82594433974
0.597381591796875	0.00326080322265625	1846.04719633918
0.601806640625	0.00325958251953125	1846.26844833862
0.606231689453125	0.00325836181640625	1846.48970033806
0.61065673828125	0.0032586669921875	1846.7109523375
0.615081787109375	0.00325714111328125	1846.93220433694
0.6195068359375	0.00325714111328125	1847.15345633639
0.623931884765625	0.00325653076171875	1847.37470833583
0.62835693359375	0.00325958251953125	1847.59596033527
0.632781982421875	0.00325927734375	1847.81721233471
0.63720703125	0.00325897216796875	1848.03846433415
0.641632080078125	0.0032598876953125	1848.25971633359
0.64605712890625	0.00326019287109375	1848.48096833303
0.650482177734375	0.00326324462890625	1848.70222033248
0.6549072265625	0.0032635498046875	1848.92347233192
0.659332275390625	0.00326416015625	1849.14472433136
0.66375732421875	0.0032672119140625	1849.3659763308
0.668182373046875	0.0032696533203125	1849.58722833024
0.672607421875	0.00327239990234375	1849.80848032968
0.677032470703125	0.00327606201171875	1850.02973232912
0.68145751953125	0.00327850341796875	1850.25098432857
0.685882568359375	0.00328155517578125	1850.47223632801
0.6903076171875	0.00328460693359375	1850.69348832745
0.694732666015625	0.00328765869140625	1850.91474032689
0.69915771484375	0.003292236328125	1851.13599232633
0.703582763671875	0.00329437255859375	1851.35724432577
0.7080078125	0.00329986572265625	1851.57849632521
0.712432861328125	0.0033038330078125	1851.79974832465
0.71685791015625	0.003309326171875	1852.0210003241
0.721282958984375	0.00331451416015625	1852.24225232354
0.7257080078125	0.0033203125	1852.46350432298
0.730133056640625	0.0033270263671875	1852.68475632242
0.73455810546875	0.00333251953125	1852.90600832186
0.738983154296875	0.00334014892578125	1853.1272603213
0.743408203125	0.003345947265625	1853.34851232074
0.747833251953125	0.00335296630859375	1853.56976432019
0.75225830078125	0.00336029052734375	1853.79101631963
0.756683349609375	0.0033685302734375	1854.01226831907
0.7611083984375	0.00337677001953125	1854.23352031851
0.765533447265625	0.00338592529296875	1854.45477231795
0.76995849609375	0.00339508056640625	1854.67602431739
0.774383544921875	0.00340484619140625	1854.89727631683
0.77880859375	0.0034149169921875	1855.11852831628
0.783233642578125	0.00342437744140625	1855.33978031572
0.78765869140625	0.00343475341796875	1855.56103231516
0.792083740234375	0.003446044921875	1855.7822843146
0.7965087890625	0.00345794677734375	1856.00353631404
0.800933837890625	0.003470458984375	1856.22478831348
0.80535888671875	0.00348480224609375	1856.44604031292
0.809783935546875	0.003497314453125	1856.66729231237
0.814208984375	0.0035107421875	1856.88854431181
0.818634033203125	0.00352691650390625	1857.10979631125
0.82305908203125	0.003541259765625	1857.33104831069
0.827484130859375	0.00355712890625	1857.55230031013
0.8319091796875	0.00357391357421875	1857.77355230957
0.836334228515625	0.003590087890625	1857.99480430901
0.84075927734375	0.00360809326171875	1858.21605630846
0.845184326171875	0.00362579345703125	1858.4373083079
0.849609375	0.00364501953125	1858.65856030734
0.854034423828125	0.0036651611328125	1858.87981230678
0.85845947265625	0.00368621826171875	1859.10106430622
0.862884521484375	0.003707275390625	1859.32231630566
0.8673095703125	0.00373046875	1859.5435683051
0.871734619140625	0.0037530517578125	1859.76482030455
0.87615966796875	0.00377777099609375	1859.98607230399
0.880584716796875	0.00380279541015625	1860.20732430343
0.885009765625	0.003829345703125	1860.42857630287
0.889434814453125	0.00385650634765625	1860.64982830231
0.89385986328125	0.00388458251953125	1860.87108030175
0.898284912109375	0.00391326904296875	1861.09233230119
0.9027099609375	0.00394561767578125	1861.31358430063
0.907135009765625	0.0039776611328125	1861.53483630008
0.91156005859375	0.0040087890625	1861.75608829952
0.915985107421875	0.00404296875	1861.97734029896
0.92041015625	0.004078369140625	1862.1985922984
0.924835205078125	0.0041156005859375	1862.41984429784
0.92926025390625	0.00415283203125	1862.64109629728
0.933685302734375	0.00419189453125	1862.86234829672
0.9381103515625	0.00423492431640625	1863.08360029617
0.942535400390625	0.004276123046875	1863.30485229561
0.94696044921875	0.00431854248046875	1863.52610429505
0.951385498046875	0.00436309814453125	1863.74735629449
0.955810546875	0.00441070556640625	1863.96860829393
0.960235595703125	0.004459228515625	1864.18986029337
0.96466064453125	0.0045086669921875	1864.41111229281
0.969085693359375	0.00456146240234375	1864.63236429226
0.9735107421875	0.004615478515625	1864.8536162917
0.977935791015625	0.00466949462890625	1865.07486829114
0.98236083984375	0.0047296142578125	1865.29612029058
0.986785888671875	0.004791259765625	1865.51737229002
0.9912109375	0.00485443115234375	1865.73862428946
0.995635986328125	0.004921875	1865.9598762889
1.00006103515625	0.004991455078125	1866.18112828835
0.995635986328125	0.00439483642578125	1866.40238028779
0.9912109375	0.00386688232421875	1866.62363228723
0.986785888671875	0.00339111328125	1866.84488428667
0.98236083984375	0.00295928955078125	1867.06613628611
0.977935791015625	0.002562255859375	1867.28738828555
0.9735107421875	0.0021978759765625	1867.50864028499
0.969085693359375	0.00185882568359375	1867.72989228444
0.96466064453125	0.0015435791015625	1867.95114428388
0.960235595703125	0.00125091552734375	1868.17239628332
0.955810546875	0.000977783203125	1868.39364828276
0.951385498046875	0.00072265625	1868.6149002822
0.94696044921875	0.000483184814453125	1868.83615228164
0.942535400390625	0.00025970458984375	1869.05740428108
0.9381103515625	5.0750732421875E-05	1869.27865628052
0.933685302734375	-0.000147216796875	1869.49990827997
0.92926025390625	-0.00033026123046875	1869.72116027941
0.924835205078125	-0.0005013427734375	1869.94241227885
0.92041015625	-0.000661468505859375	1870.16366427829
0.915985107421875	-0.00081024169921875	1870.38491627773
0.91156005859375	-0.00094940185546875	1870.60616827717
0.907135009765625	-0.0010791015625	1870.82742027661
0.9027099609375	-0.00119964599609375	1871.04867227606
0.898284912109375	-0.001312255859375	1871.2699242755
0.89385986328125	-0.001416015625	1871.49117627494
0.889434814453125	-0.00151336669921875	1871.71242827438
0.885009765625	-0.00160308837890625	1871.93368027382
0.880584716796875	-0.00168609619140625	1872.15493227326
0.87615966796875	-0.00176361083984375	1872.3761842727
0.871734619140625	-0.001834716796875	1872.59743627215
0.8673095703125	-0.00190093994140625	1872.81868827159
0.862884521484375	-0.00196197509765625	1873.03994027103
0.85845947265625	-0.00201751708984375	1873.26119227047
0.854034423828125	-0.0020697021484375	1873.48244426991
0.849609375	-0.00211822509765625	1873.70369626935
0.845184326171875	-0.00216278076171875	1873.92494826879
0.84075927734375	-0.00220367431640625	1874.14620026824
0.836334228515625	-0.00224212646484375	1874.36745226768
0.8319091796875	-0.00227691650390625	1874.58870426712
0.827484130859375	-0.00230987548828125	1874.80995626656
0.82305908203125	-0.002340087890625	1875.031208266
0.818634033203125	-0.0023675537109375	1875.25246026544
0.814208984375	-0.0023931884765625	1875.47371226488
0.809783935546875	-0.0024176025390625	1875.69496426433
0.80535888671875	-0.00244049072265625	1875.91621626377
0.800933837890625	-0.0024615478515625	1876.13746826321
0.7965087890625	-0.00248260498046875	1876.35872026265
0.792083740234375	-0.002501220703125	1876.57997226209
0.78765869140625	-0.00251861572265625	1876.80122426153
0.783233642578125	-0.00253570556640625	1877.02247626097
0.77880859375	-0.00255096435546875	1877.24372826042
0.774383544921875	-0.00256622314453125	1877.46498025986
0.76995849609375	-0.00258056640625	1877.6862322593
0.765533447265625	-0.002593994140625	1877.90748425874
0.7611083984375	-0.00260772705078125	1878.12873625818
0.756683349609375	-0.00262054443359375	1878.34998825762
0.75225830078125	-0.002633056640625	1878.57124025706
0.747833251953125	-0.0026434326171875	1878.7924922565
0.743408203125	-0.00265472412109375	1879.01374425595
0.738983154296875	-0.0026654052734375	1879.23499625539
0.73455810546875	-0.0026776123046875	1879.45624825483
0.730133056640625	-0.00268798828125	1879.67750025427
0.7257080078125	-0.002698974609375	1879.89875225371
0.721282958984375	-0.0027099609375	1880.12000425315
0.71685791015625	-0.00271881103515625	1880.34125625259
0.712432861328125	-0.00272918701171875	1880.56250825204
0.7080078125	-0.0027386474609375	1880.78376025148
0.703582763671875	-0.00274871826171875	1881.00501225092
0.69915771484375	-0.00275787353515625	1881.22626425036
0.694732666015625	-0.002767333984375	1881.4475162498
0.6903076171875	-0.0027777099609375	1881.66876824924
0.685882568359375	-0.00278839111328125	1881.89002024868
0.68145751953125	-0.0027978515625	1882.11127224813
0.677032470703125	-0.00280731201171875	1882.33252424757
0.672607421875	-0.00281768798828125	1882.55377624701
0.668182373046875	-0.0028265380859375	1882.77502824645
0.66375732421875	-0.0028350830078125	1882.99628024589
0.659332275390625	-0.0028448486328125	1883.21753224533
0.6549072265625	-0.00285308837890625	1883.43878424477
0.650482177734375	-0.00286224365234375	1883.66003624422
0.64605712890625	-0.002872314453125	1883.88128824366
0.641632080078125	-0.0028814697265625	1884.1025402431
0.63720703125	-0.0028912353515625	1884.32379224254
0.632781982421875	-0.00290008544921875	1884.54504424198
0.62835693359375	-0.00291168212890625	1884.76629624142
0.623931884765625	-0.002923583984375	1884.98754824086
0.6195068359375	-0.00293243408203125	1885.20880024031
0.615081787109375	-0.0029412841796875	1885.43005223975
0.61065673828125	-0.0029510498046875	1885.65130423919
0.606231689453125	-0.002958984375	1885.87255623863
0.601806640625	-0.002967529296875	1886.09380823807
0.597381591796875	-0.00297637939453125	1886.31506023751
0.59295654296875	-0.0029852294921875	1886.53631223695
0.588531494140625	-0.00299468994140625	1886.75756423639
0.5841064453125	-0.003001708984375	1886.97881623584
0.579681396484375	-0.00301177978515625	1887.20006823528
0.57525634765625	-0.0030206298828125	1887.42132023472
0.570831298828125	-0.003031005859375	1887.64257223416
0.56640625	-0.003040771484375	1887.8638242336
0.561981201171875	-0.0030499267578125	1888.08507623304
0.55755615234375	-0.0030596923828125	1888.30632823248
0.553131103515625	-0.00306915283203125	1888.52758023193
0.5487060546875	-0.00307830810546875	1888.74883223137
0.544281005859375	-0.00308685302734375	1888.97008423081
0.53985595703125	-0.00309661865234375	1889.19133623025
0.535430908203125	-0.003106689453125	1889.41258822969
0.531005859375	-0.00311767578125	1889.63384022913
0.526580810546875	-0.00312774658203125	1889.85509222857
0.52215576171875	-0.003135986328125	1890.07634422802
0.517730712890625	-0.00314605712890625	1890.29759622746
0.5133056640625	-0.00315582275390625	1890.5188482269
0.508880615234375	-0.0031658935546875	1890.74010022634
0.50445556640625	-0.00317596435546875	1890.96135222578
0.500030517578125	-0.00318695068359375	1891.18260422522
0.49560546875	-0.0031964111328125	1891.40385622466
0.491180419921875	-0.0032061767578125	1891.62510822411
0.48675537109375	-0.003216552734375	1891.84636022355
0.482330322265625	-0.003226318359375	1892.06761222299
0.4779052734375	-0.00323760986328125	1892.28886422243
0.473480224609375	-0.00324737548828125	1892.51011622187
0.46905517578125	-0.00325836181640625	1892.73136822131
0.464630126953125	-0.0032684326171875	1892.95262022075
0.460205078125	-0.00327850341796875	1893.1738722202
0.455780029296875	-0.00328887939453125	1893.39512421964
0.45135498046875	-0.00329986572265625	1893.61637621908
0.446929931640625	-0.0033099365234375	1893.83762821852
0.4425048828125	-0.00332061767578125	1894.05888021796
0.438079833984375	-0.00333251953125	1894.2801322174
0.43365478515625	-0.00334259033203125	1894.50138421684
0.429229736328125	-0.003353271484375	1894.72263621629
0.4248046875	-0.0033642578125	1894.94388821573
0.420379638671875	-0.003375244140625	1895.16514021517
0.41595458984375	-0.00338623046875	1895.38639221461
0.411529541015625	-0.0033953857421875	1895.60764421405
0.4071044921875	-0.00340576171875	1895.82889621349
0.402679443359375	-0.00341583251953125	1896.05014821293
0.39825439453125	-0.00342681884765625	1896.27140021237
0.393829345703125	-0.00343780517578125	1896.49265221182
0.389404296875	-0.00344696044921875	1896.71390421126
0.384979248046875	-0.00345916748046875	1896.9351562107
0.38055419921875	-0.00346893310546875	1897.15640821014
0.376129150390625	-0.003480224609375	1897.37766020958
0.3717041015625	-0.0034912109375	1897.59891220902
0.367279052734375	-0.00350189208984375	1897.82016420846
0.36285400390625	-0.0035125732421875	1898.04141620791
0.358428955078125	-0.00352294921875	1898.26266820735
0.35400390625	-0.00353515625	1898.48392020679
0.349578857421875	-0.0035443115234375	1898.70517220623
0.34515380859375	-0.00355560302734375	1898.92642420567
0.340728759765625	-0.00356658935546875	1899.14767620511
0.3363037109375	-0.0035772705078125	1899.36892820455
0.331878662109375	-0.0035882568359375	1899.590180204
0.32745361328125	-0.0035992431640625	1899.81143220344
0.323028564453125	-0.0036102294921875	1900.03268420288
0.318603515625	-0.003621826171875	1900.25393620232
0.314178466796875	-0.00363250732421875	1900.47518820176
0.30975341796875	-0.0036468505859375	1900.6964402012
0.305328369140625	-0.003658447265625	1900.91769220064
0.3009033203125	-0.003670654296875	1901.13894420009
0.296478271484375	-0.0036822509765625	1901.36019619953
0.29205322265625	-0.003692626953125	1901.58144819897
0.287628173828125	-0.00370513916015625	1901.80270019841
0.283203125	-0.00371734619140625	1902.02395219785
0.278778076171875	-0.00372894287109375	1902.24520419729
0.27435302734375	-0.00374114990234375	1902.46645619673
0.269927978515625	-0.00375274658203125	1902.68770819618
0.2655029296875	-0.0037646484375	1902.90896019562
0.261077880859375	-0.00377777099609375	1903.13021219506
0.25665283203125	-0.0037896728515625	1903.3514641945
0.252227783203125	-0.0038037109375	1903.57271619394
0.247802734375	-0.0038177490234375	1903.79396819338
0.243377685546875	-0.00383056640625	1904.01522019282
0.23895263671875	-0.00384368896484375	1904.23647219226
0.234527587890625	-0.003858642578125	1904.45772419171
0.2301025390625	-0.0038720703125	1904.67897619115
0.225677490234375	-0.00388519287109375	1904.90022819059
0.22125244140625	-0.0038983154296875	1905.12148019003
0.216827392578125	-0.00391326904296875	1905.34273218947
0.21240234375	-0.00392852783203125	1905.56398418891
0.207977294921875	-0.00394378662109375	1905.78523618835
0.20355224609375	-0.003958740234375	1906.0064881878
0.199127197265625	-0.00397369384765625	1906.22774018724
0.1947021484375	-0.0039898681640625	1906.44899218668
0.190277099609375	-0.00400543212890625	1906.67024418612
0.18585205078125	-0.004022216796875	1906.89149618556
0.181427001953125	-0.004039306640625	1907.112748185
0.177001953125	-0.00405609130859375	1907.33400018444
0.172576904296875	-0.00407257080078125	1907.55525218389
0.16815185546875	-0.004090576171875	1907.77650418333
0.163726806640625	-0.00410858154296875	1907.99775618277
0.1593017578125	-0.004127197265625	1908.21900818221
0.154876708984375	-0.00414459228515625	1908.44026018165
0.15045166015625	-0.0041644287109375	1908.66151218109
0.146026611328125	-0.0041827392578125	1908.88276418053
0.1416015625	-0.0042034912109375	1909.10401617998
0.137176513671875	-0.00422271728515625	1909.32526817942
0.13275146484375	-0.0042437744140625	1909.54652017886
0.128326416015625	-0.00426513671875	1909.7677721783
0.1239013671875	-0.0042852783203125	1909.98902417774
0.119476318359375	-0.00430755615234375	1910.21027617718
0.11505126953125	-0.0043267822265625	1910.43152817662
0.110626220703125	-0.00434967041015625	1910.65278017607
0.106201171875	-0.004371337890625	1910.87403217551
0.101776123046875	-0.0043939208984375	1911.09528417495
0.09735107421875	-0.00441741943359375	1911.31653617439
0.092926025390625	-0.004442138671875	1911.53778817383
0.0885009765625	-0.00446624755859375	1911.75904017327
0.084075927734375	-0.00449066162109375	1911.98029217271
0.07965087890625	-0.00451568603515625	1912.20154417216
0.075225830078125	-0.00454010009765625	1912.4227961716
0.07080078125	-0.00456512451171875	1912.64404817104
0.066375732421875	-0.004591064453125	1912.86530017048
0.06195068359375	-0.00461761474609375	1913.08655216992
0.057525634765625	-0.0046453857421875	1913.30780416936
0.0531005859375	-0.00467193603515625	1913.5290561688
0.048675537109375	-0.0047003173828125	1913.75030816824
0.04425048828125	-0.004727783203125	1913.97156016769
0.039825439453125	-0.0047564697265625	1914.19281216713
0.035400390625	-0.00478546142578125	1914.41406416657
0.030975341796875	-0.00481414794921875	1914.63531616601
0.02655029296875	-0.0048431396484375	1914.85656816545
0.022125244140625	-0.0048736572265625	1915.07782016489
0.0177001953125	-0.00490447998046875	1915.29907216433
0.013275146484375	-0.0049359130859375	1915.52032416378
0.00885009765625	-0.00496673583984375	1915.74157616322
0.004425048828125	-0.0049993896484375	1915.96282816266
0	-0.00503204345703125	1916.1840801621
0.004425048828125	-0.004375	1916.40533216154
0.00885009765625	-0.00377655029296875	1916.62658416098
0.013275146484375	-0.00322418212890625	1916.84783616042
0.0177001953125	-0.0027154541015625	1917.06908815987
0.022125244140625	-0.002242431640625	1917.29034015931
0.02655029296875	-0.0018035888671875	1917.51159215875
0.030975341796875	-0.001395263671875	1917.73284415819
0.035400390625	-0.00101409912109375	1917.95409615763
0.039825439453125	-0.0006585693359375	1918.17534815707
0.04425048828125	-0.00032666015625	1918.39660015651
0.048675537109375	-1.65618896484375E-05	1918.61785215596
0.0531005859375	0.000273651123046875	1918.8391041554
0.057525634765625	0.0005450439453125	1919.06035615484
0.06195068359375	0.00079833984375	1919.28160815428
0.066375732421875	0.00103607177734375	1919.50286015372
0.07080078125	0.0012579345703125	1919.72411215316
0.075225830078125	0.00146514892578125	1919.9453641526
0.07965087890625	0.00165802001953125	1920.16661615205
0.084075927734375	0.00183868408203125	1920.38786815149
0.0885009765625	0.00200714111328125	1920.60912015093
0.092926025390625	0.00216400146484375	1920.83037215037
0.09735107421875	0.0023095703125	1921.05162414981
0.101776123046875	0.00244384765625	1921.27287614925
0.106201171875	0.0025677490234375	1921.49412814869
0.110626220703125	0.002686767578125	1921.71538014813
0.11505126953125	0.00279754638671875	1921.93663214758
0.119476318359375	0.00289764404296875	1922.15788414702
0.1239013671875	0.002991943359375	1922.37913614646
0.128326416015625	0.00307861328125	1922.6003881459
0.13275146484375	0.0031585693359375	1922.82164014534
0.137176513671875	0.00323333740234375	1923.04289214478
0.1416015625	0.00330078125	1923.26414414422
0.146026611328125	0.00336334228515625	1923.48539614367
0.15045166015625	0.003419189453125	1923.70664814311
0.154876708984375	0.00346923828125	1923.92790014255
0.1593017578125	0.00351531982421875	1924.14915214199
0.163726806640625	0.00355682373046875	1924.37040414143
0.16815185546875	0.003594970703125	1924.59165614087
0.172576904296875	0.0036285400390625	1924.81290814031
0.177001953125	0.00365753173828125	1925.03416013976
0.181427001953125	0.00368377685546875	1925.2554121392
0.18585205078125	0.00370574951171875	1925.47666413864
0.190277099609375	0.00372650146484375	1925.69791613808
0.1947021484375	0.00374359130859375	1925.91916813752
0.199127197265625	0.0037579345703125	1926.14042013696
0.20355224609375	0.00377044677734375	1926.3616721364
0.207977294921875	0.0037799072265625	1926.58292413585
0.21240234375	0.0037872314453125	1926.80417613529
0.216827392578125	0.0037921142578125	1927.02542813473
0.22125244140625	0.00379638671875	1927.24668013417
0.225677490234375	0.00379791259765625	1927.46793213361
0.2301025390625	0.0037982177734375	1927.68918413305
0.234527587890625	0.00379669189453125	1927.91043613249
0.23895263671875	0.00379486083984375	1928.13168813194
0.243377685546875	0.0037921142578125	1928.35294013138
0.247802734375	0.00378631591796875	1928.57419213082
0.252227783203125	0.0037786865234375	1928.79544413026
0.25665283203125	0.0037713623046875	1929.0166961297
0.261077880859375	0.00376373291015625	1929.23794812914
0.2655029296875	0.00375732421875	1929.45920012858
0.269927978515625	0.003748779296875	1929.68045212803
0.27435302734375	0.00374053955078125	1929.90170412747
0.278778076171875	0.00372955322265625	1930.12295612691
0.283203125	0.00371917724609375	1930.34420812635
0.287628173828125	0.003709716796875	1930.56546012579
0.29205322265625	0.003699951171875	1930.78671212523
0.296478271484375	0.00368865966796875	1931.00796412467
0.3009033203125	0.0036773681640625	1931.22921612411
0.305328369140625	0.00366607666015625	1931.45046812356
0.30975341796875	0.0036541748046875	1931.671720123
0.314178466796875	0.00364410400390625	1931.89297212244
0.318603515625	0.0036334228515625	1932.11422412188
0.323028564453125	0.00362030029296875	1932.33547612132
0.32745361328125	0.0036090087890625	1932.55672812076
0.331878662109375	0.00359588623046875	1932.7779801202
0.3363037109375	0.00358428955078125	1932.99923211965
0.340728759765625	0.00357330322265625	1933.22048411909
0.34515380859375	0.00356109619140625	1933.44173611853
0.349578857421875	0.00355010986328125	1933.66298811797
0.35400390625	0.003536376953125	1933.88424011741
0.358428955078125	0.00352630615234375	1934.10549211685
0.36285400390625	0.003515625	1934.32674411629
0.367279052734375	0.0035052490234375	1934.54799611574
0.3717041015625	0.00349517822265625	1934.76924811518
0.376129150390625	0.003485107421875	1934.99050011462
0.38055419921875	0.00347412109375	1935.21175211406
0.384979248046875	0.0034649658203125	1935.4330041135
0.389404296875	0.0034552001953125	1935.65425611294
0.393829345703125	0.00344451904296875	1935.87550811238
0.39825439453125	0.00343505859375	1936.09676011183
0.402679443359375	0.0034271240234375	1936.31801211127
0.4071044921875	0.00341888427734375	1936.53926411071
0.411529541015625	0.0034100341796875	1936.76051611015
0.41595458984375	0.00340087890625	1936.98176810959
0.420379638671875	0.00339324951171875	1937.20302010903
0.4248046875	0.0033856201171875	1937.42427210847
0.429229736328125	0.00337646484375	1937.64552410792
0.43365478515625	0.00336944580078125	1937.86677610736
0.438079833984375	0.00336212158203125	1938.0880281068
0.4425048828125	0.00335418701171875	1938.30928010624
0.446929931640625	0.0033465576171875	1938.53053210568
0.45135498046875	0.00333953857421875	1938.75178410512
0.455780029296875	0.0033331298828125	1938.97303610456
0.460205078125	0.00332550048828125	1939.194288104
0.464630126953125	0.0033184814453125	1939.41554010345
0.46905517578125	0.00331085205078125	1939.63679210289
0.473480224609375	0.0033056640625	1939.85804410233
0.4779052734375	0.0032989501953125	1940.07929610177
0.482330322265625	0.003292236328125	1940.30054810121
0.48675537109375	0.0032879638671875	1940.52180010065
0.491180419921875	0.00328216552734375	1940.74305210009
0.49560546875	0.00327606201171875	1940.96430409954
0.500030517578125	0.003271484375	1941.18555609898
0.50445556640625	0.0032672119140625	1941.40680809842
0.508880615234375	0.00326202392578125	1941.62806009786
0.5133056640625	0.00325592041015625	1941.8493120973
0.517730712890625	0.003250732421875	1942.07056409674
0.52215576171875	0.00324615478515625	1942.29181609618
0.526580810546875	0.00324249267578125	1942.51306809563
0.531005859375	0.00323638916015625	1942.73432009507
0.535430908203125	0.003232421875	1942.95557209451
0.53985595703125	0.00322784423828125	1943.17682409395
0.544281005859375	0.0032244873046875	1943.39807609339
0.5487060546875	0.00321990966796875	1943.61932809283
0.553131103515625	0.003216552734375	1943.84058009227
0.55755615234375	0.00321258544921875	1944.06183209172
0.561981201171875	0.00320953369140625	1944.28308409116
0.56640625	0.00320587158203125	1944.5043360906
0.570831298828125	0.003203125	1944.72558809004
0.57525634765625	0.0032000732421875	1944.94684008948
0.579681396484375	0.00319671630859375	1945.16809208892
0.5841064453125	0.00319366455078125	1945.38934408836
0.588531494140625	0.003189697265625	1945.61059608781
0.59295654296875	0.0031866455078125	1945.83184808725
0.597381591796875	0.003184814453125	1946.05310008669
0.601806640625	0.00318267822265625	1946.27435208613
0.606231689453125	0.0031817626953125	1946.49560408557
0.61065673828125	0.0031793212890625	1946.71685608501
0.615081787109375	0.0031787109375	1946.93810808445
0.6195068359375	0.00317718505859375	1947.1593600839
0.623931884765625	0.0031768798828125	1947.38061208334
0.62835693359375	0.0031787109375	1947.60186408278
0.632781982421875	0.00317779541015625	1947.82311608222
0.63720703125	0.003177490234375	1948.04436808166
0.641632080078125	0.00317840576171875	1948.2656200811
0.64605712890625	0.0031768798828125	1948.48687208054
0.650482177734375	0.00317779541015625	1948.70812407998
0.6549072265625	0.00317779541015625	1948.92937607943
0.659332275390625	0.00317779541015625	1949.15062807887
0.66375732421875	0.003179931640625	1949.37188007831
0.668182373046875	0.00318023681640625	1949.59313207775
0.672607421875	0.00318084716796875	1949.81438407719
0.677032470703125	0.00318359375	1950.03563607663
0.68145751953125	0.003184814453125	1950.25688807607
0.685882568359375	0.00318634033203125	1950.47814007552
0.6903076171875	0.00318939208984375	1950.69939207496
0.694732666015625	0.00319183349609375	1950.9206440744
0.69915771484375	0.00319488525390625	1951.14189607384
0.703582763671875	0.003197021484375	1951.36314807328
0.7080078125	0.00320037841796875	1951.58440007272
0.712432861328125	0.003204345703125	1951.80565207216
0.71685791015625	0.0032073974609375	1952.02690407161
0.721282958984375	0.0032122802734375	1952.24815607105
0.7257080078125	0.0032159423828125	1952.46940807049
0.730133056640625	0.003221435546875	1952.69066006993
0.73455810546875	0.0032269287109375	1952.91191206937
0.738983154296875	0.0032330322265625	1953.13316406881
0.743408203125	0.00323760986328125	1953.35441606825
0.747833251953125	0.0032440185546875	1953.5756680677
0.75225830078125	0.0032501220703125	1953.79692006714
0.756683349609375	0.00325653076171875	1954.01817206658
0.7611083984375	0.00326446533203125	1954.23942406602
0.765533447265625	0.00327301025390625	1954.46067606546
0.76995849609375	0.00328155517578125	1954.6819280649
0.774383544921875	0.0032879638671875	1954.90318006434
0.77880859375	0.0032977294921875	1955.12443206379
0.783233642578125	0.00330780029296875	1955.34568406323
0.78765869140625	0.003316650390625	1955.56693606267
0.792083740234375	0.00332763671875	1955.78818806211
0.7965087890625	0.003338623046875	1956.00944006155
0.800933837890625	0.00334991455078125	1956.23069206099
0.80535888671875	0.0033612060546875	1956.45194406043
0.809783935546875	0.0033740234375	1956.67319605987
0.814208984375	0.003385009765625	1956.89444805932
0.818634033203125	0.00340057373046875	1957.11570005876
0.82305908203125	0.0034130859375	1957.3369520582
0.827484130859375	0.0034283447265625	1957.55820405764
0.8319091796875	0.003443603515625	1957.77945605708
0.836334228515625	0.00345977783203125	1958.00070805652
0.84075927734375	0.00347625732421875	1958.22196005596
0.845184326171875	0.003494873046875	1958.44321205541
0.849609375	0.0035125732421875	1958.66446405485
0.854034423828125	0.0035308837890625	1958.88571605429
0.85845947265625	0.00355255126953125	1959.10696805373
0.862884521484375	0.00357147216796875	1959.32822005317
0.8673095703125	0.0035943603515625	1959.54947205261
0.871734619140625	0.00361541748046875	1959.77072405205
0.87615966796875	0.00363861083984375	1959.9919760515
0.880584716796875	0.00366241455078125	1960.21322805094
0.885009765625	0.00368927001953125	1960.43448005038
0.889434814453125	0.003714599609375	1960.65573204982
0.89385986328125	0.00374176025390625	1960.87698404926
0.898284912109375	0.00377044677734375	1961.0982360487
0.9027099609375	0.003800048828125	1961.31948804814
0.907135009765625	0.003831787109375	1961.54074004759
0.91156005859375	0.00386260986328125	1961.76199204703
0.915985107421875	0.00389495849609375	1961.98324404647
0.92041015625	0.00392974853515625	1962.20449604591
0.924835205078125	0.00396636962890625	1962.42574804535
0.92926025390625	0.004002685546875	1962.64700004479
0.933685302734375	0.004041748046875	1962.86825204423
0.9381103515625	0.0040838623046875	1963.08950404368
0.942535400390625	0.0041265869140625	1963.31075604312
0.94696044921875	0.00416900634765625	1963.53200804256
0.951385498046875	0.0042144775390625	1963.753260042
0.955810546875	0.00425994873046875	1963.97451204144
0.960235595703125	0.00430816650390625	1964.19576404088
0.96466064453125	0.0043603515625	1964.41701604032
0.969085693359375	0.00441131591796875	1964.63826803977
0.9735107421875	0.004466552734375	1964.85952003921
0.977935791015625	0.004522705078125	1965.08077203865
0.98236083984375	0.00458221435546875	1965.30202403809
0.986785888671875	0.00464630126953125	1965.52327603753
0.9912109375	0.004713134765625	1965.74452803697
0.995635986328125	0.0047833251953125	1965.96578003641
1.00006103515625	0.00485504150390625	1966.18703203585
0.995635986328125	0.004261474609375	1966.4082840353
0.9912109375	0.00373931884765625	1966.62953603474
0.986785888671875	0.003267822265625	1966.85078803418
0.98236083984375	0.0028399658203125	1967.07204003362
0.977935791015625	0.00244903564453125	1967.29329203306
0.9735107421875	0.0020904541015625	1967.5145440325
0.969085693359375	0.00175628662109375	1967.73579603194
0.96466064453125	0.0014459228515625	1967.95704803139
0.960235595703125	0.0011578369140625	1968.17830003083
0.955810546875	0.000888671875	1968.39955203027
0.951385498046875	0.00063720703125	1968.62080402971
0.94696044921875	0.000402587890625	1968.84205602915
0.942535400390625	0.000182952880859375	1969.06330802859
0.9381103515625	-2.25067138671875E-05	1969.28456002803
0.933685302734375	-0.000217041015625	1969.50581202748
0.92926025390625	-0.000396240234375	1969.72706402692
0.924835205078125	-0.000563934326171875	1969.94831602636
0.92041015625	-0.000720550537109375	1970.1695680258
0.915985107421875	-0.00086578369140625	1970.39082002524
0.91156005859375	-0.0010028076171875	1970.61207202468
0.907135009765625	-0.00112884521484375	1970.83332402412
0.9027099609375	-0.00124725341796875	1971.05457602357
0.898284912109375	-0.001356201171875	1971.27582802301
0.89385986328125	-0.0014581298828125	1971.49708002245
0.889434814453125	-0.00155242919921875	1971.71833202189
0.885009765625	-0.001639404296875	1971.93958402133
0.880584716796875	-0.0017205810546875	1972.16083602077
0.87615966796875	-0.0017950439453125	1972.38208802021
0.871734619140625	-0.00186431884765625	1972.60334001966
0.8673095703125	-0.0019281005859375	1972.8245920191
0.862884521484375	-0.00198638916015625	1973.04584401854
0.85845947265625	-0.0020391845703125	1973.26709601798
0.854034423828125	-0.0020892333984375	1973.48834801742
0.849609375	-0.0021356201171875	1973.70960001686
0.845184326171875	-0.0021783447265625	1973.9308520163
0.84075927734375	-0.0022174072265625	1974.15210401574
0.836334228515625	-0.00225372314453125	1974.37335601519
0.8319091796875	-0.0022882080078125	1974.59460801463
0.827484130859375	-0.00231781005859375	1974.81586001407
0.82305908203125	-0.00234710693359375	1975.03711201351
0.818634033203125	-0.0023736572265625	1975.25836401295
0.814208984375	-0.00239898681640625	1975.47961601239
0.809783935546875	-0.002421875	1975.70086801183
0.80535888671875	-0.00244415283203125	1975.92212001128
0.800933837890625	-0.00246429443359375	1976.14337201072
0.7965087890625	-0.00248382568359375	1976.36462401016
0.792083740234375	-0.00250152587890625	1976.5858760096
0.78765869140625	-0.00251739501953125	1976.80712800904
0.783233642578125	-0.00253326416015625	1977.02838000848
0.77880859375	-0.002548828125	1977.24963200792
0.774383544921875	-0.00256256103515625	1977.47088400737
0.76995849609375	-0.0025762939453125	1977.69213600681
0.765533447265625	-0.00259002685546875	1977.91338800625
0.7611083984375	-0.00260345458984375	1978.13464000569
0.756683349609375	-0.00261505126953125	1978.35589200513
0.75225830078125	-0.00262786865234375	1978.57714400457
0.747833251953125	-0.0026397705078125	1978.79839600401
0.743408203125	-0.00264984130859375	1979.01964800346
0.738983154296875	-0.0026593017578125	1979.2409000029
0.73455810546875	-0.00266998291015625	1979.46215200234
0.730133056640625	-0.0026800537109375	1979.68340400178
0.7257080078125	-0.0026910400390625	1979.90465600122
0.721282958984375	-0.0027001953125	1980.12590800066
0.71685791015625	-0.00271026611328125	1980.3471600001
0.712432861328125	-0.00272003173828125	1980.56841199955
0.7080078125	-0.00272979736328125	1980.78966399899
0.703582763671875	-0.00273956298828125	1981.01091599843
0.69915771484375	-0.0027471923828125	1981.23216799787
0.694732666015625	-0.002757568359375	1981.45341999731
0.6903076171875	-0.002767333984375	1981.67467199675
0.685882568359375	-0.002777099609375	1981.89592399619
0.68145751953125	-0.00278656005859375	1982.11717599564
0.677032470703125	-0.002794189453125	1982.33842799508
0.672607421875	-0.00280426025390625	1982.55967999452
0.668182373046875	-0.002813720703125	1982.78093199396
0.66375732421875	-0.002821044921875	1983.0021839934
0.659332275390625	-0.002830810546875	1983.22343599284
0.6549072265625	-0.0028411865234375	1983.44468799228
0.650482177734375	-0.0028497314453125	1983.66593999172
0.64605712890625	-0.002860107421875	1983.88719199117
0.641632080078125	-0.00286956787109375	1984.10844399061
0.63720703125	-0.00287811279296875	1984.32969599005
0.632781982421875	-0.0028875732421875	1984.55094798949
0.62835693359375	-0.00289703369140625	1984.77219998893
0.623931884765625	-0.0029095458984375	1984.99345198837
0.6195068359375	-0.002918701171875	1985.21470398781
0.615081787109375	-0.00292694091796875	1985.43595598726
0.61065673828125	-0.0029364013671875	1985.6572079867
0.606231689453125	-0.002945556640625	1985.87845998614
0.601806640625	-0.0029541015625	1986.09971198558
0.597381591796875	-0.002962646484375	1986.32096398502
0.59295654296875	-0.00297149658203125	1986.54221598446
0.588531494140625	-0.0029803466796875	1986.7634679839
0.5841064453125	-0.0029888916015625	1986.98471998335
0.579681396484375	-0.002996826171875	1987.20597198279
0.57525634765625	-0.003006591796875	1987.42722398223
0.570831298828125	-0.00301666259765625	1987.64847598167
0.56640625	-0.00302703857421875	1987.86972798111
0.561981201171875	-0.00303680419921875	1988.09097998055
0.55755615234375	-0.0030462646484375	1988.31223197999
0.553131103515625	-0.003055419921875	1988.53348397944
0.5487060546875	-0.00306549072265625	1988.75473597888
0.544281005859375	-0.00307464599609375	1988.97598797832
0.53985595703125	-0.00308563232421875	1989.19723997776
0.535430908203125	-0.0030950927734375	1989.4184919772
0.531005859375	-0.00310394287109375	1989.63974397664
0.526580810546875	-0.00311370849609375	1989.86099597608
0.52215576171875	-0.003123779296875	1990.08224797553
0.517730712890625	-0.003133544921875	1990.30349997497
0.5133056640625	-0.0031439208984375	1990.52475197441
0.508880615234375	-0.00315460205078125	1990.74600397385
0.50445556640625	-0.0031646728515625	1990.96725597329
0.500030517578125	-0.0031744384765625	1991.18850797273
0.49560546875	-0.003184814453125	1991.40975997217
0.491180419921875	-0.0031939697265625	1991.63101197161
0.48675537109375	-0.00320556640625	1991.85226397106
0.482330322265625	-0.003214111328125	1992.0735159705
0.4779052734375	-0.00322479248046875	1992.29476796994
0.473480224609375	-0.00323638916015625	1992.51601996938
0.46905517578125	-0.00324737548828125	1992.73727196882
0.464630126953125	-0.0032568359375	1992.95852396826
0.460205078125	-0.00326812744140625	1993.1797759677
0.455780029296875	-0.0032769775390625	1993.40102796715
0.45135498046875	-0.003287353515625	1993.62227996659
0.446929931640625	-0.00329833984375	1993.84353196603
0.4425048828125	-0.0033074951171875	1994.06478396547
0.438079833984375	-0.00331878662109375	1994.28603596491
0.43365478515625	-0.0033282470703125	1994.50728796435
0.429229736328125	-0.00333770751953125	1994.72853996379
0.4248046875	-0.00334991455078125	1994.94979196324
0.420379638671875	-0.00335968017578125	1995.17104396268
0.41595458984375	-0.00337066650390625	1995.39229596212
0.411529541015625	-0.003382568359375	1995.61354796156
0.4071044921875	-0.0033935546875	1995.834799961
0.402679443359375	-0.00340362548828125	1996.05605196044
0.39825439453125	-0.00341552734375	1996.27730395988
0.393829345703125	-0.003426513671875	1996.49855595933
0.389404296875	-0.0034356689453125	1996.71980795877
0.384979248046875	-0.00344696044921875	1996.94105995821
0.38055419921875	-0.00345733642578125	1997.16231195765
0.376129150390625	-0.00346832275390625	1997.38356395709
0.3717041015625	-0.0034796142578125	1997.60481595653
0.367279052734375	-0.0034912109375	1997.82606795597
0.36285400390625	-0.00350189208984375	1998.04731995542
0.358428955078125	-0.0035137939453125	1998.26857195486
0.35400390625	-0.00352447509765625	1998.4898239543
0.349578857421875	-0.00353302001953125	1998.71107595374
0.34515380859375	-0.003544921875	1998.93232795318
0.340728759765625	-0.00355682373046875	1999.15357995262
0.3363037109375	-0.00356719970703125	1999.37483195206
0.331878662109375	-0.00357818603515625	1999.59608395151
0.32745361328125	-0.0035888671875	1999.81733595095
0.323028564453125	-0.003599853515625	2000.03858795039
0.318603515625	-0.003612060546875	2000.25983994983
0.314178466796875	-0.003623046875	2000.48109194927
0.30975341796875	-0.00363616943359375	2000.70234394871
0.305328369140625	-0.003648681640625	2000.92359594815
0.3009033203125	-0.00365997314453125	2001.14484794759
0.296478271484375	-0.0036712646484375	2001.36609994704
0.29205322265625	-0.00368316650390625	2001.58735194648
0.287628173828125	-0.00369537353515625	2001.80860394592
0.283203125	-0.003707275390625	2002.02985594536
0.278778076171875	-0.0037200927734375	2002.2511079448
0.27435302734375	-0.00373138427734375	2002.47235994424
0.269927978515625	-0.0037432861328125	2002.69361194368
0.2655029296875	-0.0037554931640625	2002.91486394313
0.261077880859375	-0.00376800537109375	2003.13611594257
0.25665283203125	-0.00378021240234375	2003.35736794201
0.252227783203125	-0.00379486083984375	2003.57861994145
0.247802734375	-0.00380767822265625	2003.79987194089
0.243377685546875	-0.003819580078125	2004.02112394033
0.23895263671875	-0.00383453369140625	2004.24237593977
0.234527587890625	-0.00384735107421875	2004.46362793922
0.2301025390625	-0.003861083984375	2004.68487993866
0.225677490234375	-0.00387420654296875	2004.9061319381
0.22125244140625	-0.0038885498046875	2005.12738393754
0.216827392578125	-0.003905029296875	2005.34863593698
0.21240234375	-0.00391693115234375	2005.56988793642
0.207977294921875	-0.00393218994140625	2005.79113993586
0.20355224609375	-0.0039471435546875	2006.01239193531
0.199127197265625	-0.00396331787109375	2006.23364393475
0.1947021484375	-0.00397857666015625	2006.45489593419
0.190277099609375	-0.00399383544921875	2006.67614793363
0.18585205078125	-0.0040118408203125	2006.89739993307
0.181427001953125	-0.00402923583984375	2007.11865193251
0.177001953125	-0.0040447998046875	2007.33990393195
0.172576904296875	-0.0040618896484375	2007.5611559314
0.16815185546875	-0.0040789794921875	2007.78240793084
0.163726806640625	-0.00409698486328125	2008.00365993028
0.1593017578125	-0.00411376953125	2008.22491192972
0.154876708984375	-0.00413330078125	2008.44616392916
0.15045166015625	-0.0041522216796875	2008.6674159286
0.146026611328125	-0.004171142578125	2008.88866792804
0.1416015625	-0.0041900634765625	2009.10991992748
0.137176513671875	-0.00420928955078125	2009.33117192693
0.13275146484375	-0.00423004150390625	2009.55242392637
0.128326416015625	-0.00425018310546875	2009.77367592581
0.1239013671875	-0.0042718505859375	2009.99492792525
0.119476318359375	-0.00429351806640625	2010.21617992469
0.11505126953125	-0.0043145751953125	2010.43743192413
0.110626220703125	-0.00433746337890625	2010.65868392357
0.106201171875	-0.00435882568359375	2010.87993592302
0.101776123046875	-0.00438201904296875	2011.10118792246
0.09735107421875	-0.0044049072265625	2011.3224399219
0.092926025390625	-0.00442901611328125	2011.54369192134
0.0885009765625	-0.00445343017578125	2011.76494392078
0.084075927734375	-0.00447662353515625	2011.98619592022
0.07965087890625	-0.004501953125	2012.20744791966
0.075225830078125	-0.00452484130859375	2012.42869991911
0.07080078125	-0.0045501708984375	2012.64995191855
0.066375732421875	-0.00457794189453125	2012.87120391799
0.06195068359375	-0.00460540771484375	2013.09245591743
0.057525634765625	-0.00463165283203125	2013.31370791687
0.0531005859375	-0.0046588134765625	2013.53495991631
0.048675537109375	-0.00468658447265625	2013.75621191575
0.04425048828125	-0.00471466064453125	2013.9774639152
0.039825439453125	-0.00474365234375	2014.19871591464
0.035400390625	-0.0047723388671875	2014.41996791408
0.030975341796875	-0.00480072021484375	2014.64121991352
0.02655029296875	-0.00483154296875	2014.86247191296
0.022125244140625	-0.0048626708984375	2015.0837239124
0.0177001953125	-0.0048956298828125	2015.30497591184
0.013275146484375	-0.0049267578125	2015.52622791129
0.00885009765625	-0.00495758056640625	2015.74747991073
0.004425048828125	-0.004990234375	2015.96873191017
0	-0.0050244140625	2016.18998390961
0.004425048828125	-0.0043682861328125	2016.41123590905
0.00885009765625	-0.003770751953125	2016.63248790849
0.013275146484375	-0.003218994140625	2016.85373990793
0.0177001953125	-0.002711181640625	2017.07499190738
0.022125244140625	-0.00223968505859375	2017.29624390682
0.02655029296875	-0.0018011474609375	2017.51749590626
0.030975341796875	-0.00139404296875	2017.7387479057
0.035400390625	-0.00101409912109375	2017.95999990514
0.039825439453125	-0.00065948486328125	2018.18125190458
0.04425048828125	-0.00032818603515625	2018.40250390402
0.048675537109375	-1.83441162109375E-05	2018.62375590346
0.0531005859375	0.000271026611328125	2018.84500790291
0.057525634765625	0.00054229736328125	2019.06625990235
0.06195068359375	0.0007958984375	2019.28751190179
0.066375732421875	0.00103302001953125	2019.50876390123
0.07080078125	0.00125457763671875	2019.73001590067
0.075225830078125	0.00146240234375	2019.95126790011
0.07965087890625	0.00165496826171875	2020.17251989955
0.084075927734375	0.00183563232421875	2020.393771899
0.0885009765625	0.00200439453125	2020.61502389844
0.092926025390625	0.0021612548828125	2020.83627589788
0.09735107421875	0.0023065185546875	2021.05752789732
0.101776123046875	0.002440185546875	2021.27877989676
0.106201171875	0.0025653076171875	2021.5000318962
0.110626220703125	0.002684326171875	2021.72128389564
0.11505126953125	0.00279388427734375	2021.94253589509
0.119476318359375	0.00289459228515625	2022.16378789453
0.1239013671875	0.00298919677734375	2022.38503989397
0.128326416015625	0.003076171875	2022.60629189341
0.13275146484375	0.00315643310546875	2022.82754389285
0.137176513671875	0.00322998046875	2023.04879589229
0.1416015625	0.00329864501953125	2023.27004789173
0.146026611328125	0.00335968017578125	2023.49129989118
0.15045166015625	0.003416748046875	2023.71255189062
0.154876708984375	0.003468017578125	2023.93380389006
0.1593017578125	0.003514404296875	2024.1550558895
0.163726806640625	0.00355621337890625	2024.37630788894
0.16815185546875	0.00359405517578125	2024.59755988838
0.172576904296875	0.0036279296875	2024.81881188782
0.177001953125	0.00365692138671875	2025.04006388727
0.181427001953125	0.00368408203125	2025.26131588671
0.18585205078125	0.0037066650390625	2025.48256788615
0.190277099609375	0.00372589111328125	2025.70381988559
0.1947021484375	0.00374481201171875	2025.92507188503
0.199127197265625	0.00375823974609375	2026.14632388447
0.20355224609375	0.003770751953125	2026.36757588391
0.207977294921875	0.003780517578125	2026.58882788335
0.21240234375	0.00378936767578125	2026.8100798828
0.216827392578125	0.00379425048828125	2027.03133188224
0.22125244140625	0.00379730224609375	2027.25258388168
0.225677490234375	0.0037994384765625	2027.47383588112
0.2301025390625	0.0037994384765625	2027.69508788056
0.234527587890625	0.00379669189453125	2027.91633988
0.23895263671875	0.0037957763671875	2028.13759187944
0.243377685546875	0.00379241943359375	2028.35884387889
0.247802734375	0.0037860107421875	2028.58009587833
0.252227783203125	0.0037811279296875	2028.80134787777
0.25665283203125	0.00377349853515625	2029.02259987721
0.261077880859375	0.0037664794921875	2029.24385187665
0.2655029296875	0.0037591552734375	2029.46510387609
0.269927978515625	0.003751220703125	2029.68635587553
0.27435302734375	0.003740234375	2029.90760787498
0.278778076171875	0.0037286376953125	2030.12885987442
0.283203125	0.0037188720703125	2030.35011187386
0.287628173828125	0.0037103271484375	2030.5713638733
0.29205322265625	0.00369842529296875	2030.79261587274
0.296478271484375	0.003687744140625	2031.01386787218
0.3009033203125	0.003675537109375	2031.23511987162
0.305328369140625	0.00366424560546875	2031.45637187107
0.30975341796875	0.00365203857421875	2031.67762387051
0.314178466796875	0.003642578125	2031.89887586995
0.318603515625	0.00363006591796875	2032.12012786939
0.323028564453125	0.0036181640625	2032.34137986883
0.32745361328125	0.0036053466796875	2032.56263186827
0.331878662109375	0.00359405517578125	2032.78388386771
0.3363037109375	0.0035821533203125	2033.00513586716
0.340728759765625	0.00357086181640625	2033.2263878666
0.34515380859375	0.0035595703125	2033.44763986604
0.349578857421875	0.0035491943359375	2033.66889186548
0.35400390625	0.00353607177734375	2033.89014386492
0.358428955078125	0.0035247802734375	2034.11139586436
0.36285400390625	0.00351287841796875	2034.3326478638
0.367279052734375	0.00350250244140625	2034.55389986325
0.3717041015625	0.00349212646484375	2034.77515186269
0.376129150390625	0.00348052978515625	2034.99640386213
0.38055419921875	0.00347137451171875	2035.21765586157
0.384979248046875	0.003460693359375	2035.43890786101
0.389404296875	0.003450927734375	2035.66015986045
0.393829345703125	0.00344146728515625	2035.88141185989
0.39825439453125	0.0034332275390625	2036.10266385933
0.402679443359375	0.00342376708984375	2036.32391585878
0.4071044921875	0.003414306640625	2036.54516785822
0.411529541015625	0.00340606689453125	2036.76641985766
0.41595458984375	0.0033984375	2036.9876718571
0.420379638671875	0.0033892822265625	2037.20892385654
0.4248046875	0.00338043212890625	2037.43017585598
0.429229736328125	0.00337127685546875	2037.65142785542
0.43365478515625	0.00336456298828125	2037.87267985487
0.438079833984375	0.00335601806640625	2038.09393185431
0.4425048828125	0.00334930419921875	2038.31518385375
0.446929931640625	0.00334136962890625	2038.53643585319
0.45135498046875	0.0033349609375	2038.75768785263
0.455780029296875	0.0033270263671875	2038.97893985207
0.460205078125	0.00332000732421875	2039.20019185151
0.464630126953125	0.0033123779296875	2039.42144385096
0.46905517578125	0.00330596923828125	2039.6426958504
0.473480224609375	0.003299560546875	2039.86394784984
0.4779052734375	0.00329193115234375	2040.08519984928
0.482330322265625	0.00328704833984375	2040.30645184872
0.48675537109375	0.00328033447265625	2040.52770384816
0.491180419921875	0.0032745361328125	2040.7489558476
0.49560546875	0.0032696533203125	2040.97020784705
0.500030517578125	0.00326416015625	2041.19145984649
0.50445556640625	0.00325897216796875	2041.41271184593
0.508880615234375	0.003253173828125	2041.63396384537
0.5133056640625	0.003248291015625	2041.85521584481
0.517730712890625	0.00324249267578125	2042.07646784425
0.52215576171875	0.0032379150390625	2042.29771984369
0.526580810546875	0.00323394775390625	2042.51897184314
0.531005859375	0.00322906494140625	2042.74022384258
0.535430908203125	0.0032244873046875	2042.96147584202
0.53985595703125	0.0032196044921875	2043.18272784146
0.544281005859375	0.00321441650390625	2043.4039798409
0.5487060546875	0.0032098388671875	2043.62523184034
0.553131103515625	0.0032061767578125	2043.84648383978
0.55755615234375	0.00320281982421875	2044.06773583922
0.561981201171875	0.0031988525390625	2044.28898783867
0.56640625	0.0031964111328125	2044.51023983811
0.570831298828125	0.00319427490234375	2044.73149183755
0.57525634765625	0.0031903076171875	2044.95274383699
0.579681396484375	0.003187255859375	2045.17399583643
0.5841064453125	0.00318450927734375	2045.39524783587
0.588531494140625	0.0031805419921875	2045.61649983531
0.59295654296875	0.0031781005859375	2045.83775183476
0.597381591796875	0.00317535400390625	2046.0590038342
0.601806640625	0.00317291259765625	2046.28025583364
0.606231689453125	0.0031719970703125	2046.50150783308
0.61065673828125	0.003170166015625	2046.72275983252
0.615081787109375	0.0031683349609375	2046.94401183196
0.6195068359375	0.003167724609375	2047.1652638314
0.623931884765625	0.0031658935546875	2047.38651583085
0.62835693359375	0.00316802978515625	2047.60776783029
0.632781982421875	0.0031671142578125	2047.82901982973
0.63720703125	0.00316650390625	2048.05027182917
0.641632080078125	0.00316558837890625	2048.27152382861
0.64605712890625	0.00316558837890625	2048.49277582805
0.650482177734375	0.0031640625	2048.71402782749
0.6549072265625	0.00316436767578125	2048.93527982694
0.659332275390625	0.0031646728515625	2049.15653182638
0.66375732421875	0.00316619873046875	2049.37778382582
0.668182373046875	0.00316741943359375	2049.59903582526
0.672607421875	0.00316802978515625	2049.8202878247
0.677032470703125	0.00316864013671875	2050.04153982414
0.68145751953125	0.00316986083984375	2050.26279182358
0.685882568359375	0.00317169189453125	2050.48404382303
0.6903076171875	0.0031732177734375	2050.70529582247
0.694732666015625	0.0031756591796875	2050.92654782191
0.69915771484375	0.0031781005859375	2051.14779982135
0.703582763671875	0.0031805419921875	2051.36905182079
0.7080078125	0.00318511962890625	2051.59030382023
0.712432861328125	0.00318756103515625	2051.81155581967
0.71685791015625	0.003192138671875	2052.03280781912
0.721282958984375	0.00319671630859375	2052.25405981856
0.7257080078125	0.00320098876953125	2052.475311818
0.730133056640625	0.00320587158203125	2052.69656381744
0.73455810546875	0.00321044921875	2052.91781581688
0.738983154296875	0.003216552734375	2053.13906781632
0.743408203125	0.00322021484375	2053.36031981576
0.747833251953125	0.00322601318359375	2053.5815718152
0.75225830078125	0.0032318115234375	2053.80282381465
0.756683349609375	0.0032379150390625	2054.02407581409
0.7611083984375	0.00324676513671875	2054.24532781353
0.765533447265625	0.00325347900390625	2054.46657981297
0.76995849609375	0.0032623291015625	2054.68783181241
0.774383544921875	0.00326995849609375	2054.90908381185
0.77880859375	0.00327789306640625	2055.13033581129
0.783233642578125	0.0032861328125	2055.35158781074
0.78765869140625	0.0032952880859375	2055.57283981018
0.792083740234375	0.00330535888671875	2055.79409180962
0.7965087890625	0.00331573486328125	2056.01534380906
0.800933837890625	0.00332611083984375	2056.2365958085
0.80535888671875	0.00333709716796875	2056.45784780794
0.809783935546875	0.0033489990234375	2056.67909980738
0.814208984375	0.00336273193359375	2056.90035180683
0.818634033203125	0.00337554931640625	2057.12160380627
0.82305908203125	0.0033880615234375	2057.34285580571
0.827484130859375	0.003402099609375	2057.56410780515
0.8319091796875	0.00341766357421875	2057.78535980459
0.836334228515625	0.0034332275390625	2058.00661180403
0.84075927734375	0.0034503173828125	2058.22786380347
0.845184326171875	0.00346710205078125	2058.44911580292
0.849609375	0.0034844970703125	2058.67036780236
0.854034423828125	0.0035028076171875	2058.8916198018
0.85845947265625	0.00352264404296875	2059.11287180124
0.862884521484375	0.00354095458984375	2059.33412380068
0.8673095703125	0.00356170654296875	2059.55537580012
0.871734619140625	0.0035833740234375	2059.77662779956
0.87615966796875	0.00360595703125	2059.99787979901
0.880584716796875	0.003631591796875	2060.21913179845
0.885009765625	0.003656005859375	2060.44038379789
0.889434814453125	0.00368133544921875	2060.66163579733
0.89385986328125	0.00370819091796875	2060.88288779677
0.898284912109375	0.00373626708984375	2061.10413979621
0.9027099609375	0.00376556396484375	2061.32539179565
0.907135009765625	0.003795166015625	2061.54664379509
0.91156005859375	0.00382598876953125	2061.76789579454
0.915985107421875	0.00385833740234375	2061.98914779398
0.92041015625	0.003892822265625	2062.21039979342
0.924835205078125	0.00392791748046875	2062.43165179286
0.92926025390625	0.00396453857421875	2062.6529037923
0.933685302734375	0.00400360107421875	2062.87415579174
0.9381103515625	0.00404510498046875	2063.09540779118
0.942535400390625	0.00408660888671875	2063.31665979063
0.94696044921875	0.0041278076171875	2063.53791179007
0.951385498046875	0.00417327880859375	2063.75916378951
0.955810546875	0.0042181396484375	2063.98041578895
0.960235595703125	0.00426605224609375	2064.20166778839
0.96466064453125	0.00431640625	2064.42291978783
0.969085693359375	0.00436920166015625	2064.64417178727
0.9735107421875	0.004423828125	2064.86542378672
0.977935791015625	0.00448089599609375	2065.08667578616
0.98236083984375	0.004541015625	2065.3079277856
0.986785888671875	0.00460540771484375	2065.52917978504
0.9912109375	0.00467254638671875	2065.75043178448
0.995635986328125	0.0047418212890625	2065.97168378392
1.00006103515625	0.00481536865234375	2066.19293578336
0.995635986328125	0.004224853515625	2066.41418778281
0.9912109375	0.003702392578125	2066.63543978225
0.986785888671875	0.00323272705078125	2066.85669178169
0.98236083984375	0.00280670166015625	2067.07794378113
0.977935791015625	0.0024169921875	2067.29919578057
0.9735107421875	0.00205963134765625	2067.52044778001
0.969085693359375	0.00172760009765625	2067.74169977945
0.96466064453125	0.00141937255859375	2067.9629517789
0.960235595703125	0.0011328125	2068.18420377834
0.955810546875	0.0008648681640625	2068.40545577778
0.951385498046875	0.000615234375	2068.62670777722
0.94696044921875	0.00038201904296875	2068.84795977666
0.942535400390625	0.0001639404296875	2069.0692117761
0.9381103515625	-4.03045654296875E-05	2069.29046377554
0.933685302734375	-0.0002335205078125	2069.51171577499
0.92926025390625	-0.000411590576171875	2069.73296777443
0.924835205078125	-0.000578125	2069.95421977387
0.92041015625	-0.00073321533203125	2070.17547177331
0.915985107421875	-0.00087799072265625	2070.39672377275
0.91156005859375	-0.00101348876953125	2070.61797577219
0.907135009765625	-0.001138916015625	2070.83922777163
0.9027099609375	-0.0012554931640625	2071.06047977107
0.898284912109375	-0.00136444091796875	2071.28173177052
0.89385986328125	-0.0014654541015625	2071.50298376996
0.889434814453125	-0.00155853271484375	2071.7242357694
0.885009765625	-0.0016448974609375	2071.94548776884
0.880584716796875	-0.00172454833984375	2072.16673976828
0.87615966796875	-0.001798095703125	2072.38799176772
0.871734619140625	-0.001866455078125	2072.60924376716
0.8673095703125	-0.0019287109375	2072.83049576661
0.862884521484375	-0.00198699951171875	2073.05174776605
0.85845947265625	-0.00203948974609375	2073.27299976549
0.854034423828125	-0.00208892822265625	2073.49425176493
0.849609375	-0.00213531494140625	2073.71550376437
0.845184326171875	-0.0021771240234375	2073.93675576381
0.84075927734375	-0.0022161865234375	2074.15800776325
0.836334228515625	-0.00225189208984375	2074.3792597627
0.8319091796875	-0.002283935546875	2074.60051176214
0.827484130859375	-0.00231475830078125	2074.82176376158
0.82305908203125	-0.002342529296875	2075.04301576102
0.818634033203125	-0.00236846923828125	2075.26426776046
0.814208984375	-0.00239288330078125	2075.4855197599
0.809783935546875	-0.00241607666015625	2075.70677175934
0.80535888671875	-0.002437744140625	2075.92802375879
0.800933837890625	-0.00245697021484375	2076.14927575823
0.7965087890625	-0.00247589111328125	2076.37052775767
0.792083740234375	-0.0024932861328125	2076.59177975711
0.78765869140625	-0.0025091552734375	2076.81303175655
0.783233642578125	-0.0025250244140625	2077.03428375599
0.77880859375	-0.0025396728515625	2077.25553575543
0.774383544921875	-0.00255462646484375	2077.47678775488
0.76995849609375	-0.00256744384765625	2077.69803975432
0.765533447265625	-0.00258026123046875	2077.91929175376
0.7611083984375	-0.0025927734375	2078.1405437532
0.756683349609375	-0.00260467529296875	2078.36179575264
0.75225830078125	-0.00261688232421875	2078.58304775208
0.747833251953125	-0.00262786865234375	2078.80429975152
0.743408203125	-0.0026385498046875	2079.02555175096
0.738983154296875	-0.002647705078125	2079.24680375041
0.73455810546875	-0.00265869140625	2079.46805574985
0.730133056640625	-0.00266876220703125	2079.68930774929
0.7257080078125	-0.00267913818359375	2079.91055974873
0.721282958984375	-0.002689208984375	2080.13181174817
0.71685791015625	-0.00269927978515625	2080.35306374761
0.712432861328125	-0.002708740234375	2080.57431574705
0.7080078125	-0.00271820068359375	2080.7955677465
0.703582763671875	-0.00272735595703125	2081.01681974594
0.69915771484375	-0.00273590087890625	2081.23807174538
0.694732666015625	-0.0027471923828125	2081.45932374482
0.6903076171875	-0.0027557373046875	2081.68057574426
0.685882568359375	-0.00276580810546875	2081.9018277437
0.68145751953125	-0.00277496337890625	2082.12307974314
0.677032470703125	-0.0027838134765625	2082.34433174259
0.672607421875	-0.0027935791015625	2082.56558374203
0.668182373046875	-0.00280242919921875	2082.78683574147
0.66375732421875	-0.0028118896484375	2083.00808774091
0.659332275390625	-0.00281982421875	2083.22933974035
0.6549072265625	-0.00282958984375	2083.45059173979
0.650482177734375	-0.00283843994140625	2083.67184373923
0.64605712890625	-0.00284820556640625	2083.89309573868
0.641632080078125	-0.0028582763671875	2084.11434773812
0.63720703125	-0.00286834716796875	2084.33559973756
0.632781982421875	-0.00287628173828125	2084.556851737
0.62835693359375	-0.00288482666015625	2084.77810373644
0.623931884765625	-0.00289794921875	2084.99935573588
0.6195068359375	-0.00290618896484375	2085.22060773532
0.615081787109375	-0.002916259765625	2085.44185973477
0.61065673828125	-0.0029241943359375	2085.66311173421
0.606231689453125	-0.0029339599609375	2085.88436373365
0.601806640625	-0.00294189453125	2086.10561573309
0.597381591796875	-0.00295166015625	2086.32686773253
0.59295654296875	-0.00296051025390625	2086.54811973197
0.588531494140625	-0.00297088623046875	2086.76937173141
0.5841064453125	-0.0029779052734375	2086.99062373086
0.579681396484375	-0.00298797607421875	2087.2118757303
0.57525634765625	-0.00299652099609375	2087.43312772974
0.570831298828125	-0.00300506591796875	2087.65437972918
0.56640625	-0.00301544189453125	2087.87563172862
0.561981201171875	-0.00302490234375	2088.09688372806
0.55755615234375	-0.00303497314453125	2088.3181357275
0.553131103515625	-0.00304412841796875	2088.53938772694
0.5487060546875	-0.00305389404296875	2088.76063972639
0.544281005859375	-0.00306243896484375	2088.98189172583
0.53985595703125	-0.003072509765625	2089.20314372527
0.535430908203125	-0.00308197021484375	2089.42439572471
0.531005859375	-0.003092041015625	2089.64564772415
0.526580810546875	-0.00310272216796875	2089.86689972359
0.52215576171875	-0.00311126708984375	2090.08815172303
0.517730712890625	-0.00312255859375	2090.30940372248
0.5133056640625	-0.00313140869140625	2090.53065572192
0.508880615234375	-0.00314208984375	2090.75190772136
0.50445556640625	-0.00315277099609375	2090.9731597208
0.500030517578125	-0.00316192626953125	2091.19441172024
0.49560546875	-0.00317230224609375	2091.41566371968
0.491180419921875	-0.00318267822265625	2091.63691571912
0.48675537109375	-0.0031927490234375	2091.85816771857
0.482330322265625	-0.0032025146484375	2092.07941971801
0.4779052734375	-0.00321441650390625	2092.30067171745
0.473480224609375	-0.00322509765625	2092.52192371689
0.46905517578125	-0.0032354736328125	2092.74317571633
0.464630126953125	-0.00324493408203125	2092.96442771577
0.460205078125	-0.00325531005859375	2093.18567971521
0.455780029296875	-0.00326568603515625	2093.40693171466
0.45135498046875	-0.0032763671875	2093.6281837141
0.446929931640625	-0.00328643798828125	2093.84943571354
0.4425048828125	-0.00329742431640625	2094.07068771298
0.438079833984375	-0.00330780029296875	2094.29193971242
0.43365478515625	-0.00331939697265625	2094.51319171186
0.429229736328125	-0.00332916259765625	2094.7344437113
0.4248046875	-0.00334075927734375	2094.95569571075
0.420379638671875	-0.003350830078125	2095.17694771019
0.41595458984375	-0.00336212158203125	2095.39819970963
0.411529541015625	-0.00337158203125	2095.61945170907
0.4071044921875	-0.00338226318359375	2095.84070370851
0.402679443359375	-0.00339385986328125	2096.06195570795
0.39825439453125	-0.0034039306640625	2096.28320770739
0.393829345703125	-0.00341522216796875	2096.50445970683
0.389404296875	-0.0034259033203125	2096.72571170628
0.384979248046875	-0.003436279296875	2096.94696370572
0.38055419921875	-0.0034466552734375	2097.16821570516
0.376129150390625	-0.00345916748046875	2097.3894677046
0.3717041015625	-0.00346923828125	2097.61071970404
0.367279052734375	-0.003480224609375	2097.83197170348
0.36285400390625	-0.00349151611328125	2098.05322370292
0.358428955078125	-0.00350128173828125	2098.27447570237
0.35400390625	-0.0035125732421875	2098.49572770181
0.349578857421875	-0.00352203369140625	2098.71697970125
0.34515380859375	-0.00353179931640625	2098.93823170069
0.340728759765625	-0.003543701171875	2099.15948370013
0.3363037109375	-0.0035546875	2099.38073569957
0.331878662109375	-0.003565673828125	2099.60198769901
0.32745361328125	-0.00357757568359375	2099.82323969846
0.323028564453125	-0.00358795166015625	2100.0444916979
0.318603515625	-0.00359893798828125	2100.26574369734
0.314178466796875	-0.00361114501953125	2100.48699569678
0.30975341796875	-0.00362335205078125	2100.70824769622
0.305328369140625	-0.00363555908203125	2100.92949969566
0.3009033203125	-0.0036468505859375	2101.1507516951
0.296478271484375	-0.00365966796875	2101.37200369455
0.29205322265625	-0.0036712646484375	2101.59325569399
0.287628173828125	-0.003681640625	2101.81450769343
0.283203125	-0.00369384765625	2102.03575969287
0.278778076171875	-0.0037066650390625	2102.25701169231
0.27435302734375	-0.00371795654296875	2102.47826369175
0.269927978515625	-0.0037298583984375	2102.69951569119
0.2655029296875	-0.003741455078125	2102.92076769064
0.261077880859375	-0.0037542724609375	2103.14201969008
0.25665283203125	-0.00376708984375	2103.36327168952
0.252227783203125	-0.003780517578125	2103.58452368896
0.247802734375	-0.0037921142578125	2103.8057756884
0.243377685546875	-0.003807373046875	2104.02702768784
0.23895263671875	-0.003819580078125	2104.24827968728
0.234527587890625	-0.003834228515625	2104.46953168673
0.2301025390625	-0.00384521484375	2104.69078368617
0.225677490234375	-0.00386199951171875	2104.91203568561
0.22125244140625	-0.00387420654296875	2105.13328768505
0.216827392578125	-0.00388885498046875	2105.35453968449
0.21240234375	-0.0039044189453125	2105.57579168393
0.207977294921875	-0.00391937255859375	2105.79704368337
0.20355224609375	-0.00393463134765625	2106.01829568281
0.199127197265625	-0.00394866943359375	2106.23954768226
0.1947021484375	-0.00396636962890625	2106.4607996817
0.190277099609375	-0.00398223876953125	2106.68205168114
0.18585205078125	-0.0039971923828125	2106.90330368058
0.181427001953125	-0.00401397705078125	2107.12455568002
0.177001953125	-0.00403167724609375	2107.34580767946
0.172576904296875	-0.00404876708984375	2107.5670596789
0.16815185546875	-0.0040655517578125	2107.78831167835
0.163726806640625	-0.00408477783203125	2108.00956367779
0.1593017578125	-0.00410186767578125	2108.23081567723
0.154876708984375	-0.0041204833984375	2108.45206767667
0.15045166015625	-0.00413848876953125	2108.67331967611
0.146026611328125	-0.00415771484375	2108.89457167555
0.1416015625	-0.00417816162109375	2109.11582367499
0.137176513671875	-0.00419891357421875	2109.33707567444
0.13275146484375	-0.00421875	2109.55832767388
0.128326416015625	-0.004239501953125	2109.77957967332
0.1239013671875	-0.00426025390625	2110.00083167276
0.119476318359375	-0.00428131103515625	2110.2220836722
0.11505126953125	-0.00430206298828125	2110.44333567164
0.110626220703125	-0.00432373046875	2110.66458767108
0.106201171875	-0.00434539794921875	2110.88583967053
0.101776123046875	-0.0043695068359375	2111.10709166997
0.09735107421875	-0.0043927001953125	2111.32834366941
0.092926025390625	-0.00441741943359375	2111.54959566885
0.0885009765625	-0.0044403076171875	2111.77084766829
0.084075927734375	-0.00446563720703125	2111.99209966773
0.07965087890625	-0.00449066162109375	2112.21335166717
0.075225830078125	-0.00451446533203125	2112.43460366662
0.07080078125	-0.00453887939453125	2112.65585566606
0.066375732421875	-0.00456573486328125	2112.8771076655
0.06195068359375	-0.00459320068359375	2113.09835966494
0.057525634765625	-0.004620361328125	2113.31961166438
0.0531005859375	-0.0046490478515625	2113.54086366382
0.048675537109375	-0.00467620849609375	2113.76211566326
0.04425048828125	-0.0047052001953125	2113.9833676627
0.039825439453125	-0.004735107421875	2114.20461966215
0.035400390625	-0.0047625732421875	2114.42587166159
0.030975341796875	-0.00479217529296875	2114.64712366103
0.02655029296875	-0.0048236083984375	2114.86837566047
0.022125244140625	-0.00485260009765625	2115.08962765991
0.0177001953125	-0.0048846435546875	2115.31087965935
0.013275146484375	-0.004915771484375	2115.53213165879
0.00885009765625	-0.00494903564453125	2115.75338365824
0.004425048828125	-0.0049810791015625	2115.97463565768
0	-0.0050146484375	2116.19588765712
0.004425048828125	-0.00436065673828125	2116.41713965656
0.00885009765625	-0.00376251220703125	2116.638391656
0.013275146484375	-0.0032135009765625	2116.85964365544
