Potential applied (V)	WE(1).Current (A)	Time (s)
0.004425048828125	-0.0090057373046875	2302.46333618684
0.00885009765625	-0.00855712890625	2302.48546118678
0.013275146484375	-0.00811767578125	2302.50758618673
0.0177001953125	-0.007684326171875	2302.52971118667
0.022125244140625	-0.0072540283203125	2302.55183618662
0.02655029296875	-0.0068328857421875	2302.57396118656
0.030975341796875	-0.006414794921875	2302.5960861865
0.035400390625	-0.006005859375	2302.61821118645
0.039825439453125	-0.005596923828125	2302.64033618639
0.04425048828125	-0.005194091796875	2302.66246118634
0.048675537109375	-0.004798583984375	2302.68458618628
0.0531005859375	-0.0044049072265625	2302.70671118622
0.057525634765625	-0.00401611328125	2302.72883618617
0.06195068359375	-0.00363037109375	2302.75096118611
0.066375732421875	-0.0032489013671875	2302.77308618606
0.07080078125	-0.0028814697265625	2302.795211186
0.075225830078125	-0.00250518798828125	2302.81733618595
0.07965087890625	-0.00213470458984375	2302.83946118589
0.084075927734375	-0.0017657470703125	2302.86158618583
0.0885009765625	-0.0014013671875	2302.88371118578
0.092926025390625	-0.0010394287109375	2302.90583618572
0.09735107421875	-0.00068084716796875	2302.92796118567
0.101776123046875	-0.00032537841796875	2302.95008618561
0.106201171875	2.66143798828125E-05	2302.97221118555
0.110626220703125	0.000375732421875	2302.9943361855
0.11505126953125	0.00072174072265625	2303.01646118544
0.119476318359375	0.00106353759765625	2303.03858618539
0.1239013671875	0.00140380859375	2303.06071118533
0.128326416015625	0.0017413330078125	2303.08283618527
0.13275146484375	0.00207611083984375	2303.10496118522
0.137176513671875	0.00240875244140625	2303.12708618516
0.1416015625	0.00273681640625	2303.14921118511
0.146026611328125	0.0030633544921875	2303.17133618505
0.15045166015625	0.00338775634765625	2303.193461185
0.154876708984375	0.0037078857421875	2303.21558618494
0.1593017578125	0.00402557373046875	2303.23771118488
0.163726806640625	0.0043408203125	2303.25983618483
0.16815185546875	0.00465423583984375	2303.28196118477
0.172576904296875	0.00496734619140625	2303.30408618472
0.177001953125	0.0052752685546875	2303.32621118466
0.181427001953125	0.0055810546875	2303.3483361846
0.18585205078125	0.00588470458984375	2303.37046118455
0.190277099609375	0.00618408203125	2303.39258618449
0.1947021484375	0.0064727783203125	2303.41471118444
0.199127197265625	0.006768798828125	2303.43683618438
0.20355224609375	0.007061767578125	2303.45896118433
0.207977294921875	0.007354736328125	2303.48108618427
0.21240234375	0.0076446533203125	2303.50321118421
0.216827392578125	0.00792236328125	2303.52533618416
0.22125244140625	0.008209228515625	2303.5474611841
0.225677490234375	0.0084930419921875	2303.56958618405
0.2301025390625	0.0087677001953125	2303.59171118399
0.234527587890625	0.00904541015625	2303.61383618393
0.23895263671875	0.009320068359375	2303.63596118388
0.243377685546875	0.0095855712890625	2303.65808618382
0.247802734375	0.009857177734375	2303.68021118377
0.252227783203125	0.0101226806640625	2303.70233618371
0.25665283203125	0.0103851318359375	2303.72446118365
0.261077880859375	0.0106475830078125	2303.7465861836
0.2655029296875	0.0109100341796875	2303.76871118354
0.269927978515625	0.0111663818359375	2303.79083618349
0.27435302734375	0.0114227294921875	2303.81296118343
0.278778076171875	0.0116790771484375	2303.83508618338
0.283203125	0.0119293212890625	2303.85721118332
0.287628173828125	0.0121795654296875	2303.87933618326
0.29205322265625	0.0124237060546875	2303.90146118321
0.296478271484375	0.0126708984375	2303.92358618315
0.3009033203125	0.0129119873046875	2303.9457111831
0.305328369140625	0.013153076171875	2303.96783618304
0.30975341796875	0.0133880615234375	2303.98996118298
0.314178466796875	0.013629150390625	2304.01208618293
0.318603515625	0.013861083984375	2304.03421118287
0.323028564453125	0.0140838623046875	2304.05633618282
0.32745361328125	0.014312744140625	2304.07846118276
0.331878662109375	0.01453857421875	2304.10058618271
0.3363037109375	0.014764404296875	2304.12271118265
0.340728759765625	0.0149871826171875	2304.14483618259
0.34515380859375	0.015203857421875	2304.16696118254
0.349578857421875	0.0154205322265625	2304.18908618248
0.35400390625	0.0156341552734375	2304.21121118243
0.358428955078125	0.0158447265625	2304.23333618237
0.36285400390625	0.0160614013671875	2304.25546118231
0.367279052734375	0.016259765625	2304.27758618226
0.3717041015625	0.0164703369140625	2304.2997111822
0.376129150390625	0.016668701171875	2304.32183618215
0.38055419921875	0.016876220703125	2304.34396118209
0.384979248046875	0.0170745849609375	2304.36608618203
0.389404296875	0.017266845703125	2304.38821118198
0.393829345703125	0.017462158203125	2304.41033618192
0.39825439453125	0.0176483154296875	2304.43246118187
0.402679443359375	0.017840576171875	2304.45458618181
0.4071044921875	0.0180328369140625	2304.47671118176
0.411529541015625	0.0182159423828125	2304.4988361817
0.41595458984375	0.0183990478515625	2304.52096118164
0.420379638671875	0.018585205078125	2304.54308618159
0.4248046875	0.0187652587890625	2304.56521118153
0.429229736328125	0.018939208984375	2304.58733618148
0.43365478515625	0.0191131591796875	2304.60946118142
0.438079833984375	0.0192840576171875	2304.63158618136
0.4425048828125	0.019451904296875	2304.65371118131
0.446929931640625	0.01962890625	2304.67583618125
0.45135498046875	0.0197967529296875	2304.6979611812
0.455780029296875	0.01995849609375	2304.72008618114
0.460205078125	0.0201141357421875	2304.74221118109
0.464630126953125	0.02027587890625	2304.76433618103
0.46905517578125	0.0204315185546875	2304.78646118097
0.473480224609375	0.0205963134765625	2304.80858618092
0.4779052734375	0.020751953125	2304.83071118086
0.482330322265625	0.0208984375	2304.85283618081
0.48675537109375	0.021044921875	2304.87496118075
0.491180419921875	0.02119140625	2304.89708618069
0.49560546875	0.0213348388671875	2304.91921118064
0.500030517578125	0.0214874267578125	2304.94133618058
0.50445556640625	0.021630859375	2304.96346118053
0.508880615234375	0.021771240234375	2304.98558618047
0.5133056640625	0.0219085693359375	2305.00771118041
0.517730712890625	0.0220428466796875	2305.02983618036
0.52215576171875	0.0221771240234375	2305.0519611803
0.526580810546875	0.0223052978515625	2305.07408618025
0.531005859375	0.0224365234375	2305.09621118019
0.535430908203125	0.022564697265625	2305.11833618014
0.53985595703125	0.022686767578125	2305.14046118008
0.544281005859375	0.02281494140625	2305.16258618002
0.5487060546875	0.0229339599609375	2305.18471117997
0.553131103515625	0.0230560302734375	2305.20683617991
0.55755615234375	0.0231689453125	2305.22896117986
0.561981201171875	0.023284912109375	2305.2510861798
0.56640625	0.02340087890625	2305.27321117974
0.570831298828125	0.023504638671875	2305.29533617969
0.57525634765625	0.0236114501953125	2305.31746117963
0.579681396484375	0.0237213134765625	2305.33958617958
0.5841064453125	0.0238250732421875	2305.36171117952
0.588531494140625	0.0239349365234375	2305.38383617947
0.59295654296875	0.0240386962890625	2305.40596117941
0.597381591796875	0.0241363525390625	2305.42808617935
0.601806640625	0.0242340087890625	2305.4502111793
0.606231689453125	0.024334716796875	2305.47233617924
0.61065673828125	0.0244354248046875	2305.49446117919
0.615081787109375	0.024530029296875	2305.51658617913
0.6195068359375	0.024615478515625	2305.53871117907
0.623931884765625	0.0247039794921875	2305.56083617902
0.62835693359375	0.024798583984375	2305.58296117896
0.632781982421875	0.024884033203125	2305.60508617891
0.63720703125	0.0249725341796875	2305.62721117885
0.641632080078125	0.025054931640625	2305.6493361788
0.64605712890625	0.0251373291015625	2305.67146117874
0.650482177734375	0.0252166748046875	2305.69358617868
0.6549072265625	0.0252899169921875	2305.71571117863
0.659332275390625	0.0253753662109375	2305.73783617857
0.66375732421875	0.02545166015625	2305.75996117852
0.668182373046875	0.0255279541015625	2305.78208617846
0.672607421875	0.025604248046875	2305.8042111784
0.677032470703125	0.0256744384765625	2305.82633617835
0.68145751953125	0.0257415771484375	2305.84846117829
0.685882568359375	0.025811767578125	2305.87058617824
0.6903076171875	0.025885009765625	2305.89271117818
0.694732666015625	0.0259490966796875	2305.91483617812
0.69915771484375	0.02601318359375	2305.93696117807
0.703582763671875	0.02607421875	2305.95908617801
0.7080078125	0.02613525390625	2305.98121117796
0.712432861328125	0.0261962890625	2306.0033361779
0.71685791015625	0.0262603759765625	2306.02546117785
0.721282958984375	0.0263153076171875	2306.04758617779
0.7257080078125	0.026373291015625	2306.06971117773
0.730133056640625	0.0264251708984375	2306.09183617768
0.73455810546875	0.0264801025390625	2306.11396117762
0.738983154296875	0.0265350341796875	2306.13608617757
0.743408203125	0.0265838623046875	2306.15821117751
0.747833251953125	0.0266357421875	2306.18033617745
0.75225830078125	0.026690673828125	2306.2024611774
0.756683349609375	0.0267303466796875	2306.22458617734
0.7611083984375	0.026776123046875	2306.24671117729
0.765533447265625	0.0268280029296875	2306.26883617723
0.76995849609375	0.0268707275390625	2306.29096117718
0.774383544921875	0.026910400390625	2306.31308617712
0.77880859375	0.026953125	2306.33521117706
0.783233642578125	0.0269866943359375	2306.35733617701
0.78765869140625	0.0270233154296875	2306.37946117695
0.792083740234375	0.027081298828125	2306.4015861769
0.7965087890625	0.02711181640625	2306.42371117684
0.800933837890625	0.0271514892578125	2306.44583617678
0.80535888671875	0.02718505859375	2306.46796117673
0.809783935546875	0.0272216796875	2306.49008617667
0.814208984375	0.0272552490234375	2306.51221117662
0.818634033203125	0.0272857666015625	2306.53433617656
0.82305908203125	0.0273193359375	2306.5564611765
0.827484130859375	0.0273529052734375	2306.57858617645
0.8319091796875	0.0273834228515625	2306.60071117639
0.836334228515625	0.0274261474609375	2306.62283617634
0.84075927734375	0.0274505615234375	2306.64496117628
0.845184326171875	0.0274658203125	2306.66708617623
0.849609375	0.027484130859375	2306.68921117617
0.854034423828125	0.02752685546875	2306.71133617611
0.85845947265625	0.0275634765625	2306.73346117606
0.862884521484375	0.0275848388671875	2306.755586176
0.8673095703125	0.027606201171875	2306.77771117595
0.871734619140625	0.0276336669921875	2306.79983617589
0.87615966796875	0.0276519775390625	2306.82196117583
0.880584716796875	0.027679443359375	2306.84408617578
0.885009765625	0.0276824951171875	2306.86621117572
0.889434814453125	0.027703857421875	2306.88833617567
0.89385986328125	0.027728271484375	2306.91046117561
0.898284912109375	0.0277313232421875	2306.93258617556
0.9027099609375	0.0277618408203125	2306.9547111755
0.907135009765625	0.0277587890625	2306.97683617544
0.91156005859375	0.0277801513671875	2306.99896117539
0.915985107421875	0.0277923583984375	2307.02108617533
0.92041015625	0.0278228759765625	2307.04321117528
0.924835205078125	0.02783203125	2307.06533617522
0.92926025390625	0.0278533935546875	2307.08746117516
0.933685302734375	0.0278564453125	2307.10958617511
0.9381103515625	0.0278564453125	2307.13171117505
0.942535400390625	0.027880859375	2307.153836175
0.94696044921875	0.027880859375	2307.17596117494
0.951385498046875	0.027886962890625	2307.19808617488
0.955810546875	0.0279052734375	2307.22021117483
0.960235595703125	0.02791748046875	2307.24233617477
0.96466064453125	0.0279296875	2307.26446117472
0.969085693359375	0.02794189453125	2307.28658617466
0.9735107421875	0.0279510498046875	2307.30871117461
0.977935791015625	0.027947998046875	2307.33083617455
0.98236083984375	0.0279510498046875	2307.35296117449
0.986785888671875	0.0279693603515625	2307.37508617444
0.9912109375	0.0279876708984375	2307.39721117438
0.995635986328125	0.0279998779296875	2307.41933617433
1.00006103515625	0.0280181884765625	2307.44146117427
0.995635986328125	0.02720947265625	2307.46358617421
0.9912109375	0.026446533203125	2307.48571117416
0.986785888671875	0.0256988525390625	2307.5078361741
0.98236083984375	0.024957275390625	2307.52996117405
0.977935791015625	0.024237060546875	2307.55208617399
0.9735107421875	0.02353515625	2307.57421117394
0.969085693359375	0.022857666015625	2307.59633617388
0.96466064453125	0.0221923828125	2307.61846117382
0.960235595703125	0.0215423583984375	2307.64058617377
0.955810546875	0.020892333984375	2307.66271117371
0.951385498046875	0.0202667236328125	2307.68483617366
0.94696044921875	0.0196502685546875	2307.7069611736
0.942535400390625	0.01904296875	2307.72908617354
0.9381103515625	0.018438720703125	2307.75121117349
0.933685302734375	0.017840576171875	2307.77333617343
0.92926025390625	0.0172607421875	2307.79546117338
0.924835205078125	0.01669921875	2307.81758617332
0.92041015625	0.016143798828125	2307.83971117326
0.915985107421875	0.0155975341796875	2307.86183617321
0.91156005859375	0.0150543212890625	2307.88396117315
0.907135009765625	0.0145172119140625	2307.9060861731
0.9027099609375	0.013995361328125	2307.92821117304
0.898284912109375	0.0134796142578125	2307.95033617299
0.89385986328125	0.012969970703125	2307.97246117293
0.889434814453125	0.0124725341796875	2307.99458617287
0.885009765625	0.011981201171875	2308.01671117282
0.880584716796875	0.011492919921875	2308.03883617276
0.87615966796875	0.011016845703125	2308.06096117271
0.871734619140625	0.010552978515625	2308.08308617265
0.8673095703125	0.010089111328125	2308.10521117259
0.862884521484375	0.009625244140625	2308.12733617254
0.85845947265625	0.0091827392578125	2308.14946117248
0.854034423828125	0.0087371826171875	2308.17158617243
0.849609375	0.00830078125	2308.19371117237
0.845184326171875	0.007867431640625	2308.21583617231
0.84075927734375	0.0074462890625	2308.23796117226
0.836334228515625	0.0070281982421875	2308.2600861722
0.8319091796875	0.0066131591796875	2308.28221117215
0.827484130859375	0.0062042236328125	2308.30433617209
0.82305908203125	0.005804443359375	2308.32646117204
0.818634033203125	0.0054107666015625	2308.34858617198
0.814208984375	0.00501708984375	2308.37071117192
0.809783935546875	0.00463226318359375	2308.39283617187
0.80535888671875	0.00425018310546875	2308.41496117181
0.800933837890625	0.0038763427734375	2308.43708617176
0.7965087890625	0.003505859375	2308.4592111717
0.792083740234375	0.0031390380859375	2308.48133617165
0.78765869140625	0.002781982421875	2308.50346117159
0.783233642578125	0.0024237060546875	2308.52558617153
0.77880859375	0.00207122802734375	2308.54771117148
0.774383544921875	0.00172332763671875	2308.56983617142
0.76995849609375	0.00138031005859375	2308.59196117137
0.765533447265625	0.0010406494140625	2308.61408617131
0.7611083984375	0.00070587158203125	2308.63621117125
0.756683349609375	0.000374481201171875	2308.6583361712
0.75225830078125	4.7607421875E-05	2308.68046117114
0.747833251953125	-0.000274810791015625	2308.70258617109
0.743408203125	-0.00059326171875	2308.72471117103
0.738983154296875	-0.00090576171875	2308.74683617097
0.73455810546875	-0.0012164306640625	2308.76896117092
0.730133056640625	-0.00152435302734375	2308.79108617086
0.7257080078125	-0.001827392578125	2308.81321117081
0.721282958984375	-0.00212646484375	2308.83533617075
0.71685791015625	-0.0024224853515625	2308.8574611707
0.712432861328125	-0.00271392822265625	2308.87958617064
0.7080078125	-0.00300262451171875	2308.90171117058
0.703582763671875	-0.0032879638671875	2308.92383617053
0.69915771484375	-0.0035693359375	2308.94596117047
0.694732666015625	-0.00384735107421875	2308.96808617042
0.6903076171875	-0.00412200927734375	2308.99021117036
0.685882568359375	-0.00439422607421875	2309.0123361703
0.68145751953125	-0.0046624755859375	2309.03446117025
0.677032470703125	-0.00492828369140625	2309.05658617019
0.672607421875	-0.00519012451171875	2309.07871117014
0.668182373046875	-0.00544952392578125	2309.10083617008
0.66375732421875	-0.00570526123046875	2309.12296117003
0.659332275390625	-0.00595855712890625	2309.14508616997
0.6549072265625	-0.0062078857421875	2309.16721116991
0.650482177734375	-0.00643310546875	2309.18933616986
0.64605712890625	-0.00667724609375	2309.2114611698
0.641632080078125	-0.0069183349609375	2309.23358616975
0.63720703125	-0.0071563720703125	2309.25571116969
0.632781982421875	-0.007391357421875	2309.27783616963
0.62835693359375	-0.007623291015625	2309.29996116958
0.623931884765625	-0.0078521728515625	2309.32208616952
0.6195068359375	-0.0080810546875	2309.34421116947
0.615081787109375	-0.008306884765625	2309.36633616941
0.61065673828125	-0.008526611328125	2309.38846116935
0.606231689453125	-0.0087432861328125	2309.4105861693
0.601806640625	-0.0089599609375	2309.43271116924
0.597381591796875	-0.0091766357421875	2309.45483616919
0.59295654296875	-0.0093841552734375	2309.47696116913
0.588531494140625	-0.0095947265625	2309.49908616908
0.5841064453125	-0.0097991943359375	2309.52121116902
0.579681396484375	-0.0100067138671875	2309.54333616896
0.57525634765625	-0.0102081298828125	2309.56546116891
0.570831298828125	-0.0104095458984375	2309.58758616885
0.56640625	-0.01060791015625	2309.6097111688
0.561981201171875	-0.01080322265625	2309.63183616874
0.55755615234375	-0.010992431640625	2309.65396116868
0.553131103515625	-0.0111846923828125	2309.67608616863
0.5487060546875	-0.011376953125	2309.69821116857
0.544281005859375	-0.0115631103515625	2309.72033616852
0.53985595703125	-0.0117462158203125	2309.74246116846
0.535430908203125	-0.0119293212890625	2309.76458616841
0.531005859375	-0.012109375	2309.78671116835
0.526580810546875	-0.0122894287109375	2309.80883616829
0.52215576171875	-0.01246337890625	2309.83096116824
0.517730712890625	-0.0126373291015625	2309.85308616818
0.5133056640625	-0.0128082275390625	2309.87521116813
0.508880615234375	-0.0129791259765625	2309.89733616807
0.50445556640625	-0.0131500244140625	2309.91946116801
0.500030517578125	-0.0133148193359375	2309.94158616796
0.49560546875	-0.0134918212890625	2309.9637111679
0.491180419921875	-0.01365966796875	2309.98583616785
0.48675537109375	-0.0138214111328125	2310.00796116779
0.482330322265625	-0.0139862060546875	2310.03008616773
0.4779052734375	-0.0141448974609375	2310.05221116768
0.473480224609375	-0.014300537109375	2310.07433616762
0.46905517578125	-0.0144622802734375	2310.09646116757
0.464630126953125	-0.014617919921875	2310.11858616751
0.460205078125	-0.0147735595703125	2310.14071116746
0.455780029296875	-0.0149200439453125	2310.1628361674
0.45135498046875	-0.0150726318359375	2310.18496116734
0.446929931640625	-0.0152191162109375	2310.20708616729
0.4425048828125	-0.0153656005859375	2310.22921116723
0.438079833984375	-0.015509033203125	2310.25133616718
0.43365478515625	-0.015655517578125	2310.27346116712
0.429229736328125	-0.0158050537109375	2310.29558616706
0.4248046875	-0.0159515380859375	2310.31771116701
0.420379638671875	-0.0160980224609375	2310.33983616695
0.41595458984375	-0.0162384033203125	2310.3619611669
0.411529541015625	-0.0163787841796875	2310.38408616684
0.4071044921875	-0.01651611328125	2310.40621116678
0.402679443359375	-0.0166534423828125	2310.42833616673
0.39825439453125	-0.0167938232421875	2310.45046116667
0.393829345703125	-0.0169281005859375	2310.47258616662
0.389404296875	-0.0170654296875	2310.49471116656
0.384979248046875	-0.0171905517578125	2310.51683616651
0.38055419921875	-0.017327880859375	2310.53896116645
0.376129150390625	-0.0174560546875	2310.56108616639
0.3717041015625	-0.01759033203125	2310.58321116634
0.367279052734375	-0.0177276611328125	2310.60533616628
0.36285400390625	-0.017852783203125	2310.62746116623
0.358428955078125	-0.0179779052734375	2310.64958616617
0.35400390625	-0.01810302734375	2310.67171116611
0.349578857421875	-0.0182281494140625	2310.69383616606
0.34515380859375	-0.018353271484375	2310.715961166
0.340728759765625	-0.0184814453125	2310.73808616595
0.3363037109375	-0.018603515625	2310.76021116589
0.331878662109375	-0.0187286376953125	2310.78233616584
0.32745361328125	-0.01884765625	2310.80446116578
0.323028564453125	-0.0189697265625	2310.82658616572
0.318603515625	-0.019085693359375	2310.84871116567
0.314178466796875	-0.019207763671875	2310.87083616561
0.30975341796875	-0.019329833984375	2310.89296116556
0.305328369140625	-0.019451904296875	2310.9150861655
0.3009033203125	-0.01956787109375	2310.93721116544
0.296478271484375	-0.019683837890625	2310.95933616539
0.29205322265625	-0.0198028564453125	2310.98146116533
0.287628173828125	-0.019921875	2311.00358616528
0.283203125	-0.0200347900390625	2311.02571116522
0.278778076171875	-0.0201507568359375	2311.04783616516
0.27435302734375	-0.020263671875	2311.06996116511
0.269927978515625	-0.02037353515625	2311.09208616505
0.2655029296875	-0.0204864501953125	2311.114211165
0.261077880859375	-0.0205963134765625	2311.13633616494
0.25665283203125	-0.020703125	2311.15846116489
0.252227783203125	-0.0208221435546875	2311.18058616483
0.247802734375	-0.02093505859375	2311.20271116477
0.243377685546875	-0.0210418701171875	2311.22483616472
0.23895263671875	-0.02115478515625	2311.24696116466
0.234527587890625	-0.021258544921875	2311.26908616461
0.2301025390625	-0.021368408203125	2311.29121116455
0.225677490234375	-0.0214813232421875	2311.3133361645
0.22125244140625	-0.0215911865234375	2311.33546116444
0.216827392578125	-0.021697998046875	2311.35758616438
0.21240234375	-0.0218048095703125	2311.37971116433
0.207977294921875	-0.021905517578125	2311.40183616427
0.20355224609375	-0.0220123291015625	2311.42396116422
0.199127197265625	-0.022113037109375	2311.44608616416
0.1947021484375	-0.022216796875	2311.4682111641
0.190277099609375	-0.0223236083984375	2311.49033616405
0.18585205078125	-0.02242431640625	2311.51246116399
0.181427001953125	-0.022528076171875	2311.53458616394
0.177001953125	-0.022637939453125	2311.55671116388
0.172576904296875	-0.0227447509765625	2311.57883616382
0.16815185546875	-0.02283935546875	2311.60096116377
0.163726806640625	-0.022943115234375	2311.62308616371
0.1593017578125	-0.0230438232421875	2311.64521116366
0.154876708984375	-0.023138427734375	2311.6673361636
0.15045166015625	-0.0232421875	2311.68946116355
0.146026611328125	-0.0233367919921875	2311.71158616349
0.1416015625	-0.0234375	2311.73371116343
0.137176513671875	-0.02353515625	2311.75583616338
0.13275146484375	-0.023638916015625	2311.77796116332
0.128326416015625	-0.02373046875	2311.80008616327
0.1239013671875	-0.023828125	2311.82221116321
0.119476318359375	-0.023931884765625	2311.84433616315
0.11505126953125	-0.0240264892578125	2311.8664611631
0.110626220703125	-0.0241241455078125	2311.88858616304
0.106201171875	-0.0242218017578125	2311.91071116299
0.101776123046875	-0.0243194580078125	2311.93283616293
0.09735107421875	-0.0244232177734375	2311.95496116287
0.092926025390625	-0.0245208740234375	2311.97708616282
0.0885009765625	-0.0246124267578125	2311.99921116276
0.084075927734375	-0.02470703125	2312.02133616271
0.07965087890625	-0.0248016357421875	2312.04346116265
0.075225830078125	-0.0248992919921875	2312.0655861626
0.07080078125	-0.02498779296875	2312.08771116254
0.066375732421875	-0.0250885009765625	2312.10983616248
0.06195068359375	-0.02518310546875	2312.13196116243
0.057525634765625	-0.025274658203125	2312.15408616237
0.0531005859375	-0.0253692626953125	2312.17621116232
0.048675537109375	-0.0254730224609375	2312.19833616226
0.04425048828125	-0.025567626953125	2312.2204611622
0.039825439453125	-0.0256561279296875	2312.24258616215
0.035400390625	-0.025750732421875	2312.26471116209
0.030975341796875	-0.025848388671875	2312.28683616204
0.02655029296875	-0.025946044921875	2312.30896116198
0.022125244140625	-0.02603759765625	2312.33108616193
0.0177001953125	-0.0261383056640625	2312.35321116187
0.013275146484375	-0.026239013671875	2312.37533616181
0.00885009765625	-0.02633056640625	2312.39746116176
0.004425048828125	-0.026434326171875	2312.4195861617
0	-0.02652587890625	2312.44171116165
0.004425048828125	-0.0258056640625	2312.46383616159
0.00885009765625	-0.025103759765625	2312.48596116153
0.013275146484375	-0.024432373046875	2312.50808616148
0.0177001953125	-0.02376708984375	2312.53021116142
0.022125244140625	-0.0231201171875	2312.55233616137
0.02655029296875	-0.02247314453125	2312.57446116131
0.030975341796875	-0.0218536376953125	2312.59658616125
0.035400390625	-0.021240234375	2312.6187111612
0.039825439453125	-0.0206298828125	2312.64083616114
0.04425048828125	-0.0200408935546875	2312.66296116109
0.048675537109375	-0.0194488525390625	2312.68508616103
0.0531005859375	-0.0188690185546875	2312.70721116098
0.057525634765625	-0.0182952880859375	2312.72933616092
0.06195068359375	-0.01773681640625	2312.75146116086
0.066375732421875	-0.0171905517578125	2312.77358616081
0.07080078125	-0.0166473388671875	2312.79571116075
0.075225830078125	-0.0161102294921875	2312.8178361607
0.07965087890625	-0.015582275390625	2312.83996116064
0.084075927734375	-0.015057373046875	2312.86208616058
0.0885009765625	-0.0145477294921875	2312.88421116053
0.092926025390625	-0.014044189453125	2312.90633616047
0.09735107421875	-0.013543701171875	2312.92846116042
0.101776123046875	-0.01304931640625	2312.95058616036
0.106201171875	-0.0125579833984375	2312.97271116031
0.110626220703125	-0.012078857421875	2312.99483616025
0.11505126953125	-0.011602783203125	2313.01696116019
0.119476318359375	-0.0111328125	2313.03908616014
0.1239013671875	-0.010675048828125	2313.06121116008
0.128326416015625	-0.0102142333984375	2313.08333616003
0.13275146484375	-0.0097625732421875	2313.10546115997
0.137176513671875	-0.00931396484375	2313.12758615991
0.1416015625	-0.00887451171875	2313.14971115986
0.146026611328125	-0.0084381103515625	2313.1718361598
0.15045166015625	-0.0080047607421875	2313.19396115975
0.154876708984375	-0.0075836181640625	2313.21608615969
0.1593017578125	-0.0071624755859375	2313.23821115963
0.163726806640625	-0.0067474365234375	2313.26033615958
0.16815185546875	-0.00633544921875	2313.28246115952
0.172576904296875	-0.0059295654296875	2313.30458615947
0.177001953125	-0.005523681640625	2313.32671115941
0.181427001953125	-0.005126953125	2313.34883615936
0.18585205078125	-0.004735107421875	2313.3709611593
0.190277099609375	-0.0043450927734375	2313.39308615924
0.1947021484375	-0.0039593505859375	2313.41521115919
0.199127197265625	-0.00357818603515625	2313.43733615913
0.20355224609375	-0.0032012939453125	2313.45946115908
0.207977294921875	-0.00283966064453125	2313.48158615902
0.21240234375	-0.00246978759765625	2313.50371115896
0.216827392578125	-0.002103271484375	2313.52583615891
0.22125244140625	-0.00174041748046875	2313.54796115885
0.225677490234375	-0.00138214111328125	2313.5700861588
0.2301025390625	-0.0010272216796875	2313.59221115874
0.234527587890625	-0.00067626953125	2313.61433615869
0.23895263671875	-0.000328369140625	2313.63646115863
0.243377685546875	1.6241455078125E-05	2313.65858615857
0.247802734375	0.000357086181640625	2313.68071115852
0.252227783203125	0.00069488525390625	2313.70283615846
0.25665283203125	0.0010296630859375	2313.72496115841
0.261077880859375	0.001361083984375	2313.74708615835
0.2655029296875	0.001689453125	2313.76921115829
0.269927978515625	0.0020147705078125	2313.79133615824
0.27435302734375	0.00233551025390625	2313.81346115818
0.278778076171875	0.00265411376953125	2313.83558615813
0.283203125	0.00296905517578125	2313.85771115807
0.287628173828125	0.003282470703125	2313.87983615801
0.29205322265625	0.00359161376953125	2313.90196115796
0.296478271484375	0.003897705078125	2313.9240861579
0.3009033203125	0.00420135498046875	2313.94621115785
0.305328369140625	0.0045025634765625	2313.96833615779
0.30975341796875	0.004801025390625	2313.99046115774
0.314178466796875	0.00509765625	2314.01258615768
0.318603515625	0.00539031982421875	2314.03471115762
0.323028564453125	0.0056787109375	2314.05683615757
0.32745361328125	0.005965576171875	2314.07896115751
0.331878662109375	0.00624847412109375	2314.10108615746
0.3363037109375	0.0065185546875	2314.1232111574
0.340728759765625	0.00679931640625	2314.14533615734
0.34515380859375	0.007073974609375	2314.16746115729
0.349578857421875	0.0073455810546875	2314.18958615723
0.35400390625	0.0076171875	2314.21171115718
0.358428955078125	0.007879638671875	2314.23383615712
0.36285400390625	0.0081451416015625	2314.25596115707
0.367279052734375	0.008404541015625	2314.27808615701
0.3717041015625	0.0086639404296875	2314.30021115695
0.376129150390625	0.0089202880859375	2314.3223361569
0.38055419921875	0.0091766357421875	2314.34446115684
0.384979248046875	0.0094268798828125	2314.36658615679
0.389404296875	0.009674072265625	2314.38871115673
0.393829345703125	0.0099212646484375	2314.41083615667
0.39825439453125	0.01016845703125	2314.43296115662
0.402679443359375	0.0104095458984375	2314.45508615656
0.4071044921875	0.010650634765625	2314.47721115651
0.411529541015625	0.0108856201171875	2314.49933615645
0.41595458984375	0.0111175537109375	2314.5214611564
0.420379638671875	0.0113525390625	2314.54358615634
0.4248046875	0.0115753173828125	2314.56571115628
0.429229736328125	0.01180419921875	2314.58783615623
0.43365478515625	0.0120269775390625	2314.60996115617
0.438079833984375	0.012255859375	2314.63208615612
0.4425048828125	0.012469482421875	2314.65421115606
0.446929931640625	0.0126861572265625	2314.676336156
0.45135498046875	0.0128997802734375	2314.69846115595
0.455780029296875	0.0131134033203125	2314.72058615589
0.460205078125	0.013323974609375	2314.74271115584
0.464630126953125	0.013525390625	2314.76483615578
0.46905517578125	0.01373291015625	2314.78696115572
0.473480224609375	0.0139373779296875	2314.80908615567
0.4779052734375	0.0141357421875	2314.83121115561
0.482330322265625	0.0143341064453125	2314.85333615556
0.48675537109375	0.0145294189453125	2314.8754611555
0.491180419921875	0.0147247314453125	2314.89758615545
0.49560546875	0.0149139404296875	2314.91971115539
0.500030517578125	0.0151031494140625	2314.94183615533
0.50445556640625	0.0152923583984375	2314.96396115528
0.508880615234375	0.0154754638671875	2314.98608615522
0.5133056640625	0.015655517578125	2315.00821115517
0.517730712890625	0.0158355712890625	2315.03033615511
0.52215576171875	0.0160186767578125	2315.05246115505
0.526580810546875	0.01619873046875	2315.074586155
0.531005859375	0.0163726806640625	2315.09671115494
0.535430908203125	0.0165435791015625	2315.11883615489
0.53985595703125	0.01671142578125	2315.14096115483
0.544281005859375	0.0168792724609375	2315.16308615478
0.5487060546875	0.0170440673828125	2315.18521115472
0.553131103515625	0.017205810546875	2315.20733615466
0.55755615234375	0.01737060546875	2315.22946115461
0.561981201171875	0.0175262451171875	2315.25158615455
0.56640625	0.0176849365234375	2315.2737111545
0.570831298828125	0.017840576171875	2315.29583615444
0.57525634765625	0.0179962158203125	2315.31796115438
0.579681396484375	0.01815185546875	2315.34008615433
0.5841064453125	0.018304443359375	2315.36221115427
0.588531494140625	0.0184417724609375	2315.38433615422
0.59295654296875	0.0185882568359375	2315.40646115416
0.597381591796875	0.0187286376953125	2315.4285861541
0.601806640625	0.0188751220703125	2315.45071115405
0.606231689453125	0.0190185546875	2315.47283615399
0.61065673828125	0.0191619873046875	2315.49496115394
0.615081787109375	0.0193023681640625	2315.51708615388
0.6195068359375	0.019439697265625	2315.53921115383
0.623931884765625	0.01956787109375	2315.56133615377
0.62835693359375	0.0197021484375	2315.58346115371
0.632781982421875	0.0198333740234375	2315.60558615366
0.63720703125	0.0199615478515625	2315.6277111536
0.641632080078125	0.0200897216796875	2315.64983615355
0.64605712890625	0.020208740234375	2315.67196115349
0.650482177734375	0.020330810546875	2315.69408615343
0.6549072265625	0.0204437255859375	2315.71621115338
0.659332275390625	0.020562744140625	2315.73833615332
0.66375732421875	0.0206787109375	2315.76046115327
0.668182373046875	0.020794677734375	2315.78258615321
0.672607421875	0.02091064453125	2315.80471115316
0.677032470703125	0.0210235595703125	2315.8268361531
0.68145751953125	0.02113037109375	2315.84896115304
0.685882568359375	0.0212371826171875	2315.87108615299
0.6903076171875	0.0213409423828125	2315.89321115293
0.694732666015625	0.021453857421875	2315.91533615288
0.69915771484375	0.021551513671875	2315.93746115282
0.703582763671875	0.0216552734375	2315.95958615276
0.7080078125	0.0217529296875	2315.98171115271
0.712432861328125	0.0218475341796875	2316.00383615265
0.71685791015625	0.021942138671875	2316.0259611526
0.721282958984375	0.0220367431640625	2316.04808615254
0.7257080078125	0.0221282958984375	2316.07021115248
0.730133056640625	0.022222900390625	2316.09233615243
0.73455810546875	0.022314453125	2316.11446115237
0.738983154296875	0.022406005859375	2316.13658615232
0.743408203125	0.0224884033203125	2316.15871115226
0.747833251953125	0.0225738525390625	2316.18083615221
0.75225830078125	0.022662353515625	2316.20296115215
0.756683349609375	0.022747802734375	2316.22508615209
0.7611083984375	0.0228271484375	2316.24721115204
0.765533447265625	0.0229034423828125	2316.26933615198
0.76995849609375	0.02298583984375	2316.29146115193
0.774383544921875	0.0230621337890625	2316.31358615187
0.77880859375	0.02313232421875	2316.33571115181
0.783233642578125	0.0232086181640625	2316.35783615176
0.78765869140625	0.0232818603515625	2316.3799611517
0.792083740234375	0.0233551025390625	2316.40208615165
0.7965087890625	0.0234283447265625	2316.42421115159
0.800933837890625	0.0234893798828125	2316.44633615154
0.80535888671875	0.0235595703125	2316.46846115148
0.809783935546875	0.0236236572265625	2316.49058615142
0.814208984375	0.0236907958984375	2316.51271115137
0.818634033203125	0.0237548828125	2316.53483615131
0.82305908203125	0.02381591796875	2316.55696115126
0.827484130859375	0.023876953125	2316.5790861512
0.8319091796875	0.0239410400390625	2316.60121115114
0.836334228515625	0.0239990234375	2316.62333615109
0.84075927734375	0.0240570068359375	2316.64546115103
0.845184326171875	0.024114990234375	2316.66758615098
0.849609375	0.024169921875	2316.68971115092
0.854034423828125	0.0242279052734375	2316.71183615086
0.85845947265625	0.02427978515625	2316.73396115081
0.862884521484375	0.024334716796875	2316.75608615075
0.8673095703125	0.0243865966796875	2316.7782111507
0.871734619140625	0.024444580078125	2316.80033615064
0.87615966796875	0.0244903564453125	2316.82246115059
0.880584716796875	0.0245391845703125	2316.84458615053
0.885009765625	0.0245880126953125	2316.86671115047
0.889434814453125	0.0246307373046875	2316.88883615042
0.89385986328125	0.0246826171875	2316.91096115036
0.898284912109375	0.024725341796875	2316.93308615031
0.9027099609375	0.024774169921875	2316.95521115025
0.907135009765625	0.0248199462890625	2316.97733615019
0.91156005859375	0.024859619140625	2316.99946115014
0.915985107421875	0.02490234375	2317.02158615008
0.92041015625	0.02493896484375	2317.04371115003
0.924835205078125	0.0249847412109375	2317.06583614997
0.92926025390625	0.0250213623046875	2317.08796114992
0.933685302734375	0.02506103515625	2317.11008614986
0.9381103515625	0.0251007080078125	2317.1322111498
0.942535400390625	0.025140380859375	2317.15433614975
0.94696044921875	0.02518310546875	2317.17646114969
0.951385498046875	0.0252227783203125	2317.19858614964
0.955810546875	0.0252593994140625	2317.22071114958
0.960235595703125	0.0253021240234375	2317.24283614952
0.96466064453125	0.025335693359375	2317.26496114947
0.969085693359375	0.0253753662109375	2317.28708614941
0.9735107421875	0.0254119873046875	2317.30921114936
0.977935791015625	0.025445556640625	2317.3313361493
0.98236083984375	0.02547607421875	2317.35346114925
0.986785888671875	0.0255096435546875	2317.37558614919
0.9912109375	0.0255462646484375	2317.39771114913
0.995635986328125	0.0255828857421875	2317.41983614908
1.00006103515625	0.02562255859375	2317.44196114902
0.995635986328125	0.02486572265625	2317.46408614897
0.9912109375	0.024127197265625	2317.48621114891
0.986785888671875	0.023406982421875	2317.50833614885
0.98236083984375	0.0227081298828125	2317.5304611488
0.977935791015625	0.0220245361328125	2317.55258614874
0.9735107421875	0.0213531494140625	2317.57471114869
0.969085693359375	0.0206939697265625	2317.59683614863
0.96466064453125	0.020050048828125	2317.61896114857
0.960235595703125	0.0194183349609375	2317.64108614852
0.955810546875	0.018792724609375	2317.66321114846
0.951385498046875	0.0181854248046875	2317.68533614841
0.94696044921875	0.0175872802734375	2317.70746114835
0.942535400390625	0.017010498046875	2317.7295861483
0.9381103515625	0.016436767578125	2317.75171114824
0.933685302734375	0.015863037109375	2317.77383614818
0.92926025390625	0.0153106689453125	2317.79596114813
0.924835205078125	0.014764404296875	2317.81808614807
0.92041015625	0.014227294921875	2317.84021114802
0.915985107421875	0.013702392578125	2317.86233614796
0.91156005859375	0.01318359375	2317.8844611479
0.907135009765625	0.0126739501953125	2317.90658614785
0.9027099609375	0.0121734619140625	2317.92871114779
0.898284912109375	0.011676025390625	2317.95083614774
0.89385986328125	0.0111907958984375	2317.97296114768
0.889434814453125	0.010711669921875	2317.99508614762
0.885009765625	0.0102386474609375	2318.01721114757
0.880584716796875	0.0097747802734375	2318.03933614751
0.87615966796875	0.0093170166015625	2318.06146114746
0.871734619140625	0.008868408203125	2318.0835861474
0.8673095703125	0.0084259033203125	2318.10571114735
0.862884521484375	0.0079864501953125	2318.12783614729
0.85845947265625	0.0075592041015625	2318.14996114723
0.854034423828125	0.0071319580078125	2318.17208614718
0.849609375	0.0067138671875	2318.19421114712
0.845184326171875	0.006298828125	2318.21633614707
0.84075927734375	0.0058929443359375	2318.23846114701
0.836334228515625	0.0054931640625	2318.26058614695
0.8319091796875	0.005096435546875	2318.2827111469
0.827484130859375	0.0047076416015625	2318.30483614684
0.82305908203125	0.0043231201171875	2318.32696114679
0.818634033203125	0.00394378662109375	2318.34908614673
0.814208984375	0.0035693359375	2318.37121114668
0.809783935546875	0.0032012939453125	2318.39333614662
0.80535888671875	0.00283782958984375	2318.41546114656
0.800933837890625	0.00247711181640625	2318.43758614651
0.7965087890625	0.0021209716796875	2318.45971114645
0.792083740234375	0.0017694091796875	2318.4818361464
0.78765869140625	0.0014227294921875	2318.50396114634
0.783233642578125	0.00108062744140625	2318.52608614628
0.77880859375	0.000743408203125	2318.54821114623
0.774383544921875	0.000409881591796875	2318.57033614617
0.76995849609375	8.0474853515625E-05	2318.59246114612
0.765533447265625	-0.00024468994140625	2318.61458614606
0.7611083984375	-0.00056549072265625	2318.636711146
0.756683349609375	-0.000882568359375	2318.65883614595
0.75225830078125	-0.00119598388671875	2318.68096114589
0.747833251953125	-0.00150482177734375	2318.70308614584
0.743408203125	-0.001810302734375	2318.72521114578
0.738983154296875	-0.0021099853515625	2318.74733614573
0.73455810546875	-0.002408447265625	2318.76946114567
0.730133056640625	-0.00270233154296875	2318.79158614561
0.7257080078125	-0.00299224853515625	2318.81371114556
0.721282958984375	-0.00327972412109375	2318.8358361455
0.71685791015625	-0.00356353759765625	2318.85796114545
0.712432861328125	-0.0038427734375	2318.88008614539
0.7080078125	-0.0041204833984375	2318.90221114533
0.703582763671875	-0.00439300537109375	2318.92433614528
0.69915771484375	-0.004661865234375	2318.94646114522
0.694732666015625	-0.00492828369140625	2318.96858614517
0.6903076171875	-0.00519195556640625	2318.99071114511
0.685882568359375	-0.0054510498046875	2319.01283614506
0.68145751953125	-0.005709228515625	2319.034961145
0.677032470703125	-0.0059637451171875	2319.05708614494
0.672607421875	-0.0062127685546875	2319.07921114489
0.668182373046875	-0.006439208984375	2319.10133614483
0.66375732421875	-0.006683349609375	2319.12346114478
0.659332275390625	-0.0069244384765625	2319.14558614472
0.6549072265625	-0.0071624755859375	2319.16771114466
0.650482177734375	-0.0073974609375	2319.18983614461
0.64605712890625	-0.00762939453125	2319.21196114455
0.641632080078125	-0.0078582763671875	2319.2340861445
0.63720703125	-0.0080841064453125	2319.25621114444
0.632781982421875	-0.0083099365234375	2319.27833614439
0.62835693359375	-0.00853271484375	2319.30046114433
0.623931884765625	-0.00875244140625	2319.32258614427
0.6195068359375	-0.0089691162109375	2319.34471114422
0.615081787109375	-0.0091827392578125	2319.36683614416
0.61065673828125	-0.0093902587890625	2319.38896114411
0.606231689453125	-0.009600830078125	2319.41108614405
0.601806640625	-0.009808349609375	2319.43321114399
0.597381591796875	-0.0100128173828125	2319.45533614394
0.59295654296875	-0.010211181640625	2319.47746114388
0.588531494140625	-0.01041259765625	2319.49958614383
0.5841064453125	-0.01060791015625	2319.52171114377
0.579681396484375	-0.01080322265625	2319.54383614371
0.57525634765625	-0.010992431640625	2319.56596114366
0.570831298828125	-0.0111846923828125	2319.5880861436
0.56640625	-0.0113739013671875	2319.61021114355
0.561981201171875	-0.01156005859375	2319.63233614349
0.55755615234375	-0.0117431640625	2319.65446114344
0.553131103515625	-0.0119232177734375	2319.67658614338
0.5487060546875	-0.0121063232421875	2319.69871114332
0.544281005859375	-0.012286376953125	2319.72083614327
0.53985595703125	-0.0124603271484375	2319.74296114321
0.535430908203125	-0.0126312255859375	2319.76508614316
0.531005859375	-0.01280517578125	2319.7872111431
0.526580810546875	-0.01297607421875	2319.80933614304
0.52215576171875	-0.0131500244140625	2319.83146114299
0.517730712890625	-0.0133148193359375	2319.85358614293
0.5133056640625	-0.0134796142578125	2319.87571114288
0.508880615234375	-0.0136474609375	2319.89783614282
0.50445556640625	-0.0138092041015625	2319.91996114277
0.500030517578125	-0.013970947265625	2319.94208614271
0.49560546875	-0.0141265869140625	2319.96421114265
0.491180419921875	-0.0142822265625	2319.9863361426
0.48675537109375	-0.0144378662109375	2320.00846114254
0.482330322265625	-0.014593505859375	2320.03058614249
0.4779052734375	-0.014739990234375	2320.05271114243
0.473480224609375	-0.0148834228515625	2320.07483614237
0.46905517578125	-0.015032958984375	2320.09696114232
0.464630126953125	-0.0151824951171875	2320.11908614226
0.460205078125	-0.0153350830078125	2320.14121114221
0.455780029296875	-0.015484619140625	2320.16333614215
0.45135498046875	-0.0156280517578125	2320.18546114209
0.446929931640625	-0.0157745361328125	2320.20758614204
0.4425048828125	-0.0159149169921875	2320.22971114198
0.438079833984375	-0.0160552978515625	2320.25183614193
0.43365478515625	-0.0161956787109375	2320.27396114187
0.429229736328125	-0.0163360595703125	2320.29608614182
0.4248046875	-0.01646728515625	2320.31821114176
0.420379638671875	-0.016607666015625	2320.3403361417
0.41595458984375	-0.0167388916015625	2320.36246114165
0.411529541015625	-0.0168731689453125	2320.38458614159
0.4071044921875	-0.017010498046875	2320.40671114154
0.402679443359375	-0.0171417236328125	2320.42883614148
0.39825439453125	-0.0172698974609375	2320.45096114142
0.393829345703125	-0.0173980712890625	2320.47308614137
0.389404296875	-0.017529296875	2320.49521114131
0.384979248046875	-0.0176605224609375	2320.51733614126
0.38055419921875	-0.01778564453125	2320.5394611412
0.376129150390625	-0.0179107666015625	2320.56158614115
0.3717041015625	-0.0180328369140625	2320.58371114109
0.367279052734375	-0.0181610107421875	2320.60583614103
0.36285400390625	-0.0182830810546875	2320.62796114098
0.358428955078125	-0.018408203125	2320.65008614092
0.35400390625	-0.0185302734375	2320.67221114087
0.349578857421875	-0.0186492919921875	2320.69433614081
0.34515380859375	-0.018768310546875	2320.71646114075
0.340728759765625	-0.018890380859375	2320.7385861407
0.3363037109375	-0.0190093994140625	2320.76071114064
0.331878662109375	-0.0191253662109375	2320.78283614059
0.32745361328125	-0.0192413330078125	2320.80496114053
0.323028564453125	-0.0193634033203125	2320.82708614047
0.318603515625	-0.0194793701171875	2320.84921114042
0.314178466796875	-0.0195953369140625	2320.87133614036
0.30975341796875	-0.019708251953125	2320.89346114031
0.305328369140625	-0.01982421875	2320.91558614025
0.3009033203125	-0.0199371337890625	2320.9377111402
0.296478271484375	-0.0200531005859375	2320.95983614014
0.29205322265625	-0.0201629638671875	2320.98196114008
0.287628173828125	-0.0202789306640625	2321.00408614003
0.283203125	-0.0203857421875	2321.02621113997
0.278778076171875	-0.02049560546875	2321.04833613992
0.27435302734375	-0.0206024169921875	2321.07046113986
0.269927978515625	-0.0207122802734375	2321.0925861398
0.2655029296875	-0.0208221435546875	2321.11471113975
0.261077880859375	-0.0209320068359375	2321.13683613969
0.25665283203125	-0.0210357666015625	2321.15896113964
0.252227783203125	-0.021142578125	2321.18108613958
0.247802734375	-0.02125244140625	2321.20321113953
0.243377685546875	-0.021356201171875	2321.22533613947
0.23895263671875	-0.0214630126953125	2321.24746113941
0.234527587890625	-0.0215667724609375	2321.26958613936
0.2301025390625	-0.021673583984375	2321.2917111393
0.225677490234375	-0.021783447265625	2321.31383613925
0.22125244140625	-0.0218780517578125	2321.33596113919
0.216827392578125	-0.02198486328125	2321.35808613913
0.21240234375	-0.022088623046875	2321.38021113908
0.207977294921875	-0.0221893310546875	2321.40233613902
0.20355224609375	-0.0222900390625	2321.42446113897
0.199127197265625	-0.022393798828125	2321.44658613891
0.1947021484375	-0.022491455078125	2321.46871113885
0.190277099609375	-0.0225921630859375	2321.4908361388
0.18585205078125	-0.0226959228515625	2321.51296113874
0.181427001953125	-0.02279052734375	2321.53508613869
0.177001953125	-0.0228912353515625	2321.55721113863
0.172576904296875	-0.0229949951171875	2321.57933613858
0.16815185546875	-0.023095703125	2321.60146113852
0.163726806640625	-0.023193359375	2321.62358613846
0.1593017578125	-0.023297119140625	2321.64571113841
0.154876708984375	-0.023394775390625	2321.66783613835
0.15045166015625	-0.0234893798828125	2321.6899611383
0.146026611328125	-0.0235931396484375	2321.71208613824
0.1416015625	-0.023687744140625	2321.73421113818
0.137176513671875	-0.0237823486328125	2321.75633613813
0.13275146484375	-0.023876953125	2321.77846113807
0.128326416015625	-0.023974609375	2321.80058613802
0.1239013671875	-0.0240753173828125	2321.82271113796
0.119476318359375	-0.0241729736328125	2321.84483613791
0.11505126953125	-0.0242645263671875	2321.86696113785
0.110626220703125	-0.024365234375	2321.88908613779
0.106201171875	-0.024456787109375	2321.91121113774
0.101776123046875	-0.0245513916015625	2321.93333613768
0.09735107421875	-0.024652099609375	2321.95546113763
0.092926025390625	-0.024749755859375	2321.97758613757
0.0885009765625	-0.0248382568359375	2321.99971113751
0.084075927734375	-0.0249359130859375	2322.02183613746
0.07965087890625	-0.0250244140625	2322.0439611374
0.075225830078125	-0.0251129150390625	2322.06608613735
0.07080078125	-0.025213623046875	2322.08821113729
0.066375732421875	-0.025311279296875	2322.11033613724
0.06195068359375	-0.0253997802734375	2322.13246113718
0.057525634765625	-0.025494384765625	2322.15458613712
0.0531005859375	-0.0255889892578125	2322.17671113707
0.048675537109375	-0.02568359375	2322.19883613701
0.04425048828125	-0.0257720947265625	2322.22096113696
0.039825439453125	-0.0258697509765625	2322.2430861369
0.035400390625	-0.0259613037109375	2322.26521113684
0.030975341796875	-0.026055908203125	2322.28733613679
0.02655029296875	-0.02615966796875	2322.30946113673
0.022125244140625	-0.0262481689453125	2322.33158613668
0.0177001953125	-0.0263397216796875	2322.35371113662
0.013275146484375	-0.0264312744140625	2322.37583613656
0.00885009765625	-0.0265228271484375	2322.39796113651
0.004425048828125	-0.0266082763671875	2322.42008613645
0	-0.0267059326171875	2322.4422111364
0.004425048828125	-0.0259796142578125	2322.46433613634
0.00885009765625	-0.02528076171875	2322.48646113629
0.013275146484375	-0.024603271484375	2322.50858613623
0.0177001953125	-0.0239410400390625	2322.53071113617
0.022125244140625	-0.0232940673828125	2322.55283613612
0.02655029296875	-0.0226531982421875	2322.57496113606
0.030975341796875	-0.022027587890625	2322.59708613601
0.035400390625	-0.0214080810546875	2322.61921113595
0.039825439453125	-0.020794677734375	2322.64133613589
0.04425048828125	-0.0201995849609375	2322.66346113584
0.048675537109375	-0.019610595703125	2322.68558613578
0.0531005859375	-0.0190338134765625	2322.70771113573
0.057525634765625	-0.0184600830078125	2322.72983613567
0.06195068359375	-0.017901611328125	2322.75196113562
0.066375732421875	-0.017340087890625	2322.77408613556
0.07080078125	-0.0167999267578125	2322.7962111355
0.075225830078125	-0.016259765625	2322.81833613545
0.07965087890625	-0.0157318115234375	2322.84046113539
0.084075927734375	-0.0152099609375	2322.86258613534
0.0885009765625	-0.014691162109375	2322.88471113528
0.092926025390625	-0.014178466796875	2322.90683613522
0.09735107421875	-0.01368408203125	2322.92896113517
0.101776123046875	-0.013189697265625	2322.95108613511
0.106201171875	-0.0126983642578125	2322.97321113506
0.110626220703125	-0.0122161865234375	2322.995336135
0.11505126953125	-0.0117401123046875	2323.01746113494
0.119476318359375	-0.011273193359375	2323.03958613489
0.1239013671875	-0.010809326171875	2323.06171113483
0.128326416015625	-0.0103515625	2323.08383613478
0.13275146484375	-0.0098968505859375	2323.10596113472
0.137176513671875	-0.0094512939453125	2323.12808613467
0.1416015625	-0.0090087890625	2323.15021113461
0.146026611328125	-0.0085723876953125	2323.17233613455
0.15045166015625	-0.008135986328125	2323.1944611345
0.154876708984375	-0.0077117919921875	2323.21658613444
0.1593017578125	-0.0072906494140625	2323.23871113439
0.163726806640625	-0.00687255859375	2323.26083613433
0.16815185546875	-0.0064605712890625	2323.28296113427
0.172576904296875	-0.0060516357421875	2323.30508613422
0.177001953125	-0.0056488037109375	2323.32721113416
0.181427001953125	-0.0052490234375	2323.34933613411
0.18585205078125	-0.00485595703125	2323.37146113405
0.190277099609375	-0.00446563720703125	2323.393586134
0.1947021484375	-0.00407989501953125	2323.41571113394
0.199127197265625	-0.00369781494140625	2323.43783613388
0.20355224609375	-0.00332000732421875	2323.45996113383
0.207977294921875	-0.0029571533203125	2323.48208613377
0.21240234375	-0.0025860595703125	2323.50421113372
0.216827392578125	-0.00221832275390625	2323.52633613366
0.22125244140625	-0.00185546875	2323.5484611336
0.225677490234375	-0.00149627685546875	2323.57058613355
0.2301025390625	-0.0011407470703125	2323.59271113349
0.234527587890625	-0.00078948974609375	2323.61483613344
0.23895263671875	-0.000440826416015625	2323.63696113338
0.243377685546875	-9.53369140625E-05	2323.65908613332
0.247802734375	0.00024603271484375	2323.68121113327
0.252227783203125	0.0005841064453125	2323.70333613321
0.25665283203125	0.00091949462890625	2323.72546113316
0.261077880859375	0.00125152587890625	2323.7475861331
0.2655029296875	0.0015802001953125	2323.76971113305
0.269927978515625	0.0019061279296875	2323.79183613299
0.27435302734375	0.00222900390625	2323.81396113293
0.278778076171875	0.0025482177734375	2323.83608613288
0.283203125	0.0028643798828125	2323.85821113282
0.287628173828125	0.0031768798828125	2323.88033613277
0.29205322265625	0.00348785400390625	2323.90246113271
0.296478271484375	0.003795166015625	2323.92458613265
0.3009033203125	0.0040985107421875	2323.9467111326
0.305328369140625	0.00440032958984375	2323.96883613254
0.30975341796875	0.00469818115234375	2323.99096113249
0.314178466796875	0.0049969482421875	2324.01308613243
0.318603515625	0.00528961181640625	2324.03521113238
0.323028564453125	0.00557861328125	2324.05733613232
0.32745361328125	0.00586761474609375	2324.07946113226
0.331878662109375	0.0061517333984375	2324.10158613221
0.3363037109375	0.0064239501953125	2324.12371113215
0.340728759765625	0.0067047119140625	2324.1458361321
0.34515380859375	0.006982421875	2324.16796113204
0.349578857421875	0.0072540283203125	2324.19008613198
0.35400390625	0.007525634765625	2324.21221113193
0.358428955078125	0.0077911376953125	2324.23433613187
0.36285400390625	0.008050537109375	2324.25646113182
0.367279052734375	0.0083160400390625	2324.27858613176
0.3717041015625	0.008575439453125	2324.3007111317
0.376129150390625	0.0088287353515625	2324.32283613165
0.38055419921875	0.0090850830078125	2324.34496113159
0.384979248046875	0.0093353271484375	2324.36708613154
0.389404296875	0.00958251953125	2324.38921113148
0.393829345703125	0.00982666015625	2324.41133613143
0.39825439453125	0.01007080078125	2324.43346113137
0.402679443359375	0.01031494140625	2324.45558613131
0.4071044921875	0.0105560302734375	2324.47771113126
0.411529541015625	0.0107940673828125	2324.4998361312
0.41595458984375	0.01102294921875	2324.52196113115
0.420379638671875	0.0112548828125	2324.54408613109
0.4248046875	0.01148681640625	2324.56621113103
0.429229736328125	0.0117156982421875	2324.58833613098
0.43365478515625	0.0119354248046875	2324.61046113092
0.438079833984375	0.0121612548828125	2324.63258613087
0.4425048828125	0.0123779296875	2324.65471113081
0.446929931640625	0.012591552734375	2324.67683613075
0.45135498046875	0.0128082275390625	2324.6989611307
0.455780029296875	0.01302490234375	2324.72108613064
0.460205078125	0.013232421875	2324.74321113059
0.464630126953125	0.01343994140625	2324.76533613053
0.46905517578125	0.0136444091796875	2324.78746113048
0.473480224609375	0.0138519287109375	2324.80958613042
0.4779052734375	0.01405029296875	2324.83171113036
0.482330322265625	0.0142486572265625	2324.85383613031
0.48675537109375	0.01444091796875	2324.87596113025
0.491180419921875	0.0146392822265625	2324.8980861302
0.49560546875	0.014825439453125	2324.92021113014
0.500030517578125	0.0150146484375	2324.94233613009
0.50445556640625	0.015203857421875	2324.96446113003
0.508880615234375	0.0153900146484375	2324.98658612997
0.5133056640625	0.0155670166015625	2325.00871112992
0.517730712890625	0.0157470703125	2325.03083612986
0.52215576171875	0.0159271240234375	2325.05296112981
0.526580810546875	0.0161041259765625	2325.07508612975
0.531005859375	0.0162872314453125	2325.09721112969
0.535430908203125	0.016455078125	2325.11933612964
0.53985595703125	0.0166229248046875	2325.14146112958
0.544281005859375	0.0167938232421875	2325.16358612953
0.5487060546875	0.016961669921875	2325.18571112947
0.553131103515625	0.017120361328125	2325.20783612941
0.55755615234375	0.017279052734375	2325.22996112936
0.561981201171875	0.017437744140625	2325.2520861293
0.56640625	0.017596435546875	2325.27421112925
0.570831298828125	0.0177490234375	2325.29633612919
0.57525634765625	0.017901611328125	2325.31846112914
0.579681396484375	0.0180511474609375	2325.34058612908
0.5841064453125	0.0182098388671875	2325.36271112902
0.588531494140625	0.0183563232421875	2325.38483612897
0.59295654296875	0.018505859375	2325.40696112891
0.597381591796875	0.01865234375	2325.42908612886
0.601806640625	0.0187835693359375	2325.4512111288
0.606231689453125	0.0189208984375	2325.47333612874
0.61065673828125	0.0190643310546875	2325.49546112869
0.615081787109375	0.0192047119140625	2325.51758612863
0.6195068359375	0.01934814453125	2325.53971112858
0.623931884765625	0.019482421875	2325.56183612852
0.62835693359375	0.0196136474609375	2325.58396112847
0.632781982421875	0.019744873046875	2325.60608612841
0.63720703125	0.0198699951171875	2325.62821112835
0.641632080078125	0.0199951171875	2325.6503361283
0.64605712890625	0.0201141357421875	2325.67246112824
0.650482177734375	0.0202423095703125	2325.69458612819
0.6549072265625	0.0203582763671875	2325.71671112813
0.659332275390625	0.0204742431640625	2325.73883612807
0.66375732421875	0.02059326171875	2325.76096112802
0.668182373046875	0.020709228515625	2325.78308612796
0.672607421875	0.0208221435546875	2325.80521112791
0.677032470703125	0.0209320068359375	2325.82733612785
0.68145751953125	0.021038818359375	2325.84946112779
0.685882568359375	0.0211517333984375	2325.87158612774
0.6903076171875	0.0212615966796875	2325.89371112768
0.694732666015625	0.021368408203125	2325.91583612763
0.69915771484375	0.02147216796875	2325.93796112757
0.703582763671875	0.02156982421875	2325.96008612752
0.7080078125	0.02166748046875	2325.98221112746
0.712432861328125	0.0217681884765625	2326.0043361274
0.71685791015625	0.02186279296875	2326.02646112735
0.721282958984375	0.021954345703125	2326.04858612729
0.7257080078125	0.0220489501953125	2326.07071112724
0.730133056640625	0.0221405029296875	2326.09283612718
0.73455810546875	0.022235107421875	2326.11496112712
0.738983154296875	0.022320556640625	2326.13708612707
0.743408203125	0.0224090576171875	2326.15921112701
0.747833251953125	0.022491455078125	2326.18133612696
0.75225830078125	0.0225738525390625	2326.2034611269
0.756683349609375	0.02265625	2326.22558612684
0.7611083984375	0.0227386474609375	2326.24771112679
0.765533447265625	0.022821044921875	2326.26983612673
0.76995849609375	0.022894287109375	2326.29196112668
0.774383544921875	0.0229736328125	2326.31408612662
0.77880859375	0.0230499267578125	2326.33621112657
0.783233642578125	0.0231170654296875	2326.35833612651
0.78765869140625	0.023193359375	2326.38046112645
0.792083740234375	0.0232635498046875	2326.4025861264
0.7965087890625	0.0233367919921875	2326.42471112634
0.800933837890625	0.0233978271484375	2326.44683612629
0.80535888671875	0.0234619140625	2326.46896112623
0.809783935546875	0.0235260009765625	2326.49108612617
0.814208984375	0.02359619140625	2326.51321112612
0.818634033203125	0.023663330078125	2326.53533612606
0.82305908203125	0.0237274169921875	2326.55746112601
0.827484130859375	0.0237884521484375	2326.57958612595
0.8319091796875	0.0238433837890625	2326.6017111259
0.836334228515625	0.0239013671875	2326.62383612584
0.84075927734375	0.0239593505859375	2326.64596112578
0.845184326171875	0.0240142822265625	2326.66808612573
0.849609375	0.0240692138671875	2326.69021112567
0.854034423828125	0.024127197265625	2326.71233612562
0.85845947265625	0.02418212890625	2326.73446112556
0.862884521484375	0.0242279052734375	2326.7565861255
0.8673095703125	0.0242889404296875	2326.77871112545
0.871734619140625	0.0243377685546875	2326.80083612539
0.87615966796875	0.0243896484375	2326.82296112534
0.880584716796875	0.0244354248046875	2326.84508612528
0.885009765625	0.024481201171875	2326.86721112522
0.889434814453125	0.0245269775390625	2326.88933612517
0.89385986328125	0.02457275390625	2326.91146112511
0.898284912109375	0.02462158203125	2326.93358612506
0.9027099609375	0.0246612548828125	2326.955711125
0.907135009765625	0.02470703125	2326.97783612495
0.91156005859375	0.0247528076171875	2326.99996112489
0.915985107421875	0.02479248046875	2327.02208612483
0.92041015625	0.0248321533203125	2327.04421112478
0.924835205078125	0.0248809814453125	2327.06633612472
0.92926025390625	0.0249237060546875	2327.08846112467
0.933685302734375	0.0249603271484375	2327.11058612461
0.9381103515625	0.025006103515625	2327.13271112455
0.942535400390625	0.0250396728515625	2327.1548361245
0.94696044921875	0.0250762939453125	2327.17696112444
0.951385498046875	0.0251129150390625	2327.19908612439
0.955810546875	0.0251495361328125	2327.22121112433
0.960235595703125	0.0251953125	2327.24333612428
0.96466064453125	0.0252288818359375	2327.26546112422
0.969085693359375	0.025262451171875	2327.28758612416
0.9735107421875	0.02529296875	2327.30971112411
0.977935791015625	0.025335693359375	2327.33183612405
0.98236083984375	0.0253662109375	2327.353961124
0.986785888671875	0.0254058837890625	2327.37608612394
0.9912109375	0.0254425048828125	2327.39821112388
0.995635986328125	0.0254852294921875	2327.42033612383
1.00006103515625	0.02552490234375	2327.44246112377
0.995635986328125	0.0247589111328125	2327.46458612372
0.9912109375	0.0240203857421875	2327.48671112366
0.986785888671875	0.0233062744140625	2327.5088361236
0.98236083984375	0.0226043701171875	2327.53096112355
0.977935791015625	0.0219207763671875	2327.55308612349
0.9735107421875	0.02125244140625	2327.57521112344
0.969085693359375	0.020599365234375	2327.59733612338
0.96466064453125	0.0199554443359375	2327.61946112333
0.960235595703125	0.019329833984375	2327.64158612327
0.955810546875	0.01871337890625	2327.66371112321
0.951385498046875	0.01810302734375	2327.68583612316
0.94696044921875	0.0175048828125	2327.7079611231
0.942535400390625	0.0169189453125	2327.73008612305
0.9381103515625	0.01634521484375	2327.75221112299
0.933685302734375	0.015777587890625	2327.77433612293
0.92926025390625	0.0152252197265625	2327.79646112288
0.924835205078125	0.014678955078125	2327.81858612282
0.92041015625	0.0141387939453125	2327.84071112277
0.915985107421875	0.0136138916015625	2327.86283612271
0.91156005859375	0.0130950927734375	2327.88496112266
0.907135009765625	0.01258544921875	2327.9070861226
0.9027099609375	0.0120849609375	2327.92921112254
0.898284912109375	0.011590576171875	2327.95133612249
0.89385986328125	0.0111053466796875	2327.97346112243
0.889434814453125	0.01063232421875	2327.99558612238
0.885009765625	0.0101593017578125	2328.01771112232
0.880584716796875	0.0096954345703125	2328.03983612226
0.87615966796875	0.0092376708984375	2328.06196112221
0.871734619140625	0.0087860107421875	2328.08408612215
0.8673095703125	0.0083465576171875	2328.1062111221
0.862884521484375	0.0079071044921875	2328.12833612204
0.85845947265625	0.0074798583984375	2328.15046112199
0.854034423828125	0.0070556640625	2328.17258612193
0.849609375	0.0066375732421875	2328.19471112187
0.845184326171875	0.0062255859375	2328.21683612182
0.84075927734375	0.005816650390625	2328.23896112176
0.836334228515625	0.0054168701171875	2328.26108612171
0.8319091796875	0.0050201416015625	2328.28321112165
0.827484130859375	0.00463165283203125	2328.30533612159
0.82305908203125	0.00424591064453125	2328.32746112154
0.818634033203125	0.00386749267578125	2328.34958612148
0.814208984375	0.0034930419921875	2328.37171112143
0.809783935546875	0.003123779296875	2328.39383612137
0.80535888671875	0.00276153564453125	2328.41596112131
0.800933837890625	0.00240142822265625	2328.43808612126
0.7965087890625	0.0020465087890625	2328.4602111212
0.792083740234375	0.00169586181640625	2328.48233612115
0.78765869140625	0.00134979248046875	2328.50446112109
0.783233642578125	0.00100830078125	2328.52658612104
0.77880859375	0.00067138671875	2328.54871112098
0.774383544921875	0.00033843994140625	2328.57083612092
0.76995849609375	9.63439941406249E-06	2328.59296112087
0.765533447265625	-0.000314544677734375	2328.61508612081
0.7611083984375	-0.00063507080078125	2328.63721112076
0.756683349609375	-0.0009515380859375	2328.6593361207
0.75225830078125	-0.00126434326171875	2328.68146112064
0.747833251953125	-0.0015728759765625	2328.70358612059
0.743408203125	-0.0018780517578125	2328.72571112053
0.738983154296875	-0.00217681884765625	2328.74783612048
0.73455810546875	-0.00247406005859375	2328.76996112042
0.730133056640625	-0.0027679443359375	2328.79208612037
0.7257080078125	-0.00305816650390625	2328.81421112031
0.721282958984375	-0.0033441162109375	2328.83633612025
0.71685791015625	-0.0036273193359375	2328.8584611202
0.712432861328125	-0.00390625	2328.88058612014
0.7080078125	-0.00418304443359375	2328.90271112009
0.703582763671875	-0.00445526123046875	2328.92483612003
0.69915771484375	-0.00472412109375	2328.94696111997
0.694732666015625	-0.00498992919921875	2328.96908611992
0.6903076171875	-0.00525146484375	2328.99121111986
0.685882568359375	-0.00551055908203125	2329.01333611981
0.68145751953125	-0.00576812744140625	2329.03546111975
0.677032470703125	-0.00602203369140625	2329.05758611969
0.672607421875	-0.0062469482421875	2329.07971111964
0.668182373046875	-0.006494140625	2329.10183611958
0.66375732421875	-0.0067352294921875	2329.12396111953
0.659332275390625	-0.006976318359375	2329.14608611947
0.6549072265625	-0.00721435546875	2329.16821111942
0.650482177734375	-0.0074493408203125	2329.19033611936
0.64605712890625	-0.0076812744140625	2329.2124611193
0.641632080078125	-0.0079071044921875	2329.23458611925
0.63720703125	-0.0081329345703125	2329.25671111919
0.632781982421875	-0.008355712890625	2329.27883611914
0.62835693359375	-0.0085784912109375	2329.30096111908
0.623931884765625	-0.00880126953125	2329.32308611902
0.6195068359375	-0.0090179443359375	2329.34521111897
0.615081787109375	-0.0092315673828125	2329.36733611891
0.61065673828125	-0.0094390869140625	2329.38946111886
0.606231689453125	-0.0096466064453125	2329.4115861188
0.601806640625	-0.0098541259765625	2329.43371111875
0.597381591796875	-0.01005859375	2329.45583611869
0.59295654296875	-0.0102569580078125	2329.47796111863
0.588531494140625	-0.010455322265625	2329.50008611858
0.5841064453125	-0.0106536865234375	2329.52221111852
0.579681396484375	-0.010845947265625	2329.54433611847
0.57525634765625	-0.0110321044921875	2329.56646111841
0.570831298828125	-0.011224365234375	2329.58858611835
0.56640625	-0.01141357421875	2329.6107111183
0.561981201171875	-0.0115966796875	2329.63283611824
0.55755615234375	-0.01177978515625	2329.65496111819
0.553131103515625	-0.011956787109375	2329.67708611813
0.5487060546875	-0.0121368408203125	2329.69921111807
0.544281005859375	-0.012310791015625	2329.72133611802
0.53985595703125	-0.0124847412109375	2329.74346111796
0.535430908203125	-0.0126617431640625	2329.76558611791
0.531005859375	-0.012835693359375	2329.78771111785
0.526580810546875	-0.013006591796875	2329.8098361178
0.52215576171875	-0.0131744384765625	2329.83196111774
0.517730712890625	-0.0133392333984375	2329.85408611768
0.5133056640625	-0.0135040283203125	2329.87621111763
0.508880615234375	-0.0136688232421875	2329.89833611757
0.50445556640625	-0.01383056640625	2329.92046111752
0.500030517578125	-0.0139923095703125	2329.94258611746
0.49560546875	-0.01414794921875	2329.9647111174
0.491180419921875	-0.014300537109375	2329.98683611735
0.48675537109375	-0.0144500732421875	2330.00896111729
0.482330322265625	-0.0145965576171875	2330.03108611724
0.4779052734375	-0.014752197265625	2330.05321111718
0.473480224609375	-0.0149017333984375	2330.07533611713
0.46905517578125	-0.0150543212890625	2330.09746111707
0.464630126953125	-0.015203857421875	2330.11958611701
0.460205078125	-0.0153533935546875	2330.14171111696
0.455780029296875	-0.015496826171875	2330.1638361169
0.45135498046875	-0.01563720703125	2330.18596111685
0.446929931640625	-0.01578369140625	2330.20808611679
0.4425048828125	-0.0159210205078125	2330.23021111673
0.438079833984375	-0.016064453125	2330.25233611668
0.43365478515625	-0.0162017822265625	2330.27446111662
0.429229736328125	-0.0163421630859375	2330.29658611657
0.4248046875	-0.016473388671875	2330.31871111651
0.420379638671875	-0.0166107177734375	2330.34083611645
0.41595458984375	-0.0167510986328125	2330.3629611164
0.411529541015625	-0.0168853759765625	2330.38508611634
0.4071044921875	-0.0170196533203125	2330.40721111629
0.402679443359375	-0.017156982421875	2330.42933611623
0.39825439453125	-0.017279052734375	2330.45146111618
0.393829345703125	-0.017413330078125	2330.47358611612
0.389404296875	-0.01754150390625	2330.49571111606
0.384979248046875	-0.0176727294921875	2330.51783611601
0.38055419921875	-0.0177947998046875	2330.53996111595
0.376129150390625	-0.017919921875	2330.5620861159
0.3717041015625	-0.0180389404296875	2330.58421111584
0.367279052734375	-0.0181640625	2330.60633611578
0.36285400390625	-0.0182891845703125	2330.62846111573
0.358428955078125	-0.0184112548828125	2330.65058611567
0.35400390625	-0.0185272216796875	2330.67271111562
0.349578857421875	-0.018646240234375	2330.69483611556
0.34515380859375	-0.0187652587890625	2330.71696111551
0.340728759765625	-0.0188873291015625	2330.73908611545
0.3363037109375	-0.01900634765625	2330.76121111539
0.331878662109375	-0.0191253662109375	2330.78333611534
0.32745361328125	-0.019244384765625	2330.80546111528
0.323028564453125	-0.0193572998046875	2330.82758611523
0.318603515625	-0.019476318359375	2330.84971111517
0.314178466796875	-0.0195892333984375	2330.87183611511
0.30975341796875	-0.0197113037109375	2330.89396111506
0.305328369140625	-0.0198211669921875	2330.916086115
0.3009033203125	-0.01993408203125	2330.93821111495
0.296478271484375	-0.0200469970703125	2330.96033611489
0.29205322265625	-0.020159912109375	2330.98246111484
0.287628173828125	-0.020269775390625	2331.00458611478
0.283203125	-0.020379638671875	2331.02671111472
0.278778076171875	-0.0204864501953125	2331.04883611467
0.27435302734375	-0.020599365234375	2331.07096111461
0.269927978515625	-0.020709228515625	2331.09308611456
0.2655029296875	-0.02081298828125	2331.1152111145
0.261077880859375	-0.0209197998046875	2331.13733611444
0.25665283203125	-0.0210296630859375	2331.15946111439
0.252227783203125	-0.021136474609375	2331.18158611433
0.247802734375	-0.021240234375	2331.20371111428
0.243377685546875	-0.021343994140625	2331.22583611422
0.23895263671875	-0.0214569091796875	2331.24796111416
0.234527587890625	-0.0215606689453125	2331.27008611411
0.2301025390625	-0.0216644287109375	2331.29221111405
0.225677490234375	-0.0217681884765625	2331.314336114
0.22125244140625	-0.021868896484375	2331.33646111394
0.216827392578125	-0.02197265625	2331.35858611389
0.21240234375	-0.0220733642578125	2331.38071111383
0.207977294921875	-0.0221771240234375	2331.40283611377
0.20355224609375	-0.0222808837890625	2331.42496111372
0.199127197265625	-0.0223876953125	2331.44708611366
0.1947021484375	-0.0224884033203125	2331.46921111361
0.190277099609375	-0.0225860595703125	2331.49133611355
0.18585205078125	-0.0226837158203125	2331.51346111349
0.181427001953125	-0.0227874755859375	2331.53558611344
0.177001953125	-0.0228851318359375	2331.55771111338
0.172576904296875	-0.0229888916015625	2331.57983611333
0.16815185546875	-0.02308349609375	2331.60196111327
0.163726806640625	-0.023187255859375	2331.62408611322
0.1593017578125	-0.023284912109375	2331.64621111316
0.154876708984375	-0.02337646484375	2331.6683361131
0.15045166015625	-0.023468017578125	2331.69046111305
0.146026611328125	-0.023565673828125	2331.71258611299
0.1416015625	-0.023663330078125	2331.73471111294
0.137176513671875	-0.0237579345703125	2331.75683611288
0.13275146484375	-0.023858642578125	2331.77896111282
0.128326416015625	-0.0239532470703125	2331.80108611277
0.1239013671875	-0.0240478515625	2331.82321111271
0.119476318359375	-0.0241455078125	2331.84533611266
0.11505126953125	-0.0242462158203125	2331.8674611126
0.110626220703125	-0.0243408203125	2331.88958611254
0.106201171875	-0.0244354248046875	2331.91171111249
0.101776123046875	-0.024530029296875	2331.93383611243
0.09735107421875	-0.024627685546875	2331.95596111238
0.092926025390625	-0.0247222900390625	2331.97808611232
0.0885009765625	-0.0248138427734375	2332.00021111227
0.084075927734375	-0.02491455078125	2332.02233611221
0.07965087890625	-0.025006103515625	2332.04446111215
0.075225830078125	-0.0250885009765625	2332.0665861121
0.07080078125	-0.025189208984375	2332.08871111204
0.066375732421875	-0.0252838134765625	2332.11083611199
0.06195068359375	-0.0253753662109375	2332.13296111193
0.057525634765625	-0.025469970703125	2332.15508611187
0.0531005859375	-0.025567626953125	2332.17721111182
0.048675537109375	-0.0256561279296875	2332.19933611176
0.04425048828125	-0.0257537841796875	2332.22146111171
0.039825439453125	-0.0258453369140625	2332.24358611165
0.035400390625	-0.025933837890625	2332.2657111116
0.030975341796875	-0.026025390625	2332.28783611154
0.02655029296875	-0.026123046875	2332.30996111148
0.022125244140625	-0.02620849609375	2332.33208611143
0.0177001953125	-0.026300048828125	2332.35421111137
0.013275146484375	-0.0263946533203125	2332.37633611132
0.00885009765625	-0.0264862060546875	2332.39846111126
0.004425048828125	-0.0265777587890625	2332.4205861112
0	-0.0266693115234375	2332.44271111115
0.004425048828125	-0.02596435546875	2332.46483611109
0.00885009765625	-0.0252685546875	2332.48696111104
0.013275146484375	-0.0245819091796875	2332.50908611098
