Potential applied (V)	WE(1).Current (A)	Time (s)
0.004425048828125	-0.00572509765625	2240.64430134292
0.00885009765625	-0.0052764892578125	2240.68855134281
0.013275146484375	-0.00484375	2240.73280134269
0.0177001953125	-0.00441680908203125	2240.77705134258
0.022125244140625	-0.00399993896484375	2240.82130134247
0.02655029296875	-0.00359130859375	2240.86555134236
0.030975341796875	-0.00319091796875	2240.90980134225
0.035400390625	-0.0028082275390625	2240.95405134213
0.039825439453125	-0.0024212646484375	2240.99830134202
0.04425048828125	-0.00204010009765625	2241.04255134191
0.048675537109375	-0.00166656494140625	2241.0868013418
0.0531005859375	-0.00129913330078125	2241.13105134169
0.057525634765625	-0.0009375	2241.17530134158
0.06195068359375	-0.0005816650390625	2241.21955134146
0.066375732421875	-0.000231658935546875	2241.26380134135
0.07080078125	0.0001126708984375	2241.30805134124
0.075225830078125	0.00045196533203125	2241.35230134113
0.07965087890625	0.00078460693359375	2241.39655134102
0.084075927734375	0.00111358642578125	2241.44080134091
0.0885009765625	0.001436767578125	2241.48505134079
0.092926025390625	0.00175537109375	2241.52930134068
0.09735107421875	0.00207000732421875	2241.57355134057
0.101776123046875	0.00237884521484375	2241.61780134046
0.106201171875	0.00268280029296875	2241.66205134035
0.110626220703125	0.00298248291015625	2241.70630134024
0.11505126953125	0.0032769775390625	2241.75055134012
0.119476318359375	0.00356658935546875	2241.79480134001
0.1239013671875	0.0038531494140625	2241.8390513399
0.128326416015625	0.0041351318359375	2241.88330133979
0.13275146484375	0.00441253662109375	2241.92755133968
0.137176513671875	0.00468597412109375	2241.97180133957
0.1416015625	0.0049554443359375	2242.01605133945
0.146026611328125	0.0052203369140625	2242.06030133934
0.15045166015625	0.00548126220703125	2242.10455133923
0.154876708984375	0.00573883056640625	2242.14880133912
0.1593017578125	0.005989990234375	2242.19305133901
0.163726806640625	0.00623748779296875	2242.2373013389
0.16815185546875	0.0064727783203125	2242.28155133878
0.172576904296875	0.0067138671875	2242.32580133867
0.177001953125	0.00694580078125	2242.37005133856
0.181427001953125	0.0071746826171875	2242.41430133845
0.18585205078125	0.007403564453125	2242.45855133834
0.190277099609375	0.00762939453125	2242.50280133822
0.1947021484375	0.0078460693359375	2242.54705133811
0.199127197265625	0.0080657958984375	2242.591301338
0.20355224609375	0.0082794189453125	2242.63555133789
0.207977294921875	0.008489990234375	2242.67980133778
0.21240234375	0.0086944580078125	2242.72405133767
0.216827392578125	0.0088958740234375	2242.76830133755
0.22125244140625	0.00909423828125	2242.81255133744
0.225677490234375	0.00928955078125	2242.85680133733
0.2301025390625	0.0094757080078125	2242.90105133722
0.234527587890625	0.0096649169921875	2242.94530133711
0.23895263671875	0.00985107421875	2242.989551337
0.243377685546875	0.010028076171875	2243.03380133688
0.247802734375	0.010205078125	2243.07805133677
0.252227783203125	0.0103790283203125	2243.12230133666
0.25665283203125	0.0105499267578125	2243.16655133655
0.261077880859375	0.0107177734375	2243.21080133644
0.2655029296875	0.010882568359375	2243.25505133633
0.269927978515625	0.011041259765625	2243.29930133621
0.27435302734375	0.0111968994140625	2243.3435513361
0.278778076171875	0.0113494873046875	2243.38780133599
0.283203125	0.0114990234375	2243.43205133588
0.287628173828125	0.0116485595703125	2243.47630133577
0.29205322265625	0.0117919921875	2243.52055133566
0.296478271484375	0.011932373046875	2243.56480133554
0.3009033203125	0.01207275390625	2243.60905133543
0.305328369140625	0.0122100830078125	2243.65330133532
0.30975341796875	0.0123382568359375	2243.69755133521
0.314178466796875	0.012469482421875	2243.7418013351
0.318603515625	0.012591552734375	2243.78605133498
0.323028564453125	0.012713623046875	2243.83030133487
0.32745361328125	0.012835693359375	2243.87455133476
0.331878662109375	0.01295166015625	2243.91880133465
0.3363037109375	0.0130615234375	2243.96305133454
0.340728759765625	0.01317138671875	2244.00730133443
0.34515380859375	0.0132781982421875	2244.05155133431
0.349578857421875	0.0133819580078125	2244.0958013342
0.35400390625	0.01348876953125	2244.14005133409
0.358428955078125	0.0135894775390625	2244.18430133398
0.36285400390625	0.0136810302734375	2244.22855133387
0.367279052734375	0.0137725830078125	2244.27280133376
0.3717041015625	0.0138671875	2244.31705133364
0.376129150390625	0.0139617919921875	2244.36130133353
0.38055419921875	0.0140472412109375	2244.40555133342
0.384979248046875	0.014129638671875	2244.44980133331
0.389404296875	0.014208984375	2244.4940513332
0.393829345703125	0.014288330078125	2244.53830133309
0.39825439453125	0.0143646240234375	2244.58255133297
0.402679443359375	0.014434814453125	2244.62680133286
0.4071044921875	0.014501953125	2244.67105133275
0.411529541015625	0.014569091796875	2244.71530133264
0.41595458984375	0.0146392822265625	2244.75955133253
0.420379638671875	0.014703369140625	2244.80380133242
0.4248046875	0.014764404296875	2244.8480513323
0.429229736328125	0.0148193359375	2244.89230133219
0.43365478515625	0.0148773193359375	2244.93655133208
0.438079833984375	0.0149322509765625	2244.98080133197
0.4425048828125	0.014990234375	2245.02505133186
0.446929931640625	0.0150421142578125	2245.06930133175
0.45135498046875	0.015087890625	2245.11355133163
0.455780029296875	0.0151336669921875	2245.15780133152
0.460205078125	0.015179443359375	2245.20205133141
0.464630126953125	0.0152252197265625	2245.2463013313
0.46905517578125	0.015264892578125	2245.29055133119
0.473480224609375	0.0153076171875	2245.33480133107
0.4779052734375	0.0153411865234375	2245.37905133096
0.482330322265625	0.015380859375	2245.42330133085
0.48675537109375	0.015411376953125	2245.46755133074
0.491180419921875	0.015447998046875	2245.51180133063
0.49560546875	0.015478515625	2245.55605133052
0.500030517578125	0.01551513671875	2245.6003013304
0.50445556640625	0.015545654296875	2245.64455133029
0.508880615234375	0.015570068359375	2245.68880133018
0.5133056640625	0.0155914306640625	2245.73305133007
0.517730712890625	0.0156158447265625	2245.77730132996
0.52215576171875	0.01563720703125	2245.82155132985
0.526580810546875	0.01566162109375	2245.86580132973
0.531005859375	0.0156829833984375	2245.91005132962
0.535430908203125	0.0157012939453125	2245.95430132951
0.53985595703125	0.0157135009765625	2245.9985513294
0.544281005859375	0.015728759765625	2246.04280132929
0.5487060546875	0.0157470703125	2246.08705132918
0.553131103515625	0.01575927734375	2246.13130132906
0.55755615234375	0.015771484375	2246.17555132895
0.561981201171875	0.01578369140625	2246.21980132884
0.56640625	0.015802001953125	2246.26405132873
0.570831298828125	0.01580810546875	2246.30830132862
0.57525634765625	0.0158233642578125	2246.3525513285
0.579681396484375	0.01583251953125	2246.39680132839
0.5841064453125	0.015838623046875	2246.44105132828
0.588531494140625	0.0158447265625	2246.48530132817
0.59295654296875	0.0158477783203125	2246.52955132806
0.597381591796875	0.015850830078125	2246.57380132795
0.601806640625	0.0158538818359375	2246.61805132783
0.606231689453125	0.01585693359375	2246.66230132772
0.61065673828125	0.01585693359375	2246.70655132761
0.615081787109375	0.0158599853515625	2246.7508013275
0.6195068359375	0.015863037109375	2246.79505132739
0.623931884765625	0.015875244140625	2246.83930132728
0.62835693359375	0.0158782958984375	2246.88355132716
0.632781982421875	0.0158782958984375	2246.92780132705
0.63720703125	0.01588134765625	2246.97205132694
0.641632080078125	0.0158782958984375	2247.01630132683
0.64605712890625	0.0158782958984375	2247.06055132672
0.650482177734375	0.0158721923828125	2247.10480132661
0.6549072265625	0.015869140625	2247.14905132649
0.659332275390625	0.015869140625	2247.19330132638
0.66375732421875	0.015863037109375	2247.23755132627
0.668182373046875	0.01585693359375	2247.28180132616
0.672607421875	0.0158477783203125	2247.32605132605
0.677032470703125	0.0158416748046875	2247.37030132594
0.68145751953125	0.01583251953125	2247.41455132582
0.685882568359375	0.015826416015625	2247.45880132571
0.6903076171875	0.0158172607421875	2247.5030513256
0.694732666015625	0.015814208984375	2247.54730132549
0.69915771484375	0.0158050537109375	2247.59155132538
0.703582763671875	0.015789794921875	2247.63580132527
0.7080078125	0.0157806396484375	2247.68005132515
0.712432861328125	0.0157684326171875	2247.72430132504
0.71685791015625	0.015765380859375	2247.76855132493
0.721282958984375	0.015753173828125	2247.81280132482
0.7257080078125	0.015740966796875	2247.85705132471
0.730133056640625	0.01573486328125	2247.90130132459
0.73455810546875	0.01572265625	2247.94555132448
0.738983154296875	0.0157135009765625	2247.98980132437
0.743408203125	0.0157012939453125	2248.03405132426
0.747833251953125	0.0156890869140625	2248.07830132415
0.75225830078125	0.015679931640625	2248.12255132404
0.756683349609375	0.015667724609375	2248.16680132392
0.7611083984375	0.015655517578125	2248.21105132381
0.765533447265625	0.0156463623046875	2248.2553013237
0.76995849609375	0.0156341552734375	2248.29955132359
0.774383544921875	0.015625	2248.34380132348
0.77880859375	0.01561279296875	2248.38805132337
0.783233642578125	0.0156005859375	2248.43230132325
0.78765869140625	0.0155853271484375	2248.47655132314
0.792083740234375	0.0155792236328125	2248.52080132303
0.7965087890625	0.0155609130859375	2248.56505132292
0.800933837890625	0.0155548095703125	2248.60930132281
0.80535888671875	0.01553955078125	2248.6535513227
0.809783935546875	0.0155303955078125	2248.69780132258
0.814208984375	0.0155181884765625	2248.74205132247
0.818634033203125	0.0155059814453125	2248.78630132236
0.82305908203125	0.015496826171875	2248.83055132225
0.827484130859375	0.015484619140625	2248.87480132214
0.8319091796875	0.0154815673828125	2248.91905132203
0.836334228515625	0.015472412109375	2248.96330132191
0.84075927734375	0.0154632568359375	2249.0075513218
0.845184326171875	0.0154541015625	2249.05180132169
0.849609375	0.0154449462890625	2249.09605132158
0.854034423828125	0.015435791015625	2249.14030132147
0.85845947265625	0.0154327392578125	2249.18455132135
0.862884521484375	0.0154266357421875	2249.22880132124
0.8673095703125	0.0154205322265625	2249.27305132113
0.871734619140625	0.01541748046875	2249.31730132102
0.87615966796875	0.0154083251953125	2249.36155132091
0.880584716796875	0.0154052734375	2249.4058013208
0.885009765625	0.0153961181640625	2249.45005132068
0.889434814453125	0.0153961181640625	2249.49430132057
0.89385986328125	0.0153900146484375	2249.53855132046
0.898284912109375	0.01539306640625	2249.58280132035
0.9027099609375	0.01539306640625	2249.62705132024
0.907135009765625	0.01539306640625	2249.67130132013
0.91156005859375	0.0153961181640625	2249.71555132001
0.915985107421875	0.0153961181640625	2249.7598013199
0.92041015625	0.015399169921875	2249.80405131979
0.924835205078125	0.0154052734375	2249.84830131968
0.92926025390625	0.0154144287109375	2249.89255131957
0.933685302734375	0.01541748046875	2249.93680131946
0.9381103515625	0.0154266357421875	2249.98105131934
0.942535400390625	0.015435791015625	2250.02530131923
0.94696044921875	0.0154388427734375	2250.06955131912
0.951385498046875	0.015447998046875	2250.11380131901
0.955810546875	0.0154571533203125	2250.1580513189
0.960235595703125	0.015472412109375	2250.20230131879
0.96466064453125	0.0154876708984375	2250.24655131867
0.969085693359375	0.0155029296875	2250.29080131856
0.9735107421875	0.0155181884765625	2250.33505131845
0.977935791015625	0.0155364990234375	2250.37930131834
0.98236083984375	0.0155517578125	2250.42355131823
0.986785888671875	0.015576171875	2250.46780131812
0.9912109375	0.015594482421875	2250.512051318
0.995635986328125	0.0156158447265625	2250.55630131789
1.00006103515625	0.015643310546875	2250.60055131778
0.995635986328125	0.0149139404296875	2250.64480131767
0.9912109375	0.014215087890625	2250.68905131756
0.986785888671875	0.0135498046875	2250.73330131744
0.98236083984375	0.01290283203125	2250.77755131733
0.977935791015625	0.0122772216796875	2250.82180131722
0.9735107421875	0.0116790771484375	2250.86605131711
0.969085693359375	0.011090087890625	2250.910301317
0.96466064453125	0.010528564453125	2250.95455131689
0.960235595703125	0.00997314453125	2250.99880131677
0.955810546875	0.0094329833984375	2251.04305131666
0.951385498046875	0.008917236328125	2251.08730131655
0.94696044921875	0.0084075927734375	2251.13155131644
0.942535400390625	0.00791015625	2251.17580131633
0.9381103515625	0.007427978515625	2251.22005131622
0.933685302734375	0.0069549560546875	2251.2643013161
0.92926025390625	0.006494140625	2251.30855131599
0.924835205078125	0.0060455322265625	2251.35280131588
0.92041015625	0.0056060791015625	2251.39705131577
0.915985107421875	0.0051788330078125	2251.44130131566
0.91156005859375	0.00476104736328125	2251.48555131555
0.907135009765625	0.00435394287109375	2251.52980131543
0.9027099609375	0.00395538330078125	2251.57405131532
0.898284912109375	0.00356689453125	2251.61830131521
0.89385986328125	0.00318695068359375	2251.6625513151
0.889434814453125	0.00281646728515625	2251.70680131499
0.885009765625	0.002452392578125	2251.75105131487
0.880584716796875	0.0020965576171875	2251.79530131476
0.87615966796875	0.00174896240234375	2251.83955131465
0.871734619140625	0.0014080810546875	2251.88380131454
0.8673095703125	0.00107574462890625	2251.92805131443
0.862884521484375	0.00075042724609375	2251.97230131432
0.85845947265625	0.000432403564453125	2252.0165513142
0.854034423828125	0.0001209716796875	2252.06080131409
0.849609375	-0.000184295654296875	2252.10505131398
0.845184326171875	-0.0004822998046875	2252.14930131387
0.84075927734375	-0.00077423095703125	2252.19355131376
0.836334228515625	-0.0010595703125	2252.23780131365
0.8319091796875	-0.001337890625	2252.28205131353
0.827484130859375	-0.001611328125	2252.32630131342
0.82305908203125	-0.00187835693359375	2252.37055131331
0.818634033203125	-0.00213897705078125	2252.4148013132
0.814208984375	-0.00239410400390625	2252.45905131309
0.809783935546875	-0.0026434326171875	2252.50330131298
0.80535888671875	-0.00288726806640625	2252.54755131286
0.800933837890625	-0.003126220703125	2252.59180131275
0.7965087890625	-0.00335906982421875	2252.63605131264
0.792083740234375	-0.00358642578125	2252.68030131253
0.78765869140625	-0.00380950927734375	2252.72455131242
0.783233642578125	-0.004027099609375	2252.76880131231
0.77880859375	-0.0042388916015625	2252.81305131219
0.774383544921875	-0.00444671630859375	2252.85730131208
0.76995849609375	-0.00464935302734375	2252.90155131197
0.765533447265625	-0.00484771728515625	2252.94580131186
0.7611083984375	-0.00504302978515625	2252.99005131175
0.756683349609375	-0.00523101806640625	2253.03430131164
0.75225830078125	-0.0054156494140625	2253.07855131152
0.747833251953125	-0.00559539794921875	2253.12280131141
0.743408203125	-0.00577056884765625	2253.1670513113
0.738983154296875	-0.00594207763671875	2253.21130131119
0.73455810546875	-0.00610992431640625	2253.25555131108
0.730133056640625	-0.0062530517578125	2253.29980131096
0.7257080078125	-0.006414794921875	2253.34405131085
0.721282958984375	-0.0065673828125	2253.38830131074
0.71685791015625	-0.0067230224609375	2253.43255131063
0.712432861328125	-0.0068695068359375	2253.47680131052
0.7080078125	-0.0070159912109375	2253.52105131041
0.703582763671875	-0.0071563720703125	2253.56530131029
0.69915771484375	-0.007293701171875	2253.60955131018
0.694732666015625	-0.0074310302734375	2253.65380131007
0.6903076171875	-0.007562255859375	2253.69805130996
0.685882568359375	-0.0076934814453125	2253.74230130985
0.68145751953125	-0.0078155517578125	2253.78655130974
0.677032470703125	-0.0079376220703125	2253.83080130962
0.672607421875	-0.008056640625	2253.87505130951
0.668182373046875	-0.0081787109375	2253.9193013094
0.66375732421875	-0.0082916259765625	2253.96355130929
0.659332275390625	-0.0084075927734375	2254.00780130918
0.6549072265625	-0.008514404296875	2254.05205130907
0.650482177734375	-0.008624267578125	2254.09630130895
0.64605712890625	-0.0087310791015625	2254.14055130884
0.641632080078125	-0.0088348388671875	2254.18480130873
0.63720703125	-0.0089385986328125	2254.22905130862
0.632781982421875	-0.0090362548828125	2254.27330130851
0.62835693359375	-0.009136962890625	2254.3175513084
0.623931884765625	-0.0092376708984375	2254.36180130828
0.6195068359375	-0.009332275390625	2254.40605130817
0.615081787109375	-0.0094207763671875	2254.45030130806
0.61065673828125	-0.0095123291015625	2254.49455130795
0.606231689453125	-0.009600830078125	2254.53880130784
0.601806640625	-0.009686279296875	2254.58305130772
0.597381591796875	-0.0097747802734375	2254.62730130761
0.59295654296875	-0.009857177734375	2254.6715513075
0.588531494140625	-0.0099395751953125	2254.71580130739
0.5841064453125	-0.0100189208984375	2254.76005130728
0.579681396484375	-0.010101318359375	2254.80430130717
0.57525634765625	-0.0101806640625	2254.84855130705
0.570831298828125	-0.0102630615234375	2254.89280130694
0.56640625	-0.0103424072265625	2254.93705130683
0.561981201171875	-0.010418701171875	2254.98130130672
0.55755615234375	-0.010491943359375	2255.02555130661
0.553131103515625	-0.0105682373046875	2255.0698013065
0.5487060546875	-0.010638427734375	2255.11405130638
0.544281005859375	-0.01070556640625	2255.15830130627
0.53985595703125	-0.01077880859375	2255.20255130616
0.535430908203125	-0.010845947265625	2255.24680130605
0.531005859375	-0.0109130859375	2255.29105130594
0.526580810546875	-0.01097412109375	2255.33530130583
0.52215576171875	-0.011041259765625	2255.37955130571
0.517730712890625	-0.0111083984375	2255.4238013056
0.5133056640625	-0.0111785888671875	2255.46805130549
0.508880615234375	-0.0112457275390625	2255.51230130538
0.50445556640625	-0.0113067626953125	2255.55655130527
0.500030517578125	-0.011370849609375	2255.60080130516
0.49560546875	-0.01143798828125	2255.64505130504
0.491180419921875	-0.0114959716796875	2255.68930130493
0.48675537109375	-0.01156005859375	2255.73355130482
0.482330322265625	-0.01162109375	2255.77780130471
0.4779052734375	-0.0116790771484375	2255.8220513046
0.473480224609375	-0.0117431640625	2255.86630130449
0.46905517578125	-0.0118011474609375	2255.91055130437
0.464630126953125	-0.0118621826171875	2255.95480130426
0.460205078125	-0.011920166015625	2255.99905130415
0.455780029296875	-0.011981201171875	2256.04330130404
0.45135498046875	-0.0120391845703125	2256.08755130393
0.446929931640625	-0.0120941162109375	2256.13180130381
0.4425048828125	-0.012152099609375	2256.1760513037
0.438079833984375	-0.0122100830078125	2256.22030130359
0.43365478515625	-0.01226806640625	2256.26455130348
0.429229736328125	-0.012322998046875	2256.30880130337
0.4248046875	-0.0123748779296875	2256.35305130326
0.420379638671875	-0.0124359130859375	2256.39730130314
0.41595458984375	-0.01248779296875	2256.44155130303
0.411529541015625	-0.012542724609375	2256.48580130292
0.4071044921875	-0.01259765625	2256.53005130281
0.402679443359375	-0.0126495361328125	2256.5743013027
0.39825439453125	-0.012701416015625	2256.61855130259
0.393829345703125	-0.0127593994140625	2256.66280130247
0.389404296875	-0.012811279296875	2256.70705130236
0.384979248046875	-0.0128662109375	2256.75130130225
0.38055419921875	-0.0129180908203125	2256.79555130214
0.376129150390625	-0.012969970703125	2256.83980130203
0.3717041015625	-0.0130279541015625	2256.88405130192
0.367279052734375	-0.013079833984375	2256.9283013018
0.36285400390625	-0.013128662109375	2256.97255130169
0.358428955078125	-0.0131805419921875	2257.01680130158
0.35400390625	-0.013232421875	2257.06105130147
0.349578857421875	-0.0132843017578125	2257.10530130136
0.34515380859375	-0.013336181640625	2257.14955130125
0.340728759765625	-0.0133880615234375	2257.19380130113
0.3363037109375	-0.0134429931640625	2257.23805130102
0.331878662109375	-0.01348876953125	2257.28230130091
0.32745361328125	-0.01353759765625	2257.3265513008
0.323028564453125	-0.0135833740234375	2257.37080130069
0.318603515625	-0.0136383056640625	2257.41505130057
0.314178466796875	-0.0136871337890625	2257.45930130046
0.30975341796875	-0.0137359619140625	2257.50355130035
0.305328369140625	-0.013787841796875	2257.54780130024
0.3009033203125	-0.013836669921875	2257.59205130013
0.296478271484375	-0.0138885498046875	2257.63630130002
0.29205322265625	-0.0139373779296875	2257.6805512999
0.287628173828125	-0.0139862060546875	2257.72480129979
0.283203125	-0.014031982421875	2257.76905129968
0.278778076171875	-0.014080810546875	2257.81330129957
0.27435302734375	-0.014129638671875	2257.85755129946
0.269927978515625	-0.0141754150390625	2257.90180129935
0.2655029296875	-0.0142242431640625	2257.94605129923
0.261077880859375	-0.014276123046875	2257.99030129912
0.25665283203125	-0.01431884765625	2258.03455129901
0.252227783203125	-0.0143707275390625	2258.0788012989
0.247802734375	-0.0144195556640625	2258.12305129879
0.243377685546875	-0.0144683837890625	2258.16730129868
0.23895263671875	-0.014520263671875	2258.21155129856
0.234527587890625	-0.0145660400390625	2258.25580129845
0.2301025390625	-0.01461181640625	2258.30005129834
0.225677490234375	-0.01466064453125	2258.34430129823
0.22125244140625	-0.014715576171875	2258.38855129812
0.216827392578125	-0.0147613525390625	2258.43280129801
0.21240234375	-0.0148101806640625	2258.47705129789
0.207977294921875	-0.01485595703125	2258.52130129778
0.20355224609375	-0.01490478515625	2258.56555129767
0.199127197265625	-0.01495361328125	2258.60980129756
0.1947021484375	-0.0149993896484375	2258.65405129745
0.190277099609375	-0.015045166015625	2258.69830129734
0.18585205078125	-0.01510009765625	2258.74255129722
0.181427001953125	-0.0151458740234375	2258.78680129711
0.177001953125	-0.0151947021484375	2258.831051297
0.172576904296875	-0.015240478515625	2258.87530129689
0.16815185546875	-0.015289306640625	2258.91955129678
0.163726806640625	-0.0153350830078125	2258.96380129666
0.1593017578125	-0.0153839111328125	2259.00805129655
0.154876708984375	-0.0154327392578125	2259.05230129644
0.15045166015625	-0.015478515625	2259.09655129633
0.146026611328125	-0.0155303955078125	2259.14080129622
0.1416015625	-0.015582275390625	2259.18505129611
0.137176513671875	-0.0156280517578125	2259.22930129599
0.13275146484375	-0.015679931640625	2259.27355129588
0.128326416015625	-0.015728759765625	2259.31780129577
0.1239013671875	-0.0157806396484375	2259.36205129566
0.119476318359375	-0.0158294677734375	2259.40630129555
0.11505126953125	-0.0158782958984375	2259.45055129544
0.110626220703125	-0.0159210205078125	2259.49480129532
0.106201171875	-0.015972900390625	2259.53905129521
0.101776123046875	-0.0160247802734375	2259.5833012951
0.09735107421875	-0.01607666015625	2259.62755129499
0.092926025390625	-0.0161285400390625	2259.67180129488
0.0885009765625	-0.016180419921875	2259.71605129477
0.084075927734375	-0.016229248046875	2259.76030129465
0.07965087890625	-0.0162811279296875	2259.80455129454
0.075225830078125	-0.0163299560546875	2259.84880129443
0.07080078125	-0.016387939453125	2259.89305129432
0.066375732421875	-0.01644287109375	2259.93730129421
0.06195068359375	-0.0165008544921875	2259.98155129409
0.057525634765625	-0.016552734375	2260.02580129398
0.0531005859375	-0.0166046142578125	2260.07005129387
0.048675537109375	-0.0166534423828125	2260.11430129376
0.04425048828125	-0.016705322265625	2260.15855129365
0.039825439453125	-0.01676025390625	2260.20280129354
0.035400390625	-0.0168212890625	2260.24705129342
0.030975341796875	-0.0168792724609375	2260.29130129331
0.02655029296875	-0.016937255859375	2260.3355512932
0.022125244140625	-0.0169952392578125	2260.37980129309
0.0177001953125	-0.01705322265625	2260.42405129298
0.013275146484375	-0.017108154296875	2260.46830129287
0.00885009765625	-0.0171661376953125	2260.51255129275
0.004425048828125	-0.0172210693359375	2260.55680129264
0	-0.017279052734375	2260.60105129253
0.004425048828125	-0.0165771484375	2260.64530129242
0.00885009765625	-0.0158935546875	2260.68955129231
0.013275146484375	-0.0152313232421875	2260.7338012922
0.0177001953125	-0.0145904541015625	2260.77805129208
0.022125244140625	-0.01396484375	2260.82230129197
0.02655029296875	-0.0133514404296875	2260.86655129186
0.030975341796875	-0.0127593994140625	2260.91080129175
0.035400390625	-0.0121856689453125	2260.95505129164
0.039825439453125	-0.011614990234375	2260.99930129153
0.04425048828125	-0.0110626220703125	2261.04355129141
0.048675537109375	-0.0105255126953125	2261.0878012913
0.0531005859375	-0.009991455078125	2261.13205129119
0.057525634765625	-0.00947265625	2261.17630129108
0.06195068359375	-0.0089691162109375	2261.22055129097
0.066375732421875	-0.0084747314453125	2261.26480129086
0.07080078125	-0.007989501953125	2261.30905129074
0.075225830078125	-0.0075164794921875	2261.35330129063
0.07965087890625	-0.007049560546875	2261.39755129052
0.084075927734375	-0.006591796875	2261.44180129041
0.0885009765625	-0.00614013671875	2261.4860512903
0.092926025390625	-0.0056976318359375	2261.53030129018
0.09735107421875	-0.005267333984375	2261.57455129007
0.101776123046875	-0.00484344482421875	2261.61880128996
0.106201171875	-0.00442779541015625	2261.66305128985
0.110626220703125	-0.0040179443359375	2261.70730128974
0.11505126953125	-0.0036175537109375	2261.75155128963
0.119476318359375	-0.00322509765625	2261.79580128951
0.1239013671875	-0.002847900390625	2261.8400512894
0.128326416015625	-0.00246612548828125	2261.88430128929
0.13275146484375	-0.00209014892578125	2261.92855128918
0.137176513671875	-0.00172149658203125	2261.97280128907
0.1416015625	-0.00135894775390625	2262.01705128896
0.146026611328125	-0.00100341796875	2262.06130128884
0.15045166015625	-0.0006536865234375	2262.10555128873
0.154876708984375	-0.000310302734375	2262.14980128862
0.1593017578125	2.69073486328125E-05	2262.19405128851
0.163726806640625	0.000358856201171875	2262.2383012884
0.16815185546875	0.0006854248046875	2262.28255128829
0.172576904296875	0.00100677490234375	2262.32680128817
0.177001953125	0.00132232666015625	2262.37105128806
0.181427001953125	0.0016326904296875	2262.41530128795
0.18585205078125	0.00193695068359375	2262.45955128784
0.190277099609375	0.00223663330078125	2262.50380128773
0.1947021484375	0.00253143310546875	2262.54805128762
0.199127197265625	0.00282073974609375	2262.5923012875
0.20355224609375	0.00310577392578125	2262.63655128739
0.207977294921875	0.00338470458984375	2262.68080128728
0.21240234375	0.00366058349609375	2262.72505128717
0.216827392578125	0.0039312744140625	2262.76930128706
0.22125244140625	0.00419647216796875	2262.81355128694
0.225677490234375	0.00445892333984375	2262.85780128683
0.2301025390625	0.0047137451171875	2262.90205128672
0.234527587890625	0.0049658203125	2262.94630128661
0.23895263671875	0.00521209716796875	2262.9905512865
0.243377685546875	0.0054559326171875	2263.03480128639
0.247802734375	0.00569427490234375	2263.07905128627
0.252227783203125	0.00592864990234375	2263.12330128616
0.25665283203125	0.00615814208984375	2263.16755128605
0.261077880859375	0.0063720703125	2263.21180128594
0.2655029296875	0.0065948486328125	2263.25605128583
0.269927978515625	0.0068115234375	2263.30030128572
0.27435302734375	0.007025146484375	2263.3445512856
0.278778076171875	0.0072357177734375	2263.38880128549
0.283203125	0.007440185546875	2263.43305128538
0.287628173828125	0.0076416015625	2263.47730128527
0.29205322265625	0.0078369140625	2263.52155128516
0.296478271484375	0.0080291748046875	2263.56580128505
0.3009033203125	0.008221435546875	2263.61005128493
0.305328369140625	0.0084075927734375	2263.65430128482
0.30975341796875	0.008587646484375	2263.69855128471
0.314178466796875	0.0087677001953125	2263.7428012846
0.318603515625	0.008941650390625	2263.78705128449
0.323028564453125	0.009112548828125	2263.83130128438
0.32745361328125	0.00927734375	2263.87555128426
0.331878662109375	0.009442138671875	2263.91980128415
0.3363037109375	0.00960693359375	2263.96405128404
0.340728759765625	0.0097625732421875	2264.00830128393
0.34515380859375	0.009918212890625	2264.05255128382
0.349578857421875	0.0100677490234375	2264.09680128371
0.35400390625	0.010211181640625	2264.14105128359
0.358428955078125	0.0103546142578125	2264.18530128348
0.36285400390625	0.0104949951171875	2264.22955128337
0.367279052734375	0.01063232421875	2264.27380128326
0.3717041015625	0.0107696533203125	2264.31805128315
0.376129150390625	0.0108978271484375	2264.36230128303
0.38055419921875	0.01102294921875	2264.40655128292
0.384979248046875	0.011151123046875	2264.45080128281
0.389404296875	0.0112701416015625	2264.4950512827
0.393829345703125	0.0113922119140625	2264.53930128259
0.39825439453125	0.011505126953125	2264.58355128248
0.402679443359375	0.011614990234375	2264.62780128236
0.4071044921875	0.011724853515625	2264.67205128225
0.411529541015625	0.011834716796875	2264.71630128214
0.41595458984375	0.0119415283203125	2264.76055128203
0.420379638671875	0.0120452880859375	2264.80480128192
0.4248046875	0.0121490478515625	2264.84905128181
0.429229736328125	0.01224365234375	2264.89330128169
0.43365478515625	0.012335205078125	2264.93755128158
0.438079833984375	0.0124267578125	2264.98180128147
0.4425048828125	0.012518310546875	2265.02605128136
0.446929931640625	0.0126068115234375	2265.07030128125
0.45135498046875	0.0126922607421875	2265.11455128114
0.455780029296875	0.0127716064453125	2265.15880128102
0.460205078125	0.0128570556640625	2265.20305128091
0.464630126953125	0.0129364013671875	2265.2473012808
0.46905517578125	0.0130096435546875	2265.29155128069
0.473480224609375	0.0130828857421875	2265.33580128058
0.4779052734375	0.0131591796875	2265.38005128047
0.482330322265625	0.0132293701171875	2265.42430128035
0.48675537109375	0.01329345703125	2265.46855128024
0.491180419921875	0.0133575439453125	2265.51280128013
0.49560546875	0.013421630859375	2265.55705128002
0.500030517578125	0.013482666015625	2265.60130127991
0.50445556640625	0.013543701171875	2265.64555127979
0.508880615234375	0.0135986328125	2265.68980127968
0.5133056640625	0.0136566162109375	2265.73405127957
0.517730712890625	0.0137054443359375	2265.77830127946
0.52215576171875	0.0137603759765625	2265.82255127935
0.526580810546875	0.0138092041015625	2265.86680127924
0.531005859375	0.01385498046875	2265.91105127912
0.535430908203125	0.01390380859375	2265.95530127901
0.53985595703125	0.0139495849609375	2265.9995512789
0.544281005859375	0.0139923095703125	2266.04380127879
0.5487060546875	0.014031982421875	2266.08805127868
0.553131103515625	0.0140716552734375	2266.13230127857
0.55755615234375	0.014111328125	2266.17655127845
0.561981201171875	0.01414794921875	2266.22080127834
0.56640625	0.0141876220703125	2266.26505127823
0.570831298828125	0.0142242431640625	2266.30930127812
0.57525634765625	0.0142578125	2266.35355127801
0.579681396484375	0.0142791748046875	2266.3978012779
0.5841064453125	0.0143157958984375	2266.44205127778
0.588531494140625	0.01434326171875	2266.48630127767
0.59295654296875	0.0143707275390625	2266.53055127756
0.597381591796875	0.0144012451171875	2266.57480127745
0.601806640625	0.0144287109375	2266.61905127734
0.606231689453125	0.014453125	2266.66330127723
0.61065673828125	0.0144775390625	2266.70755127711
0.615081787109375	0.0144989013671875	2266.751801277
0.6195068359375	0.0145233154296875	2266.79605127689
0.623931884765625	0.0145477294921875	2266.84030127678
0.62835693359375	0.0145660400390625	2266.88455127667
0.632781982421875	0.0145843505859375	2266.92880127656
0.63720703125	0.0146026611328125	2266.97305127644
0.641632080078125	0.0146240234375	2267.01730127633
0.64605712890625	0.01463623046875	2267.06155127622
0.650482177734375	0.0146514892578125	2267.10580127611
0.6549072265625	0.0146636962890625	2267.150051276
0.659332275390625	0.0146728515625	2267.19430127588
0.66375732421875	0.0146820068359375	2267.23855127577
0.668182373046875	0.014691162109375	2267.28280127566
0.672607421875	0.0147003173828125	2267.32705127555
0.677032470703125	0.0147125244140625	2267.37130127544
0.68145751953125	0.0147216796875	2267.41555127533
0.685882568359375	0.014727783203125	2267.45980127521
0.6903076171875	0.01473388671875	2267.5040512751
0.694732666015625	0.014739990234375	2267.54830127499
0.69915771484375	0.01474609375	2267.59255127488
0.703582763671875	0.014752197265625	2267.63680127477
0.7080078125	0.0147613525390625	2267.68105127466
0.712432861328125	0.014764404296875	2267.72530127454
0.71685791015625	0.014764404296875	2267.76955127443
0.721282958984375	0.0147705078125	2267.81380127432
0.7257080078125	0.014776611328125	2267.85805127421
0.730133056640625	0.014776611328125	2267.9023012741
0.73455810546875	0.014776611328125	2267.94655127399
0.738983154296875	0.014776611328125	2267.99080127387
0.743408203125	0.014776611328125	2268.03505127376
0.747833251953125	0.014776611328125	2268.07930127365
0.75225830078125	0.014776611328125	2268.12355127354
0.756683349609375	0.0147735595703125	2268.16780127343
0.7611083984375	0.0147735595703125	2268.21205127331
0.765533447265625	0.0147735595703125	2268.2563012732
0.76995849609375	0.0147705078125	2268.30055127309
0.774383544921875	0.0147735595703125	2268.34480127298
0.77880859375	0.0147705078125	2268.38905127287
0.783233642578125	0.0147674560546875	2268.43330127276
0.78765869140625	0.014764404296875	2268.47755127264
0.792083740234375	0.014764404296875	2268.52180127253
0.7965087890625	0.01475830078125	2268.56605127242
0.800933837890625	0.0147552490234375	2268.61030127231
0.80535888671875	0.014752197265625	2268.6545512722
0.809783935546875	0.0147552490234375	2268.69880127209
0.814208984375	0.0147491455078125	2268.74305127197
0.818634033203125	0.01474609375	2268.78730127186
0.82305908203125	0.0147430419921875	2268.83155127175
0.827484130859375	0.0147369384765625	2268.87580127164
0.8319091796875	0.0147369384765625	2268.92005127153
0.836334228515625	0.01473388671875	2268.96430127142
0.84075927734375	0.0147308349609375	2269.0085512713
0.845184326171875	0.0147308349609375	2269.05280127119
0.849609375	0.014727783203125	2269.09705127108
0.854034423828125	0.0147247314453125	2269.14130127097
0.85845947265625	0.0147308349609375	2269.18555127086
0.862884521484375	0.014727783203125	2269.22980127075
0.8673095703125	0.014727783203125	2269.27405127063
0.871734619140625	0.0147308349609375	2269.31830127052
0.87615966796875	0.0147308349609375	2269.36255127041
0.880584716796875	0.0147308349609375	2269.4068012703
0.885009765625	0.01473388671875	2269.45105127019
0.889434814453125	0.0147369384765625	2269.49530127008
0.89385986328125	0.0147369384765625	2269.53955126996
0.898284912109375	0.014739990234375	2269.58380126985
0.9027099609375	0.0147430419921875	2269.62805126974
0.907135009765625	0.0147491455078125	2269.67230126963
0.91156005859375	0.0147552490234375	2269.71655126952
0.915985107421875	0.014764404296875	2269.7608012694
0.92041015625	0.0147674560546875	2269.80505126929
0.924835205078125	0.0147796630859375	2269.84930126918
0.92926025390625	0.014788818359375	2269.89355126907
0.933685302734375	0.014801025390625	2269.93780126896
0.9381103515625	0.014813232421875	2269.98205126885
0.942535400390625	0.014825439453125	2270.02630126873
0.94696044921875	0.0148345947265625	2270.07055126862
0.951385498046875	0.014849853515625	2270.11480126851
0.955810546875	0.0148681640625	2270.1590512684
0.960235595703125	0.014886474609375	2270.20330126829
0.96466064453125	0.01490478515625	2270.24755126818
0.969085693359375	0.0149261474609375	2270.29180126806
0.9735107421875	0.014947509765625	2270.33605126795
0.977935791015625	0.0149688720703125	2270.38030126784
0.98236083984375	0.014990234375	2270.42455126773
0.986785888671875	0.0150146484375	2270.46880126762
0.9912109375	0.0150421142578125	2270.51305126751
0.995635986328125	0.015069580078125	2270.55730126739
1.00006103515625	0.01510009765625	2270.60155126728
0.995635986328125	0.0143768310546875	2270.64580126717
0.9912109375	0.013690185546875	2270.69005126706
0.986785888671875	0.0130279541015625	2270.73430126695
0.98236083984375	0.0123870849609375	2270.77855126684
0.977935791015625	0.0117706298828125	2270.82280126672
0.9735107421875	0.0111724853515625	2270.86705126661
0.969085693359375	0.0105987548828125	2270.9113012665
0.96466064453125	0.0100341796875	2270.95555126639
0.960235595703125	0.0094879150390625	2270.99980126628
0.955810546875	0.0089569091796875	2271.04405126616
0.951385498046875	0.008441162109375	2271.08830126605
0.94696044921875	0.0079376220703125	2271.13255126594
0.942535400390625	0.007452392578125	2271.17680126583
0.9381103515625	0.0069732666015625	2271.22105126572
0.933685302734375	0.00650634765625	2271.26530126561
0.92926025390625	0.0060546875	2271.30955126549
0.924835205078125	0.0056121826171875	2271.35380126538
0.92041015625	0.0051788330078125	2271.39805126527
0.915985107421875	0.004759521484375	2271.44230126516
0.91156005859375	0.0043499755859375	2271.48655126505
0.907135009765625	0.00394805908203125	2271.53080126494
0.9027099609375	0.00355712890625	2271.57505126482
0.898284912109375	0.00317474365234375	2271.61930126471
0.89385986328125	0.002802734375	2271.6635512646
0.889434814453125	0.0024359130859375	2271.70780126449
0.885009765625	0.00207733154296875	2271.75205126438
0.880584716796875	0.00172760009765625	2271.79630126427
0.87615966796875	0.00138580322265625	2271.84055126415
0.871734619140625	0.00105072021484375	2271.88480126404
0.8673095703125	0.000723876953125	2271.92905126393
0.862884521484375	0.000403900146484375	2271.97330126382
0.85845947265625	9.173583984375E-05	2272.01755126371
0.854034423828125	-0.000214447021484375	2272.0618012636
0.849609375	-0.000513916015625	2272.10605126348
0.845184326171875	-0.00080596923828125	2272.15030126337
0.84075927734375	-0.00109283447265625	2272.19455126326
0.836334228515625	-0.00137237548828125	2272.23880126315
0.8319091796875	-0.00164642333984375	2272.28305126304
0.827484130859375	-0.00191436767578125	2272.32730126293
0.82305908203125	-0.00217620849609375	2272.37155126281
0.818634033203125	-0.00243255615234375	2272.4158012627
0.814208984375	-0.002681884765625	2272.46005126259
0.809783935546875	-0.0029266357421875	2272.50430126248
0.80535888671875	-0.00316619873046875	2272.54855126237
0.800933837890625	-0.00339935302734375	2272.59280126225
0.7965087890625	-0.00362701416015625	2272.63705126214
0.792083740234375	-0.00385040283203125	2272.68130126203
0.78765869140625	-0.0040673828125	2272.72555126192
0.783233642578125	-0.004281005859375	2272.76980126181
0.77880859375	-0.00448822021484375	2272.8140512617
0.774383544921875	-0.004691162109375	2272.85830126158
0.76995849609375	-0.00488800048828125	2272.90255126147
0.765533447265625	-0.00508087158203125	2272.94680126136
0.7611083984375	-0.00527069091796875	2272.99105126125
0.756683349609375	-0.00545562744140625	2273.03530126114
0.75225830078125	-0.00563690185546875	2273.07955126103
0.747833251953125	-0.00581268310546875	2273.12380126091
0.743408203125	-0.0059844970703125	2273.1680512608
0.738983154296875	-0.00614959716796875	2273.21230126069
0.73455810546875	-0.006292724609375	2273.25655126058
0.730133056640625	-0.0064483642578125	2273.30080126047
0.7257080078125	-0.0066070556640625	2273.34505126036
0.721282958984375	-0.0067596435546875	2273.38930126024
0.71685791015625	-0.0069061279296875	2273.43355126013
0.712432861328125	-0.007049560546875	2273.47780126002
0.7080078125	-0.0071868896484375	2273.52205125991
0.703582763671875	-0.007330322265625	2273.5663012598
0.69915771484375	-0.0074615478515625	2273.61055125969
0.694732666015625	-0.0075958251953125	2273.65480125957
0.6903076171875	-0.00772705078125	2273.69905125946
0.685882568359375	-0.0078460693359375	2273.74330125935
0.68145751953125	-0.0079681396484375	2273.78755125924
0.677032470703125	-0.008087158203125	2273.83180125913
0.672607421875	-0.0082061767578125	2273.87605125901
0.668182373046875	-0.0083221435546875	2273.9203012589
0.66375732421875	-0.0084320068359375	2273.96455125879
0.659332275390625	-0.0085418701171875	2274.00880125868
0.6549072265625	-0.008648681640625	2274.05305125857
0.650482177734375	-0.0087554931640625	2274.09730125846
0.64605712890625	-0.0088623046875	2274.14155125834
0.641632080078125	-0.0089599609375	2274.18580125823
0.63720703125	-0.0090606689453125	2274.23005125812
0.632781982421875	-0.0091552734375	2274.27430125801
0.62835693359375	-0.0092529296875	2274.3185512579
0.623931884765625	-0.0093475341796875	2274.36280125779
0.6195068359375	-0.00943603515625	2274.40705125767
0.615081787109375	-0.009527587890625	2274.45130125756
0.61065673828125	-0.009619140625	2274.49555125745
0.606231689453125	-0.0097076416015625	2274.53980125734
0.601806640625	-0.0097900390625	2274.58405125723
0.597381591796875	-0.0098724365234375	2274.62830125712
0.59295654296875	-0.009954833984375	2274.672551257
0.588531494140625	-0.0100341796875	2274.71680125689
0.5841064453125	-0.010113525390625	2274.76105125678
0.579681396484375	-0.0101898193359375	2274.80530125667
0.57525634765625	-0.0102630615234375	2274.84955125656
0.570831298828125	-0.0103363037109375	2274.89380125645
0.56640625	-0.01041259765625	2274.93805125633
0.561981201171875	-0.01048583984375	2274.98230125622
0.55755615234375	-0.01055908203125	2275.02655125611
0.553131103515625	-0.0106353759765625	2275.070801256
0.5487060546875	-0.0107086181640625	2275.11505125589
0.544281005859375	-0.010772705078125	2275.15930125578
0.53985595703125	-0.0108428955078125	2275.20355125566
0.535430908203125	-0.010906982421875	2275.24780125555
0.531005859375	-0.0109771728515625	2275.29205125544
0.526580810546875	-0.0110443115234375	2275.33630125533
0.52215576171875	-0.0111114501953125	2275.38055125522
0.517730712890625	-0.011175537109375	2275.4248012551
0.5133056640625	-0.01124267578125	2275.46905125499
0.508880615234375	-0.0113037109375	2275.51330125488
0.50445556640625	-0.0113677978515625	2275.55755125477
0.500030517578125	-0.0114349365234375	2275.60180125466
0.49560546875	-0.011492919921875	2275.64605125455
0.491180419921875	-0.011553955078125	2275.69030125443
0.48675537109375	-0.0116180419921875	2275.73455125432
0.482330322265625	-0.011676025390625	2275.77880125421
0.4779052734375	-0.0117340087890625	2275.8230512541
0.473480224609375	-0.0117919921875	2275.86730125399
0.46905517578125	-0.0118499755859375	2275.91155125388
0.464630126953125	-0.0119049072265625	2275.95580125376
0.460205078125	-0.011962890625	2276.00005125365
0.455780029296875	-0.0120208740234375	2276.04430125354
0.45135498046875	-0.012078857421875	2276.08855125343
0.446929931640625	-0.0121368408203125	2276.13280125332
0.4425048828125	-0.012188720703125	2276.17705125321
0.438079833984375	-0.01224365234375	2276.22130125309
0.43365478515625	-0.012298583984375	2276.26555125298
0.429229736328125	-0.012353515625	2276.30980125287
0.4248046875	-0.012408447265625	2276.35405125276
0.420379638671875	-0.01246337890625	2276.39830125265
0.41595458984375	-0.012518310546875	2276.44255125253
0.411529541015625	-0.0125701904296875	2276.48680125242
0.4071044921875	-0.0126220703125	2276.53105125231
0.402679443359375	-0.012677001953125	2276.5753012522
0.39825439453125	-0.0127288818359375	2276.61955125209
0.393829345703125	-0.0127777099609375	2276.66380125198
0.389404296875	-0.0128326416015625	2276.70805125186
0.384979248046875	-0.012884521484375	2276.75230125175
0.38055419921875	-0.012939453125	2276.79655125164
0.376129150390625	-0.01298828125	2276.84080125153
0.3717041015625	-0.013043212890625	2276.88505125142
0.367279052734375	-0.013092041015625	2276.92930125131
0.36285400390625	-0.01314697265625	2276.97355125119
0.358428955078125	-0.013201904296875	2277.01780125108
0.35400390625	-0.0132476806640625	2277.06205125097
0.349578857421875	-0.0132965087890625	2277.10630125086
0.34515380859375	-0.01334228515625	2277.15055125075
0.340728759765625	-0.0134002685546875	2277.19480125064
0.3363037109375	-0.013446044921875	2277.23905125052
0.331878662109375	-0.0135009765625	2277.28330125041
0.32745361328125	-0.013543701171875	2277.3275512503
0.323028564453125	-0.0135955810546875	2277.37180125019
0.318603515625	-0.0136474609375	2277.41605125008
0.314178466796875	-0.0136962890625	2277.46030124997
0.30975341796875	-0.0137481689453125	2277.50455124985
0.305328369140625	-0.013800048828125	2277.54880124974
0.3009033203125	-0.013848876953125	2277.59305124963
0.296478271484375	-0.0139007568359375	2277.63730124952
0.29205322265625	-0.0139495849609375	2277.68155124941
0.287628173828125	-0.01400146484375	2277.7258012493
0.283203125	-0.0140472412109375	2277.77005124918
0.278778076171875	-0.014093017578125	2277.81430124907
0.27435302734375	-0.014141845703125	2277.85855124896
0.269927978515625	-0.014190673828125	2277.90280124885
0.2655029296875	-0.014239501953125	2277.94705124874
0.261077880859375	-0.0142852783203125	2277.99130124862
0.25665283203125	-0.014337158203125	2278.03555124851
0.252227783203125	-0.0143829345703125	2278.0798012484
0.247802734375	-0.014434814453125	2278.12405124829
0.243377685546875	-0.014483642578125	2278.16830124818
0.23895263671875	-0.0145355224609375	2278.21255124807
0.234527587890625	-0.0145751953125	2278.25680124795
0.2301025390625	-0.0146240234375	2278.30105124784
0.225677490234375	-0.0146759033203125	2278.34530124773
0.22125244140625	-0.0147247314453125	2278.38955124762
0.216827392578125	-0.0147705078125	2278.43380124751
0.21240234375	-0.0148223876953125	2278.4780512474
0.207977294921875	-0.0148712158203125	2278.52230124728
0.20355224609375	-0.0149169921875	2278.56655124717
0.199127197265625	-0.0149688720703125	2278.61080124706
0.1947021484375	-0.0150146484375	2278.65505124695
0.190277099609375	-0.0150634765625	2278.69930124684
0.18585205078125	-0.0151092529296875	2278.74355124673
0.181427001953125	-0.0151641845703125	2278.78780124661
0.177001953125	-0.0152099609375	2278.8320512465
0.172576904296875	-0.0152618408203125	2278.87630124639
0.16815185546875	-0.0153045654296875	2278.92055124628
0.163726806640625	-0.0153564453125	2278.96480124617
0.1593017578125	-0.0154052734375	2279.00905124606
0.154876708984375	-0.0154510498046875	2279.05330124594
0.15045166015625	-0.0154998779296875	2279.09755124583
0.146026611328125	-0.015545654296875	2279.14180124572
0.1416015625	-0.0155975341796875	2279.18605124561
0.137176513671875	-0.0156402587890625	2279.2303012455
0.13275146484375	-0.015692138671875	2279.27455124538
0.128326416015625	-0.015740966796875	2279.31880124527
0.1239013671875	-0.015789794921875	2279.36305124516
0.119476318359375	-0.0158447265625	2279.40730124505
0.11505126953125	-0.0158935546875	2279.45155124494
0.110626220703125	-0.0159423828125	2279.49580124483
0.106201171875	-0.0159942626953125	2279.54005124471
0.101776123046875	-0.0160430908203125	2279.5843012446
0.09735107421875	-0.0160980224609375	2279.62855124449
0.092926025390625	-0.01614990234375	2279.67280124438
0.0885009765625	-0.0161956787109375	2279.71705124427
0.084075927734375	-0.01624755859375	2279.76130124416
0.07965087890625	-0.0162994384765625	2279.80555124404
0.075225830078125	-0.016351318359375	2279.84980124393
0.07080078125	-0.01640625	2279.89405124382
0.066375732421875	-0.0164581298828125	2279.93830124371
0.06195068359375	-0.0165130615234375	2279.9825512436
0.057525634765625	-0.0165618896484375	2280.02680124349
0.0531005859375	-0.01661376953125	2280.07105124337
0.048675537109375	-0.0166656494140625	2280.11530124326
0.04425048828125	-0.0167236328125	2280.15955124315
0.039825439453125	-0.0167816162109375	2280.20380124304
0.035400390625	-0.0168365478515625	2280.24805124293
0.030975341796875	-0.0168914794921875	2280.29230124282
0.02655029296875	-0.016949462890625	2280.3365512427
0.022125244140625	-0.01700439453125	2280.38080124259
0.0177001953125	-0.0170623779296875	2280.42505124248
0.013275146484375	-0.0171234130859375	2280.46930124237
0.00885009765625	-0.0171783447265625	2280.51355124226
0.004425048828125	-0.0172332763671875	2280.55780124215
0	-0.0172943115234375	2280.60205124203
0.004425048828125	-0.0165863037109375	2280.64630124192
0.00885009765625	-0.0158966064453125	2280.69055124181
0.013275146484375	-0.015234375	2280.7348012417
0.0177001953125	-0.0145904541015625	2280.77905124159
0.022125244140625	-0.0139678955078125	2280.82330124147
0.02655029296875	-0.013360595703125	2280.86755124136
0.030975341796875	-0.0127655029296875	2280.91180124125
0.035400390625	-0.0121856689453125	2280.95605124114
0.039825439453125	-0.011614990234375	2281.00030124103
0.04425048828125	-0.0110595703125	2281.04455124092
0.048675537109375	-0.0105194091796875	2281.0888012408
0.0531005859375	-0.009991455078125	2281.13305124069
0.057525634765625	-0.0094696044921875	2281.17730124058
0.06195068359375	-0.008966064453125	2281.22155124047
0.066375732421875	-0.008465576171875	2281.26580124036
0.07080078125	-0.0079803466796875	2281.31005124025
0.075225830078125	-0.0075042724609375	2281.35430124013
0.07965087890625	-0.0070343017578125	2281.39855124002
0.084075927734375	-0.0065765380859375	2281.44280123991
0.0885009765625	-0.0061309814453125	2281.4870512398
0.092926025390625	-0.0056884765625	2281.53130123969
0.09735107421875	-0.005255126953125	2281.57555123958
0.101776123046875	-0.00483154296875	2281.61980123946
0.106201171875	-0.004415283203125	2281.66405123935
0.110626220703125	-0.00400634765625	2281.70830123924
0.11505126953125	-0.00360382080078125	2281.75255123913
0.119476318359375	-0.003211669921875	2281.79680123902
0.1239013671875	-0.00283538818359375	2281.84105123891
0.128326416015625	-0.00245330810546875	2281.88530123879
0.13275146484375	-0.00207763671875	2281.92955123868
0.137176513671875	-0.00170989990234375	2281.97380123857
0.1416015625	-0.00134796142578125	2282.01805123846
0.146026611328125	-0.00099212646484375	2282.06230123835
0.15045166015625	-0.00064300537109375	2282.10655123823
0.154876708984375	-0.00029949951171875	2282.15080123812
0.1593017578125	3.73138427734375E-05	2282.19505123801
0.163726806640625	0.000368865966796875	2282.2393012379
0.16815185546875	0.00069549560546875	2282.28355123779
0.172576904296875	0.00101593017578125	2282.32780123768
0.177001953125	0.00133148193359375	2282.37205123756
0.181427001953125	0.00164154052734375	2282.41630123745
0.18585205078125	0.00194610595703125	2282.46055123734
0.190277099609375	0.0022454833984375	2282.50480123723
0.1947021484375	0.00253936767578125	2282.54905123712
0.199127197265625	0.002828369140625	2282.59330123701
0.20355224609375	0.0031134033203125	2282.63755123689
0.207977294921875	0.00339385986328125	2282.68180123678
0.21240234375	0.0036688232421875	2282.72605123667
0.216827392578125	0.00393951416015625	2282.77030123656
0.22125244140625	0.00420379638671875	2282.81455123645
0.225677490234375	0.00446380615234375	2282.85880123634
0.2301025390625	0.00472015380859375	2282.90305123622
0.234527587890625	0.0049713134765625	2282.94730123611
0.23895263671875	0.005218505859375	2282.991551236
0.243377685546875	0.00546173095703125	2283.03580123589
0.247802734375	0.0057012939453125	2283.08005123578
0.252227783203125	0.00593505859375	2283.12430123567
0.25665283203125	0.00616363525390625	2283.16855123555
0.261077880859375	0.006378173828125	2283.21280123544
0.2655029296875	0.006597900390625	2283.25705123533
0.269927978515625	0.006817626953125	2283.30130123522
0.27435302734375	0.00703125	2283.34555123511
0.278778076171875	0.00723876953125	2283.389801235
0.283203125	0.0074462890625	2283.43405123488
0.287628173828125	0.007647705078125	2283.47830123477
0.29205322265625	0.007843017578125	2283.52255123466
0.296478271484375	0.0080352783203125	2283.56680123455
0.3009033203125	0.0082244873046875	2283.61105123444
0.305328369140625	0.00841064453125	2283.65530123432
0.30975341796875	0.0085906982421875	2283.69955123421
0.314178466796875	0.0087738037109375	2283.7438012341
0.318603515625	0.0089508056640625	2283.78805123399
0.323028564453125	0.00911865234375	2283.83230123388
0.32745361328125	0.00928955078125	2283.87655123377
0.331878662109375	0.0094482421875	2283.92080123365
0.3363037109375	0.00960693359375	2283.96505123354
0.340728759765625	0.009765625	2284.00930123343
0.34515380859375	0.009918212890625	2284.05355123332
0.349578857421875	0.0100677490234375	2284.09780123321
0.35400390625	0.010211181640625	2284.1420512331
0.358428955078125	0.0103546142578125	2284.18630123298
0.36285400390625	0.0104949951171875	2284.23055123287
0.367279052734375	0.0106353759765625	2284.27480123276
0.3717041015625	0.0107696533203125	2284.31905123265
0.376129150390625	0.01090087890625	2284.36330123254
0.38055419921875	0.01102294921875	2284.40755123243
0.384979248046875	0.011151123046875	2284.45180123231
0.389404296875	0.0112701416015625	2284.4960512322
0.393829345703125	0.01138916015625	2284.54030123209
0.39825439453125	0.011505126953125	2284.58455123198
0.402679443359375	0.01162109375	2284.62880123187
0.4071044921875	0.0117279052734375	2284.67305123175
0.411529541015625	0.0118377685546875	2284.71730123164
0.41595458984375	0.0119415283203125	2284.76155123153
0.420379638671875	0.012042236328125	2284.80580123142
0.4248046875	0.01214599609375	2284.85005123131
0.429229736328125	0.01224365234375	2284.8943012312
0.43365478515625	0.012335205078125	2284.93855123108
0.438079833984375	0.0124267578125	2284.98280123097
0.4425048828125	0.0125152587890625	2285.02705123086
0.446929931640625	0.01259765625	2285.07130123075
0.45135498046875	0.0126800537109375	2285.11555123064
0.455780029296875	0.0127655029296875	2285.15980123053
0.460205078125	0.01285400390625	2285.20405123041
0.464630126953125	0.0129302978515625	2285.2483012303
0.46905517578125	0.0130035400390625	2285.29255123019
0.473480224609375	0.013079833984375	2285.33680123008
0.4779052734375	0.0131500244140625	2285.38105122997
0.482330322265625	0.01322021484375	2285.42530122986
0.48675537109375	0.0132843017578125	2285.46955122974
0.491180419921875	0.013348388671875	2285.51380122963
0.49560546875	0.0134124755859375	2285.55805122952
0.500030517578125	0.013470458984375	2285.60230122941
0.50445556640625	0.0135284423828125	2285.6465512293
0.508880615234375	0.0135833740234375	2285.69080122919
0.5133056640625	0.013641357421875	2285.73505122907
0.517730712890625	0.0136962890625	2285.77930122896
0.52215576171875	0.0137481689453125	2285.82355122885
0.526580810546875	0.0137939453125	2285.86780122874
0.531005859375	0.0138427734375	2285.91205122863
0.535430908203125	0.0138885498046875	2285.95630122852
0.53985595703125	0.0139373779296875	2286.0005512284
0.544281005859375	0.01397705078125	2286.04480122829
0.5487060546875	0.014019775390625	2286.08905122818
0.553131103515625	0.0140594482421875	2286.13330122807
0.55755615234375	0.01409912109375	2286.17755122796
0.561981201171875	0.0141357421875	2286.22180122784
0.56640625	0.01417236328125	2286.26605122773
0.570831298828125	0.0142059326171875	2286.31030122762
0.57525634765625	0.014239501953125	2286.35455122751
0.579681396484375	0.0142730712890625	2286.3988012274
0.5841064453125	0.014300537109375	2286.44305122729
0.588531494140625	0.0143310546875	2286.48730122717
0.59295654296875	0.01435546875	2286.53155122706
0.597381591796875	0.0143798828125	2286.57580122695
0.601806640625	0.014410400390625	2286.62005122684
0.606231689453125	0.0144317626953125	2286.66430122673
0.61065673828125	0.014453125	2286.70855122662
0.615081787109375	0.0144775390625	2286.7528012265
0.6195068359375	0.0144989013671875	2286.79705122639
0.623931884765625	0.014520263671875	2286.84130122628
0.62835693359375	0.01453857421875	2286.88555122617
0.632781982421875	0.014556884765625	2286.92980122606
0.63720703125	0.0145751953125	2286.97405122595
0.641632080078125	0.01458740234375	2287.01830122583
0.64605712890625	0.014605712890625	2287.06255122572
0.650482177734375	0.0146209716796875	2287.10680122561
0.6549072265625	0.0146331787109375	2287.1510512255
0.659332275390625	0.0146484375	2287.19530122539
0.66375732421875	0.0146636962890625	2287.23955122528
0.668182373046875	0.0146728515625	2287.28380122516
0.672607421875	0.0146820068359375	2287.32805122505
0.677032470703125	0.014691162109375	2287.37230122494
0.68145751953125	0.0147003173828125	2287.41655122483
0.685882568359375	0.01470947265625	2287.46080122472
0.6903076171875	0.0147125244140625	2287.5050512246
0.694732666015625	0.0147186279296875	2287.54930122449
0.69915771484375	0.0147247314453125	2287.59355122438
0.703582763671875	0.0147308349609375	2287.63780122427
0.7080078125	0.0147369384765625	2287.68205122416
0.712432861328125	0.0147369384765625	2287.72630122405
0.71685791015625	0.0147369384765625	2287.77055122393
0.721282958984375	0.0147430419921875	2287.81480122382
0.7257080078125	0.01474609375	2287.85905122371
0.730133056640625	0.0147491455078125	2287.9033012236
0.73455810546875	0.0147491455078125	2287.94755122349
0.738983154296875	0.0147491455078125	2287.99180122338
0.743408203125	0.0147491455078125	2288.03605122326
0.747833251953125	0.0147491455078125	2288.08030122315
0.75225830078125	0.01474609375	2288.12455122304
0.756683349609375	0.0147430419921875	2288.16880122293
0.7611083984375	0.0147430419921875	2288.21305122282
0.765533447265625	0.014739990234375	2288.25730122271
0.76995849609375	0.0147369384765625	2288.30155122259
0.774383544921875	0.014739990234375	2288.34580122248
0.77880859375	0.014739990234375	2288.39005122237
0.783233642578125	0.0147369384765625	2288.43430122226
0.78765869140625	0.01473388671875	2288.47855122215
0.792083740234375	0.0147308349609375	2288.52280122204
0.7965087890625	0.0147247314453125	2288.56705122192
0.800933837890625	0.0147216796875	2288.61130122181
0.80535888671875	0.0147186279296875	2288.6555512217
0.809783935546875	0.0147186279296875	2288.69980122159
0.814208984375	0.014715576171875	2288.74405122148
0.818634033203125	0.0147064208984375	2288.78830122137
0.82305908203125	0.01470947265625	2288.83255122125
0.827484130859375	0.014703369140625	2288.87680122114
0.8319091796875	0.0147003173828125	2288.92105122103
0.836334228515625	0.0147003173828125	2288.96530122092
0.84075927734375	0.0146942138671875	2289.00955122081
0.845184326171875	0.014691162109375	2289.05380122069
0.849609375	0.014691162109375	2289.09805122058
0.854034423828125	0.014691162109375	2289.14230122047
0.85845947265625	0.014691162109375	2289.18655122036
0.862884521484375	0.0146881103515625	2289.23080122025
0.8673095703125	0.0146881103515625	2289.27505122014
0.871734619140625	0.01468505859375	2289.31930122002
0.87615966796875	0.01468505859375	2289.36355121991
0.880584716796875	0.01468505859375	2289.4078012198
0.885009765625	0.0146881103515625	2289.45205121969
0.889434814453125	0.0146881103515625	2289.49630121958
0.89385986328125	0.0146881103515625	2289.54055121947
0.898284912109375	0.014691162109375	2289.58480121935
0.9027099609375	0.014697265625	2289.62905121924
0.907135009765625	0.014703369140625	2289.67330121913
0.91156005859375	0.01470947265625	2289.71755121902
0.915985107421875	0.014715576171875	2289.76180121891
0.92041015625	0.0147247314453125	2289.8060512188
0.924835205078125	0.0147308349609375	2289.85030121868
0.92926025390625	0.014739990234375	2289.89455121857
0.933685302734375	0.0147491455078125	2289.93880121846
0.9381103515625	0.0147613525390625	2289.98305121835
0.942535400390625	0.0147705078125	2290.02730121824
0.94696044921875	0.0147857666015625	2290.07155121813
0.951385498046875	0.014801025390625	2290.11580121801
0.955810546875	0.0148162841796875	2290.1600512179
0.960235595703125	0.0148284912109375	2290.20430121779
0.96466064453125	0.0148468017578125	2290.24855121768
0.969085693359375	0.0148651123046875	2290.29280121757
0.9735107421875	0.0148895263671875	2290.33705121745
0.977935791015625	0.0149078369140625	2290.38130121734
0.98236083984375	0.01492919921875	2290.42555121723
0.986785888671875	0.01495361328125	2290.46980121712
0.9912109375	0.0149810791015625	2290.51405121701
0.995635986328125	0.0150054931640625	2290.5583012169
1.00006103515625	0.0150421142578125	2290.60255121678
0.995635986328125	0.0143218994140625	2290.64680121667
0.9912109375	0.013629150390625	2290.69105121656
0.986785888671875	0.012969970703125	2290.73530121645
0.98236083984375	0.0123321533203125	2290.77955121634
0.977935791015625	0.011712646484375	2290.82380121623
0.9735107421875	0.011114501953125	2290.86805121611
0.969085693359375	0.0105377197265625	2290.912301216
0.96466064453125	0.0099761962890625	2290.95655121589
0.960235595703125	0.0094268798828125	2291.00080121578
0.955810546875	0.00889892578125	2291.04505121567
0.951385498046875	0.0083831787109375	2291.08930121556
0.94696044921875	0.007879638671875	2291.13355121544
0.942535400390625	0.007391357421875	2291.17780121533
0.9381103515625	0.006915283203125	2291.22205121522
0.933685302734375	0.0064483642578125	2291.26630121511
0.92926025390625	0.0059967041015625	2291.310551215
0.924835205078125	0.0055511474609375	2291.35480121489
0.92041015625	0.005120849609375	2291.39905121477
0.915985107421875	0.00470184326171875	2291.44330121466
0.91156005859375	0.00429046630859375	2291.48755121455
0.907135009765625	0.0038897705078125	2291.53180121444
0.9027099609375	0.00349945068359375	2291.57605121433
0.898284912109375	0.0031170654296875	2291.62030121422
0.89385986328125	0.00274505615234375	2291.6645512141
0.889434814453125	0.00237823486328125	2291.70880121399
0.885009765625	0.00202117919921875	2291.75305121388
0.880584716796875	0.00167144775390625	2291.79730121377
0.87615966796875	0.00133026123046875	2291.84155121366
0.871734619140625	0.0009967041015625	2291.88580121354
0.8673095703125	0.0006695556640625	2291.93005121343
0.862884521484375	0.000349700927734375	2291.97430121332
0.85845947265625	3.8226318359375E-05	2292.01855121321
0.854034423828125	-0.000267333984375	2292.0628012131
0.849609375	-0.00056610107421875	2292.10705121299
0.845184326171875	-0.000858154296875	2292.15130121287
0.84075927734375	-0.001143798828125	2292.19555121276
0.836334228515625	-0.00142303466796875	2292.23980121265
0.8319091796875	-0.00169708251953125	2292.28405121254
0.827484130859375	-0.00196380615234375	2292.32830121243
0.82305908203125	-0.00222412109375	2292.37255121232
0.818634033203125	-0.0024798583984375	2292.4168012122
0.814208984375	-0.00272979736328125	2292.46105121209
0.809783935546875	-0.00297393798828125	2292.50530121198
0.80535888671875	-0.0032122802734375	2292.54955121187
0.800933837890625	-0.0034466552734375	2292.59380121176
0.7965087890625	-0.00367279052734375	2292.63805121165
0.792083740234375	-0.00389434814453125	2292.68230121153
0.78765869140625	-0.0041131591796875	2292.72655121142
0.783233642578125	-0.004324951171875	2292.77080121131
0.77880859375	-0.00453125	2292.8150512112
0.774383544921875	-0.0047332763671875	2292.85930121109
0.76995849609375	-0.004930419921875	2292.90355121097
0.765533447265625	-0.005123291015625	2292.94780121086
0.7611083984375	-0.00531158447265625	2292.99205121075
0.756683349609375	-0.00549591064453125	2293.03630121064
0.75225830078125	-0.0056744384765625	2293.08055121053
0.747833251953125	-0.0058514404296875	2293.12480121042
0.743408203125	-0.0060211181640625	2293.1690512103
0.738983154296875	-0.00616455078125	2293.21330121019
0.73455810546875	-0.0063262939453125	2293.25755121008
0.730133056640625	-0.0064849853515625	2293.30180120997
0.7257080078125	-0.006640625	2293.34605120986
0.721282958984375	-0.006793212890625	2293.39030120975
0.71685791015625	-0.006939697265625	2293.43455120963
0.712432861328125	-0.0070831298828125	2293.47880120952
0.7080078125	-0.0072235107421875	2293.52305120941
0.703582763671875	-0.00736083984375	2293.5673012093
0.69915771484375	-0.0074951171875	2293.61155120919
0.694732666015625	-0.0076263427734375	2293.65580120908
0.6903076171875	-0.00775146484375	2293.70005120896
0.685882568359375	-0.00787353515625	2293.74430120885
0.68145751953125	-0.00799560546875	2293.78855120874
0.677032470703125	-0.00811767578125	2293.83280120863
0.672607421875	-0.0082305908203125	2293.87705120852
0.668182373046875	-0.0083465576171875	2293.92130120841
0.66375732421875	-0.0084564208984375	2293.96555120829
0.659332275390625	-0.0085662841796875	2294.00980120818
0.6549072265625	-0.008673095703125	2294.05405120807
0.650482177734375	-0.00877685546875	2294.09830120796
0.64605712890625	-0.0088775634765625	2294.14255120785
0.641632080078125	-0.008978271484375	2294.18680120774
0.63720703125	-0.009075927734375	2294.23105120762
0.632781982421875	-0.009173583984375	2294.27530120751
0.62835693359375	-0.0092681884765625	2294.3195512074
0.623931884765625	-0.00936279296875	2294.36380120729
0.6195068359375	-0.009454345703125	2294.40805120718
0.615081787109375	-0.009539794921875	2294.45230120706
0.61065673828125	-0.009625244140625	2294.49655120695
0.606231689453125	-0.009710693359375	2294.54080120684
0.601806640625	-0.009796142578125	2294.58505120673
0.597381591796875	-0.009881591796875	2294.62930120662
0.59295654296875	-0.0099609375	2294.67355120651
0.588531494140625	-0.010040283203125	2294.71780120639
0.5841064453125	-0.010113525390625	2294.76205120628
0.579681396484375	-0.010186767578125	2294.80630120617
0.57525634765625	-0.01026611328125	2294.85055120606
0.570831298828125	-0.010345458984375	2294.89480120595
0.56640625	-0.0104217529296875	2294.93905120584
0.561981201171875	-0.0104949951171875	2294.98330120572
0.55755615234375	-0.0105682373046875	2295.02755120561
0.553131103515625	-0.0106353759765625	2295.0718012055
0.5487060546875	-0.01070556640625	2295.11605120539
0.544281005859375	-0.0107757568359375	2295.16030120528
0.53985595703125	-0.0108428955078125	2295.20455120517
0.535430908203125	-0.0109100341796875	2295.24880120505
0.531005859375	-0.01097412109375	2295.29305120494
0.526580810546875	-0.011041259765625	2295.33730120483
0.52215576171875	-0.0111083984375	2295.38155120472
0.517730712890625	-0.011175537109375	2295.42580120461
0.5133056640625	-0.011236572265625	2295.4700512045
0.508880615234375	-0.011297607421875	2295.51430120438
0.50445556640625	-0.0113616943359375	2295.55855120427
0.500030517578125	-0.0114227294921875	2295.60280120416
0.49560546875	-0.01148681640625	2295.64705120405
0.491180419921875	-0.0115447998046875	2295.69130120394
0.48675537109375	-0.0116058349609375	2295.73555120382
0.482330322265625	-0.011663818359375	2295.77980120371
0.4779052734375	-0.0117218017578125	2295.8240512036
0.473480224609375	-0.0117828369140625	2295.86830120349
0.46905517578125	-0.0118408203125	2295.91255120338
0.464630126953125	-0.011895751953125	2295.95680120327
0.460205078125	-0.011956787109375	2296.00105120315
0.455780029296875	-0.01201171875	2296.04530120304
0.45135498046875	-0.0120697021484375	2296.08955120293
0.446929931640625	-0.0121246337890625	2296.13380120282
0.4425048828125	-0.0121826171875	2296.17805120271
0.438079833984375	-0.0122344970703125	2296.2223012026
0.43365478515625	-0.0122894287109375	2296.26655120248
0.429229736328125	-0.012347412109375	2296.31080120237
0.4248046875	-0.0123992919921875	2296.35505120226
0.420379638671875	-0.012451171875	2296.39930120215
0.41595458984375	-0.0125030517578125	2296.44355120204
0.411529541015625	-0.012554931640625	2296.48780120193
0.4071044921875	-0.0126129150390625	2296.53205120181
0.402679443359375	-0.0126617431640625	2296.5763012017
0.39825439453125	-0.012713623046875	2296.62055120159
0.393829345703125	-0.0127685546875	2296.66480120148
0.389404296875	-0.0128173828125	2296.70905120137
0.384979248046875	-0.0128692626953125	2296.75330120126
0.38055419921875	-0.012921142578125	2296.79755120114
0.376129150390625	-0.01297607421875	2296.84180120103
0.3717041015625	-0.01302490234375	2296.88605120092
0.367279052734375	-0.01307373046875	2296.93030120081
0.36285400390625	-0.013128662109375	2296.9745512007
0.358428955078125	-0.0131805419921875	2297.01880120059
0.35400390625	-0.013232421875	2297.06305120047
0.349578857421875	-0.0132781982421875	2297.10730120036
0.34515380859375	-0.013330078125	2297.15155120025
0.340728759765625	-0.013385009765625	2297.19580120014
0.3363037109375	-0.0134307861328125	2297.24005120003
0.331878662109375	-0.0134796142578125	2297.28430119991
0.32745361328125	-0.013531494140625	2297.3285511998
0.323028564453125	-0.0135833740234375	2297.37280119969
0.318603515625	-0.0136322021484375	2297.41705119958
0.314178466796875	-0.0136810302734375	2297.46130119947
0.30975341796875	-0.01373291015625	2297.50555119936
0.305328369140625	-0.01378173828125	2297.54980119924
0.3009033203125	-0.01383056640625	2297.59405119913
0.296478271484375	-0.01387939453125	2297.63830119902
0.29205322265625	-0.01392822265625	2297.68255119891
0.287628173828125	-0.0139801025390625	2297.7268011988
0.283203125	-0.01402587890625	2297.77105119869
0.278778076171875	-0.0140716552734375	2297.81530119857
0.27435302734375	-0.014117431640625	2297.85955119846
0.269927978515625	-0.014166259765625	2297.90380119835
0.2655029296875	-0.014215087890625	2297.94805119824
0.261077880859375	-0.014263916015625	2297.99230119813
0.25665283203125	-0.014312744140625	2298.03655119802
0.252227783203125	-0.014361572265625	2298.0808011979
0.247802734375	-0.014410400390625	2298.12505119779
0.243377685546875	-0.0144622802734375	2298.16930119768
0.23895263671875	-0.0145111083984375	2298.21355119757
0.234527587890625	-0.014556884765625	2298.25780119746
0.2301025390625	-0.014605712890625	2298.30205119735
0.225677490234375	-0.0146514892578125	2298.34630119723
0.22125244140625	-0.0147003173828125	2298.39055119712
0.216827392578125	-0.0147491455078125	2298.43480119701
0.21240234375	-0.014801025390625	2298.4790511969
0.207977294921875	-0.01484375	2298.52330119679
0.20355224609375	-0.014892578125	2298.56755119667
0.199127197265625	-0.0149383544921875	2298.61180119656
0.1947021484375	-0.014984130859375	2298.65605119645
0.190277099609375	-0.0150360107421875	2298.70030119634
0.18585205078125	-0.0150848388671875	2298.74455119623
0.181427001953125	-0.01513671875	2298.78880119612
0.177001953125	-0.015179443359375	2298.833051196
0.172576904296875	-0.0152313232421875	2298.87730119589
0.16815185546875	-0.0152801513671875	2298.92155119578
0.163726806640625	-0.0153289794921875	2298.96580119567
0.1593017578125	-0.0153778076171875	2299.01005119556
0.154876708984375	-0.0154266357421875	2299.05430119545
0.15045166015625	-0.015472412109375	2299.09855119533
0.146026611328125	-0.015521240234375	2299.14280119522
0.1416015625	-0.015570068359375	2299.18705119511
0.137176513671875	-0.0156219482421875	2299.231301195
0.13275146484375	-0.0156707763671875	2299.27555119489
0.128326416015625	-0.01572265625	2299.31980119478
0.1239013671875	-0.0157684326171875	2299.36405119466
0.119476318359375	-0.0158203125	2299.40830119455
0.11505126953125	-0.0158660888671875	2299.45255119444
0.110626220703125	-0.015911865234375	2299.49680119433
0.106201171875	-0.015966796875	2299.54105119422
0.101776123046875	-0.016021728515625	2299.58530119411
0.09735107421875	-0.016070556640625	2299.62955119399
0.092926025390625	-0.0161224365234375	2299.67380119388
0.0885009765625	-0.0161773681640625	2299.71805119377
0.084075927734375	-0.0162261962890625	2299.76230119366
0.07965087890625	-0.016278076171875	2299.80655119355
0.075225830078125	-0.0163299560546875	2299.85080119344
0.07080078125	-0.0163787841796875	2299.89505119332
0.066375732421875	-0.016436767578125	2299.93930119321
0.06195068359375	-0.0164886474609375	2299.9835511931
0.057525634765625	-0.016546630859375	2300.02780119299
0.0531005859375	-0.0165985107421875	2300.07205119288
0.048675537109375	-0.016650390625	2300.11630119276
0.04425048828125	-0.016705322265625	2300.16055119265
0.039825439453125	-0.0167633056640625	2300.20480119254
0.035400390625	-0.016815185546875	2300.24905119243
0.030975341796875	-0.0168701171875	2300.29330119232
0.02655029296875	-0.016925048828125	2300.33755119221
0.022125244140625	-0.016986083984375	2300.38180119209
0.0177001953125	-0.017047119140625	2300.42605119198
0.013275146484375	-0.0170989990234375	2300.47030119187
0.00885009765625	-0.0171600341796875	2300.51455119176
0.004425048828125	-0.0172149658203125	2300.55880119165
0	-0.0172760009765625	2300.60305119154
0.004425048828125	-0.0165679931640625	2300.64730119142
0.00885009765625	-0.0158782958984375	2300.69155119131
0.013275146484375	-0.01522216796875	2300.7358011912
