Potential applied (V)	WE(1).Current (A)	Time (s)
0.004425048828125	-0.0015057373046875	1816.39942841403
0.00885009765625	-0.001087646484375	1816.62068041347
0.013275146484375	-0.000703125	1816.84193241291
0.0177001953125	-0.00034765625	1817.06318441236
0.022125244140625	-1.7724609375E-05	1817.2844364118
0.02655029296875	0.000289764404296875	1817.50568841124
0.030975341796875	0.000576171875	1817.72694041068
0.035400390625	0.0008428955078125	1817.94819241012
0.039825439453125	0.00109222412109375	1818.16944440956
0.04425048828125	0.0013250732421875	1818.390696409
0.048675537109375	0.0015411376953125	1818.61194840845
0.0531005859375	0.001744384765625	1818.83320040789
0.057525634765625	0.001934814453125	1819.05445240733
0.06195068359375	0.00211181640625	1819.27570440677
0.066375732421875	0.00227569580078125	1819.49695640621
0.07080078125	0.0024285888671875	1819.71820840565
0.075225830078125	0.00257049560546875	1819.93946040509
0.07965087890625	0.002701416015625	1820.16071240454
0.084075927734375	0.0028253173828125	1820.38196440398
0.0885009765625	0.00294158935546875	1820.60321640342
0.092926025390625	0.003048095703125	1820.82446840286
0.09735107421875	0.0031475830078125	1821.0457204023
0.101776123046875	0.0032391357421875	1821.26697240174
0.106201171875	0.003323974609375	1821.48822440118
0.110626220703125	0.00340240478515625	1821.70947640063
0.11505126953125	0.0034735107421875	1821.93072840007
0.119476318359375	0.00353729248046875	1822.15198039951
0.1239013671875	0.00359832763671875	1822.37323239895
0.128326416015625	0.00365325927734375	1822.59448439839
0.13275146484375	0.00370208740234375	1822.81573639783
0.137176513671875	0.00374664306640625	1823.03698839727
0.1416015625	0.003787841796875	1823.25824039672
0.146026611328125	0.00382354736328125	1823.47949239616
0.15045166015625	0.0038568115234375	1823.7007443956
0.154876708984375	0.00388580322265625	1823.92199639504
0.1593017578125	0.003909912109375	1824.14324839448
0.163726806640625	0.00393218994140625	1824.36450039392
0.16815185546875	0.00394866943359375	1824.58575239336
0.172576904296875	0.0039654541015625	1824.80700439281
0.177001953125	0.003978271484375	1825.02825639225
0.181427001953125	0.00398773193359375	1825.24950839169
0.18585205078125	0.003995361328125	1825.47076039113
0.190277099609375	0.00400054931640625	1825.69201239057
0.1947021484375	0.00400421142578125	1825.91326439001
0.199127197265625	0.00400604248046875	1826.13451638945
0.20355224609375	0.00400665283203125	1826.35576838889
0.207977294921875	0.0040045166015625	1826.57702038834
0.21240234375	0.00400054931640625	1826.79827238778
0.216827392578125	0.00399627685546875	1827.01952438722
0.22125244140625	0.003990478515625	1827.24077638666
0.225677490234375	0.003983154296875	1827.4620283861
0.2301025390625	0.0039739990234375	1827.68328038554
0.234527587890625	0.00396697998046875	1827.90453238498
0.23895263671875	0.00395599365234375	1828.12578438443
0.243377685546875	0.003944091796875	1828.34703638387
0.247802734375	0.00393218994140625	1828.56828838331
0.252227783203125	0.003919677734375	1828.78954038275
0.25665283203125	0.00390899658203125	1829.01079238219
0.261077880859375	0.003896484375	1829.23204438163
0.2655029296875	0.00388275146484375	1829.45329638107
0.269927978515625	0.00386932373046875	1829.67454838052
0.27435302734375	0.003856201171875	1829.89580037996
0.278778076171875	0.00384124755859375	1830.1170523794
0.283203125	0.003826904296875	1830.33830437884
0.287628173828125	0.0038128662109375	1830.55955637828
0.29205322265625	0.00379913330078125	1830.78080837772
0.296478271484375	0.00378509521484375	1831.00206037716
0.3009033203125	0.00376983642578125	1831.22331237661
0.305328369140625	0.0037548828125	1831.44456437605
0.30975341796875	0.0037396240234375	1831.66581637549
0.314178466796875	0.00372833251953125	1831.88706837493
0.318603515625	0.003714599609375	1832.10832037437
0.323028564453125	0.003701171875	1832.32957237381
0.32745361328125	0.00368621826171875	1832.55082437325
0.331878662109375	0.0036724853515625	1832.7720763727
0.3363037109375	0.00365997314453125	1832.99332837214
0.340728759765625	0.00364654541015625	1833.21458037158
0.34515380859375	0.0036334228515625	1833.43583237102
0.349578857421875	0.0036212158203125	1833.65708437046
0.35400390625	0.0036065673828125	1833.8783363699
0.358428955078125	0.0035943603515625	1834.09958836934
0.36285400390625	0.0035833740234375	1834.32084036878
0.367279052734375	0.00357269287109375	1834.54209236823
0.3717041015625	0.0035601806640625	1834.76334436767
0.376129150390625	0.0035504150390625	1834.98459636711
0.38055419921875	0.0035400390625	1835.20584836655
0.384979248046875	0.003529052734375	1835.42710036599
0.389404296875	0.003519287109375	1835.64835236543
0.393829345703125	0.00350830078125	1835.86960436487
0.39825439453125	0.00349822998046875	1836.09085636432
0.402679443359375	0.00348876953125	1836.31210836376
0.4071044921875	0.00347900390625	1836.5333603632
0.411529541015625	0.0034710693359375	1836.75461236264
0.41595458984375	0.0034625244140625	1836.97586436208
0.420379638671875	0.00345306396484375	1837.19711636152
0.4248046875	0.0034454345703125	1837.41836836096
0.429229736328125	0.00343719482421875	1837.63962036041
0.43365478515625	0.00342803955078125	1837.86087235985
0.438079833984375	0.0034210205078125	1838.08212435929
0.4425048828125	0.00341400146484375	1838.30337635873
0.446929931640625	0.0034063720703125	1838.52462835817
0.45135498046875	0.00339996337890625	1838.74588035761
0.455780029296875	0.0033929443359375	1838.96713235705
0.460205078125	0.0033856201171875	1839.1883843565
0.464630126953125	0.00337890625	1839.40963635594
0.46905517578125	0.0033721923828125	1839.63088835538
0.473480224609375	0.00336517333984375	1839.85214035482
0.4779052734375	0.00335968017578125	1840.07339235426
0.482330322265625	0.0033544921875	1840.2946443537
0.48675537109375	0.00334869384765625	1840.51589635314
0.491180419921875	0.0033428955078125	1840.73714835259
0.49560546875	0.00333831787109375	1840.95840035203
0.500030517578125	0.00333343505859375	1841.17965235147
0.50445556640625	0.003328857421875	1841.40090435091
0.508880615234375	0.00332366943359375	1841.62215635035
0.5133056640625	0.00331817626953125	1841.84340834979
0.517730712890625	0.00331390380859375	1842.06466034923
0.52215576171875	0.00331146240234375	1842.28591234868
0.526580810546875	0.00330718994140625	1842.50716434812
0.531005859375	0.00330230712890625	1842.72841634756
0.535430908203125	0.00329864501953125	1842.949668347
0.53985595703125	0.00329345703125	1843.17092034644
0.544281005859375	0.0032904052734375	1843.39217234588
0.5487060546875	0.0032861328125	1843.61342434532
0.553131103515625	0.00328399658203125	1843.83467634476
0.55755615234375	0.00328033447265625	1844.05592834421
0.561981201171875	0.0032781982421875	1844.27718034365
0.56640625	0.0032745361328125	1844.49843234309
0.570831298828125	0.0032733154296875	1844.71968434253
0.57525634765625	0.003271484375	1844.94093634197
0.579681396484375	0.0032696533203125	1845.16218834141
0.5841064453125	0.00326751708984375	1845.38344034085
0.588531494140625	0.00326446533203125	1845.6046923403
0.59295654296875	0.00326263427734375	1845.82594433974
0.597381591796875	0.00326080322265625	1846.04719633918
0.601806640625	0.00325958251953125	1846.26844833862
0.606231689453125	0.00325836181640625	1846.48970033806
0.61065673828125	0.0032586669921875	1846.7109523375
0.615081787109375	0.00325714111328125	1846.93220433694
0.6195068359375	0.00325714111328125	1847.15345633639
0.623931884765625	0.00325653076171875	1847.37470833583
0.62835693359375	0.00325958251953125	1847.59596033527
0.632781982421875	0.00325927734375	1847.81721233471
0.63720703125	0.00325897216796875	1848.03846433415
0.641632080078125	0.0032598876953125	1848.25971633359
0.64605712890625	0.00326019287109375	1848.48096833303
0.650482177734375	0.00326324462890625	1848.70222033248
0.6549072265625	0.0032635498046875	1848.92347233192
0.659332275390625	0.00326416015625	1849.14472433136
0.66375732421875	0.0032672119140625	1849.3659763308
0.668182373046875	0.0032696533203125	1849.58722833024
0.672607421875	0.00327239990234375	1849.80848032968
0.677032470703125	0.00327606201171875	1850.02973232912
0.68145751953125	0.00327850341796875	1850.25098432857
0.685882568359375	0.00328155517578125	1850.47223632801
0.6903076171875	0.00328460693359375	1850.69348832745
0.694732666015625	0.00328765869140625	1850.91474032689
0.69915771484375	0.003292236328125	1851.13599232633
0.703582763671875	0.00329437255859375	1851.35724432577
0.7080078125	0.00329986572265625	1851.57849632521
0.712432861328125	0.0033038330078125	1851.79974832465
0.71685791015625	0.003309326171875	1852.0210003241
0.721282958984375	0.00331451416015625	1852.24225232354
0.7257080078125	0.0033203125	1852.46350432298
0.730133056640625	0.0033270263671875	1852.68475632242
0.73455810546875	0.00333251953125	1852.90600832186
0.738983154296875	0.00334014892578125	1853.1272603213
0.743408203125	0.003345947265625	1853.34851232074
0.747833251953125	0.00335296630859375	1853.56976432019
0.75225830078125	0.00336029052734375	1853.79101631963
0.756683349609375	0.0033685302734375	1854.01226831907
0.7611083984375	0.00337677001953125	1854.23352031851
0.765533447265625	0.00338592529296875	1854.45477231795
0.76995849609375	0.00339508056640625	1854.67602431739
0.774383544921875	0.00340484619140625	1854.89727631683
0.77880859375	0.0034149169921875	1855.11852831628
0.783233642578125	0.00342437744140625	1855.33978031572
0.78765869140625	0.00343475341796875	1855.56103231516
0.792083740234375	0.003446044921875	1855.7822843146
0.7965087890625	0.00345794677734375	1856.00353631404
0.800933837890625	0.003470458984375	1856.22478831348
0.80535888671875	0.00348480224609375	1856.44604031292
0.809783935546875	0.003497314453125	1856.66729231237
0.814208984375	0.0035107421875	1856.88854431181
0.818634033203125	0.00352691650390625	1857.10979631125
0.82305908203125	0.003541259765625	1857.33104831069
0.827484130859375	0.00355712890625	1857.55230031013
0.8319091796875	0.00357391357421875	1857.77355230957
0.836334228515625	0.003590087890625	1857.99480430901
0.84075927734375	0.00360809326171875	1858.21605630846
0.845184326171875	0.00362579345703125	1858.4373083079
0.849609375	0.00364501953125	1858.65856030734
0.854034423828125	0.0036651611328125	1858.87981230678
0.85845947265625	0.00368621826171875	1859.10106430622
0.862884521484375	0.003707275390625	1859.32231630566
0.8673095703125	0.00373046875	1859.5435683051
0.871734619140625	0.0037530517578125	1859.76482030455
0.87615966796875	0.00377777099609375	1859.98607230399
0.880584716796875	0.00380279541015625	1860.20732430343
0.885009765625	0.003829345703125	1860.42857630287
0.889434814453125	0.00385650634765625	1860.64982830231
0.89385986328125	0.00388458251953125	1860.87108030175
0.898284912109375	0.00391326904296875	1861.09233230119
0.9027099609375	0.00394561767578125	1861.31358430063
0.907135009765625	0.0039776611328125	1861.53483630008
0.91156005859375	0.0040087890625	1861.75608829952
0.915985107421875	0.00404296875	1861.97734029896
0.92041015625	0.004078369140625	1862.1985922984
0.924835205078125	0.0041156005859375	1862.41984429784
0.92926025390625	0.00415283203125	1862.64109629728
0.933685302734375	0.00419189453125	1862.86234829672
0.9381103515625	0.00423492431640625	1863.08360029617
0.942535400390625	0.004276123046875	1863.30485229561
0.94696044921875	0.00431854248046875	1863.52610429505
0.951385498046875	0.00436309814453125	1863.74735629449
0.955810546875	0.00441070556640625	1863.96860829393
0.960235595703125	0.004459228515625	1864.18986029337
0.96466064453125	0.0045086669921875	1864.41111229281
0.969085693359375	0.00456146240234375	1864.63236429226
0.9735107421875	0.004615478515625	1864.8536162917
0.977935791015625	0.00466949462890625	1865.07486829114
0.98236083984375	0.0047296142578125	1865.29612029058
0.986785888671875	0.004791259765625	1865.51737229002
0.9912109375	0.00485443115234375	1865.73862428946
0.995635986328125	0.004921875	1865.9598762889
1.00006103515625	0.004991455078125	1866.18112828835
0.995635986328125	0.00439483642578125	1866.40238028779
0.9912109375	0.00386688232421875	1866.62363228723
0.986785888671875	0.00339111328125	1866.84488428667
0.98236083984375	0.00295928955078125	1867.06613628611
0.977935791015625	0.002562255859375	1867.28738828555
0.9735107421875	0.0021978759765625	1867.50864028499
0.969085693359375	0.00185882568359375	1867.72989228444
0.96466064453125	0.0015435791015625	1867.95114428388
0.960235595703125	0.00125091552734375	1868.17239628332
0.955810546875	0.000977783203125	1868.39364828276
0.951385498046875	0.00072265625	1868.6149002822
0.94696044921875	0.000483184814453125	1868.83615228164
0.942535400390625	0.00025970458984375	1869.05740428108
0.9381103515625	5.0750732421875E-05	1869.27865628052
0.933685302734375	-0.000147216796875	1869.49990827997
0.92926025390625	-0.00033026123046875	1869.72116027941
0.924835205078125	-0.0005013427734375	1869.94241227885
0.92041015625	-0.000661468505859375	1870.16366427829
0.915985107421875	-0.00081024169921875	1870.38491627773
0.91156005859375	-0.00094940185546875	1870.60616827717
0.907135009765625	-0.0010791015625	1870.82742027661
0.9027099609375	-0.00119964599609375	1871.04867227606
0.898284912109375	-0.001312255859375	1871.2699242755
0.89385986328125	-0.001416015625	1871.49117627494
0.889434814453125	-0.00151336669921875	1871.71242827438
0.885009765625	-0.00160308837890625	1871.93368027382
0.880584716796875	-0.00168609619140625	1872.15493227326
0.87615966796875	-0.00176361083984375	1872.3761842727
0.871734619140625	-0.001834716796875	1872.59743627215
0.8673095703125	-0.00190093994140625	1872.81868827159
0.862884521484375	-0.00196197509765625	1873.03994027103
0.85845947265625	-0.00201751708984375	1873.26119227047
0.854034423828125	-0.0020697021484375	1873.48244426991
0.849609375	-0.00211822509765625	1873.70369626935
0.845184326171875	-0.00216278076171875	1873.92494826879
0.84075927734375	-0.00220367431640625	1874.14620026824
0.836334228515625	-0.00224212646484375	1874.36745226768
0.8319091796875	-0.00227691650390625	1874.58870426712
0.827484130859375	-0.00230987548828125	1874.80995626656
0.82305908203125	-0.002340087890625	1875.031208266
0.818634033203125	-0.0023675537109375	1875.25246026544
0.814208984375	-0.0023931884765625	1875.47371226488
0.809783935546875	-0.0024176025390625	1875.69496426433
0.80535888671875	-0.00244049072265625	1875.91621626377
0.800933837890625	-0.0024615478515625	1876.13746826321
0.7965087890625	-0.00248260498046875	1876.35872026265
0.792083740234375	-0.002501220703125	1876.57997226209
0.78765869140625	-0.00251861572265625	1876.80122426153
0.783233642578125	-0.00253570556640625	1877.02247626097
0.77880859375	-0.00255096435546875	1877.24372826042
0.774383544921875	-0.00256622314453125	1877.46498025986
0.76995849609375	-0.00258056640625	1877.6862322593
0.765533447265625	-0.002593994140625	1877.90748425874
0.7611083984375	-0.00260772705078125	1878.12873625818
0.756683349609375	-0.00262054443359375	1878.34998825762
0.75225830078125	-0.002633056640625	1878.57124025706
0.747833251953125	-0.0026434326171875	1878.7924922565
0.743408203125	-0.00265472412109375	1879.01374425595
0.738983154296875	-0.0026654052734375	1879.23499625539
0.73455810546875	-0.0026776123046875	1879.45624825483
0.730133056640625	-0.00268798828125	1879.67750025427
0.7257080078125	-0.002698974609375	1879.89875225371
0.721282958984375	-0.0027099609375	1880.12000425315
0.71685791015625	-0.00271881103515625	1880.34125625259
0.712432861328125	-0.00272918701171875	1880.56250825204
0.7080078125	-0.0027386474609375	1880.78376025148
0.703582763671875	-0.00274871826171875	1881.00501225092
0.69915771484375	-0.00275787353515625	1881.22626425036
0.694732666015625	-0.002767333984375	1881.4475162498
0.6903076171875	-0.0027777099609375	1881.66876824924
0.685882568359375	-0.00278839111328125	1881.89002024868
0.68145751953125	-0.0027978515625	1882.11127224813
0.677032470703125	-0.00280731201171875	1882.33252424757
0.672607421875	-0.00281768798828125	1882.55377624701
0.668182373046875	-0.0028265380859375	1882.77502824645
0.66375732421875	-0.0028350830078125	1882.99628024589
0.659332275390625	-0.0028448486328125	1883.21753224533
0.6549072265625	-0.00285308837890625	1883.43878424477
0.650482177734375	-0.00286224365234375	1883.66003624422
0.64605712890625	-0.002872314453125	1883.88128824366
0.641632080078125	-0.0028814697265625	1884.1025402431
0.63720703125	-0.0028912353515625	1884.32379224254
0.632781982421875	-0.00290008544921875	1884.54504424198
0.62835693359375	-0.00291168212890625	1884.76629624142
0.623931884765625	-0.002923583984375	1884.98754824086
0.6195068359375	-0.00293243408203125	1885.20880024031
0.615081787109375	-0.0029412841796875	1885.43005223975
0.61065673828125	-0.0029510498046875	1885.65130423919
0.606231689453125	-0.002958984375	1885.87255623863
0.601806640625	-0.002967529296875	1886.09380823807
0.597381591796875	-0.00297637939453125	1886.31506023751
0.59295654296875	-0.0029852294921875	1886.53631223695
0.588531494140625	-0.00299468994140625	1886.75756423639
0.5841064453125	-0.003001708984375	1886.97881623584
0.579681396484375	-0.00301177978515625	1887.20006823528
0.57525634765625	-0.0030206298828125	1887.42132023472
0.570831298828125	-0.003031005859375	1887.64257223416
0.56640625	-0.003040771484375	1887.8638242336
0.561981201171875	-0.0030499267578125	1888.08507623304
0.55755615234375	-0.0030596923828125	1888.30632823248
0.553131103515625	-0.00306915283203125	1888.52758023193
0.5487060546875	-0.00307830810546875	1888.74883223137
0.544281005859375	-0.00308685302734375	1888.97008423081
0.53985595703125	-0.00309661865234375	1889.19133623025
0.535430908203125	-0.003106689453125	1889.41258822969
0.531005859375	-0.00311767578125	1889.63384022913
0.526580810546875	-0.00312774658203125	1889.85509222857
0.52215576171875	-0.003135986328125	1890.07634422802
0.517730712890625	-0.00314605712890625	1890.29759622746
0.5133056640625	-0.00315582275390625	1890.5188482269
0.508880615234375	-0.0031658935546875	1890.74010022634
0.50445556640625	-0.00317596435546875	1890.96135222578
0.500030517578125	-0.00318695068359375	1891.18260422522
0.49560546875	-0.0031964111328125	1891.40385622466
0.491180419921875	-0.0032061767578125	1891.62510822411
0.48675537109375	-0.003216552734375	1891.84636022355
0.482330322265625	-0.003226318359375	1892.06761222299
0.4779052734375	-0.00323760986328125	1892.28886422243
0.473480224609375	-0.00324737548828125	1892.51011622187
0.46905517578125	-0.00325836181640625	1892.73136822131
0.464630126953125	-0.0032684326171875	1892.95262022075
0.460205078125	-0.00327850341796875	1893.1738722202
0.455780029296875	-0.00328887939453125	1893.39512421964
0.45135498046875	-0.00329986572265625	1893.61637621908
0.446929931640625	-0.0033099365234375	1893.83762821852
0.4425048828125	-0.00332061767578125	1894.05888021796
0.438079833984375	-0.00333251953125	1894.2801322174
0.43365478515625	-0.00334259033203125	1894.50138421684
0.429229736328125	-0.003353271484375	1894.72263621629
0.4248046875	-0.0033642578125	1894.94388821573
0.420379638671875	-0.003375244140625	1895.16514021517
0.41595458984375	-0.00338623046875	1895.38639221461
0.411529541015625	-0.0033953857421875	1895.60764421405
0.4071044921875	-0.00340576171875	1895.82889621349
0.402679443359375	-0.00341583251953125	1896.05014821293
0.39825439453125	-0.00342681884765625	1896.27140021237
0.393829345703125	-0.00343780517578125	1896.49265221182
0.389404296875	-0.00344696044921875	1896.71390421126
0.384979248046875	-0.00345916748046875	1896.9351562107
0.38055419921875	-0.00346893310546875	1897.15640821014
0.376129150390625	-0.003480224609375	1897.37766020958
