Potential applied (V)	WE(1).Current (A)	Time (s)
0.004425048828125	-0.00572509765625	2240.64430134292
0.00885009765625	-0.0052764892578125	2240.68855134281
0.013275146484375	-0.00484375	2240.73280134269
0.0177001953125	-0.00441680908203125	2240.77705134258
0.022125244140625	-0.00399993896484375	2240.82130134247
0.02655029296875	-0.00359130859375	2240.86555134236
0.030975341796875	-0.00319091796875	2240.90980134225
0.035400390625	-0.0028082275390625	2240.95405134213
0.039825439453125	-0.0024212646484375	2240.99830134202
0.04425048828125	-0.00204010009765625	2241.04255134191
0.048675537109375	-0.00166656494140625	2241.0868013418
0.0531005859375	-0.00129913330078125	2241.13105134169
0.057525634765625	-0.0009375	2241.17530134158
0.06195068359375	-0.0005816650390625	2241.21955134146
0.066375732421875	-0.000231658935546875	2241.26380134135
0.07080078125	0.0001126708984375	2241.30805134124
0.075225830078125	0.00045196533203125	2241.35230134113
0.07965087890625	0.00078460693359375	2241.39655134102
0.084075927734375	0.00111358642578125	2241.44080134091
0.0885009765625	0.001436767578125	2241.48505134079
0.092926025390625	0.00175537109375	2241.52930134068
0.09735107421875	0.00207000732421875	2241.57355134057
0.101776123046875	0.00237884521484375	2241.61780134046
0.106201171875	0.00268280029296875	2241.66205134035
0.110626220703125	0.00298248291015625	2241.70630134024
0.11505126953125	0.0032769775390625	2241.75055134012
0.119476318359375	0.00356658935546875	2241.79480134001
0.1239013671875	0.0038531494140625	2241.8390513399
0.128326416015625	0.0041351318359375	2241.88330133979
0.13275146484375	0.00441253662109375	2241.92755133968
0.137176513671875	0.00468597412109375	2241.97180133957
0.1416015625	0.0049554443359375	2242.01605133945
0.146026611328125	0.0052203369140625	2242.06030133934
0.15045166015625	0.00548126220703125	2242.10455133923
0.154876708984375	0.00573883056640625	2242.14880133912
0.1593017578125	0.005989990234375	2242.19305133901
0.163726806640625	0.00623748779296875	2242.2373013389
0.16815185546875	0.0064727783203125	2242.28155133878
0.172576904296875	0.0067138671875	2242.32580133867
0.177001953125	0.00694580078125	2242.37005133856
0.181427001953125	0.0071746826171875	2242.41430133845
0.18585205078125	0.007403564453125	2242.45855133834
0.190277099609375	0.00762939453125	2242.50280133822
0.1947021484375	0.0078460693359375	2242.54705133811
0.199127197265625	0.0080657958984375	2242.591301338
0.20355224609375	0.0082794189453125	2242.63555133789
0.207977294921875	0.008489990234375	2242.67980133778
0.21240234375	0.0086944580078125	2242.72405133767
0.216827392578125	0.0088958740234375	2242.76830133755
0.22125244140625	0.00909423828125	2242.81255133744
0.225677490234375	0.00928955078125	2242.85680133733
0.2301025390625	0.0094757080078125	2242.90105133722
0.234527587890625	0.0096649169921875	2242.94530133711
0.23895263671875	0.00985107421875	2242.989551337
0.243377685546875	0.010028076171875	2243.03380133688
0.247802734375	0.010205078125	2243.07805133677
0.252227783203125	0.0103790283203125	2243.12230133666
0.25665283203125	0.0105499267578125	2243.16655133655
0.261077880859375	0.0107177734375	2243.21080133644
0.2655029296875	0.010882568359375	2243.25505133633
0.269927978515625	0.011041259765625	2243.29930133621
0.27435302734375	0.0111968994140625	2243.3435513361
0.278778076171875	0.0113494873046875	2243.38780133599
0.283203125	0.0114990234375	2243.43205133588
0.287628173828125	0.0116485595703125	2243.47630133577
0.29205322265625	0.0117919921875	2243.52055133566
0.296478271484375	0.011932373046875	2243.56480133554
0.3009033203125	0.01207275390625	2243.60905133543
0.305328369140625	0.0122100830078125	2243.65330133532
0.30975341796875	0.0123382568359375	2243.69755133521
0.314178466796875	0.012469482421875	2243.7418013351
0.318603515625	0.012591552734375	2243.78605133498
0.323028564453125	0.012713623046875	2243.83030133487
0.32745361328125	0.012835693359375	2243.87455133476
0.331878662109375	0.01295166015625	2243.91880133465
0.3363037109375	0.0130615234375	2243.96305133454
0.340728759765625	0.01317138671875	2244.00730133443
0.34515380859375	0.0132781982421875	2244.05155133431
0.349578857421875	0.0133819580078125	2244.0958013342
0.35400390625	0.01348876953125	2244.14005133409
0.358428955078125	0.0135894775390625	2244.18430133398
0.36285400390625	0.0136810302734375	2244.22855133387
0.367279052734375	0.0137725830078125	2244.27280133376
0.3717041015625	0.0138671875	2244.31705133364
0.376129150390625	0.0139617919921875	2244.36130133353
0.38055419921875	0.0140472412109375	2244.40555133342
0.384979248046875	0.014129638671875	2244.44980133331
0.389404296875	0.014208984375	2244.4940513332
0.393829345703125	0.014288330078125	2244.53830133309
0.39825439453125	0.0143646240234375	2244.58255133297
0.402679443359375	0.014434814453125	2244.62680133286
0.4071044921875	0.014501953125	2244.67105133275
0.411529541015625	0.014569091796875	2244.71530133264
0.41595458984375	0.0146392822265625	2244.75955133253
0.420379638671875	0.014703369140625	2244.80380133242
0.4248046875	0.014764404296875	2244.8480513323
0.429229736328125	0.0148193359375	2244.89230133219
0.43365478515625	0.0148773193359375	2244.93655133208
0.438079833984375	0.0149322509765625	2244.98080133197
0.4425048828125	0.014990234375	2245.02505133186
0.446929931640625	0.0150421142578125	2245.06930133175
0.45135498046875	0.015087890625	2245.11355133163
0.455780029296875	0.0151336669921875	2245.15780133152
0.460205078125	0.015179443359375	2245.20205133141
0.464630126953125	0.0152252197265625	2245.2463013313
0.46905517578125	0.015264892578125	2245.29055133119
0.473480224609375	0.0153076171875	2245.33480133107
0.4779052734375	0.0153411865234375	2245.37905133096
0.482330322265625	0.015380859375	2245.42330133085
0.48675537109375	0.015411376953125	2245.46755133074
0.491180419921875	0.015447998046875	2245.51180133063
0.49560546875	0.015478515625	2245.55605133052
0.500030517578125	0.01551513671875	2245.6003013304
0.50445556640625	0.015545654296875	2245.64455133029
0.508880615234375	0.015570068359375	2245.68880133018
0.5133056640625	0.0155914306640625	2245.73305133007
0.517730712890625	0.0156158447265625	2245.77730132996
0.52215576171875	0.01563720703125	2245.82155132985
0.526580810546875	0.01566162109375	2245.86580132973
0.531005859375	0.0156829833984375	2245.91005132962
0.535430908203125	0.0157012939453125	2245.95430132951
0.53985595703125	0.0157135009765625	2245.9985513294
0.544281005859375	0.015728759765625	2246.04280132929
0.5487060546875	0.0157470703125	2246.08705132918
0.553131103515625	0.01575927734375	2246.13130132906
0.55755615234375	0.015771484375	2246.17555132895
0.561981201171875	0.01578369140625	2246.21980132884
0.56640625	0.015802001953125	2246.26405132873
0.570831298828125	0.01580810546875	2246.30830132862
0.57525634765625	0.0158233642578125	2246.3525513285
0.579681396484375	0.01583251953125	2246.39680132839
0.5841064453125	0.015838623046875	2246.44105132828
0.588531494140625	0.0158447265625	2246.48530132817
0.59295654296875	0.0158477783203125	2246.52955132806
0.597381591796875	0.015850830078125	2246.57380132795
0.601806640625	0.0158538818359375	2246.61805132783
0.606231689453125	0.01585693359375	2246.66230132772
0.61065673828125	0.01585693359375	2246.70655132761
0.615081787109375	0.0158599853515625	2246.7508013275
0.6195068359375	0.015863037109375	2246.79505132739
0.623931884765625	0.015875244140625	2246.83930132728
0.62835693359375	0.0158782958984375	2246.88355132716
0.632781982421875	0.0158782958984375	2246.92780132705
0.63720703125	0.01588134765625	2246.97205132694
0.641632080078125	0.0158782958984375	2247.01630132683
0.64605712890625	0.0158782958984375	2247.06055132672
0.650482177734375	0.0158721923828125	2247.10480132661
0.6549072265625	0.015869140625	2247.14905132649
0.659332275390625	0.015869140625	2247.19330132638
0.66375732421875	0.015863037109375	2247.23755132627
0.668182373046875	0.01585693359375	2247.28180132616
0.672607421875	0.0158477783203125	2247.32605132605
0.677032470703125	0.0158416748046875	2247.37030132594
0.68145751953125	0.01583251953125	2247.41455132582
0.685882568359375	0.015826416015625	2247.45880132571
0.6903076171875	0.0158172607421875	2247.5030513256
0.694732666015625	0.015814208984375	2247.54730132549
0.69915771484375	0.0158050537109375	2247.59155132538
0.703582763671875	0.015789794921875	2247.63580132527
0.7080078125	0.0157806396484375	2247.68005132515
0.712432861328125	0.0157684326171875	2247.72430132504
0.71685791015625	0.015765380859375	2247.76855132493
0.721282958984375	0.015753173828125	2247.81280132482
0.7257080078125	0.015740966796875	2247.85705132471
0.730133056640625	0.01573486328125	2247.90130132459
0.73455810546875	0.01572265625	2247.94555132448
0.738983154296875	0.0157135009765625	2247.98980132437
0.743408203125	0.0157012939453125	2248.03405132426
0.747833251953125	0.0156890869140625	2248.07830132415
0.75225830078125	0.015679931640625	2248.12255132404
0.756683349609375	0.015667724609375	2248.16680132392
0.7611083984375	0.015655517578125	2248.21105132381
0.765533447265625	0.0156463623046875	2248.2553013237
0.76995849609375	0.0156341552734375	2248.29955132359
0.774383544921875	0.015625	2248.34380132348
0.77880859375	0.01561279296875	2248.38805132337
0.783233642578125	0.0156005859375	2248.43230132325
0.78765869140625	0.0155853271484375	2248.47655132314
0.792083740234375	0.0155792236328125	2248.52080132303
0.7965087890625	0.0155609130859375	2248.56505132292
0.800933837890625	0.0155548095703125	2248.60930132281
0.80535888671875	0.01553955078125	2248.6535513227
0.809783935546875	0.0155303955078125	2248.69780132258
0.814208984375	0.0155181884765625	2248.74205132247
0.818634033203125	0.0155059814453125	2248.78630132236
0.82305908203125	0.015496826171875	2248.83055132225
0.827484130859375	0.015484619140625	2248.87480132214
0.8319091796875	0.0154815673828125	2248.91905132203
0.836334228515625	0.015472412109375	2248.96330132191
0.84075927734375	0.0154632568359375	2249.0075513218
0.845184326171875	0.0154541015625	2249.05180132169
0.849609375	0.0154449462890625	2249.09605132158
0.854034423828125	0.015435791015625	2249.14030132147
0.85845947265625	0.0154327392578125	2249.18455132135
0.862884521484375	0.0154266357421875	2249.22880132124
0.8673095703125	0.0154205322265625	2249.27305132113
0.871734619140625	0.01541748046875	2249.31730132102
0.87615966796875	0.0154083251953125	2249.36155132091
0.880584716796875	0.0154052734375	2249.4058013208
0.885009765625	0.0153961181640625	2249.45005132068
0.889434814453125	0.0153961181640625	2249.49430132057
0.89385986328125	0.0153900146484375	2249.53855132046
0.898284912109375	0.01539306640625	2249.58280132035
0.9027099609375	0.01539306640625	2249.62705132024
0.907135009765625	0.01539306640625	2249.67130132013
0.91156005859375	0.0153961181640625	2249.71555132001
0.915985107421875	0.0153961181640625	2249.7598013199
0.92041015625	0.015399169921875	2249.80405131979
0.924835205078125	0.0154052734375	2249.84830131968
0.92926025390625	0.0154144287109375	2249.89255131957
0.933685302734375	0.01541748046875	2249.93680131946
0.9381103515625	0.0154266357421875	2249.98105131934
0.942535400390625	0.015435791015625	2250.02530131923
0.94696044921875	0.0154388427734375	2250.06955131912
0.951385498046875	0.015447998046875	2250.11380131901
0.955810546875	0.0154571533203125	2250.1580513189
0.960235595703125	0.015472412109375	2250.20230131879
0.96466064453125	0.0154876708984375	2250.24655131867
0.969085693359375	0.0155029296875	2250.29080131856
0.9735107421875	0.0155181884765625	2250.33505131845
0.977935791015625	0.0155364990234375	2250.37930131834
0.98236083984375	0.0155517578125	2250.42355131823
0.986785888671875	0.015576171875	2250.46780131812
0.9912109375	0.015594482421875	2250.512051318
0.995635986328125	0.0156158447265625	2250.55630131789
1.00006103515625	0.015643310546875	2250.60055131778
0.995635986328125	0.0149139404296875	2250.64480131767
0.9912109375	0.014215087890625	2250.68905131756
0.986785888671875	0.0135498046875	2250.73330131744
0.98236083984375	0.01290283203125	2250.77755131733
0.977935791015625	0.0122772216796875	2250.82180131722
0.9735107421875	0.0116790771484375	2250.86605131711
0.969085693359375	0.011090087890625	2250.910301317
0.96466064453125	0.010528564453125	2250.95455131689
0.960235595703125	0.00997314453125	2250.99880131677
0.955810546875	0.0094329833984375	2251.04305131666
0.951385498046875	0.008917236328125	2251.08730131655
0.94696044921875	0.0084075927734375	2251.13155131644
0.942535400390625	0.00791015625	2251.17580131633
0.9381103515625	0.007427978515625	2251.22005131622
0.933685302734375	0.0069549560546875	2251.2643013161
0.92926025390625	0.006494140625	2251.30855131599
0.924835205078125	0.0060455322265625	2251.35280131588
0.92041015625	0.0056060791015625	2251.39705131577
0.915985107421875	0.0051788330078125	2251.44130131566
0.91156005859375	0.00476104736328125	2251.48555131555
0.907135009765625	0.00435394287109375	2251.52980131543
0.9027099609375	0.00395538330078125	2251.57405131532
0.898284912109375	0.00356689453125	2251.61830131521
0.89385986328125	0.00318695068359375	2251.6625513151
0.889434814453125	0.00281646728515625	2251.70680131499
0.885009765625	0.002452392578125	2251.75105131487
0.880584716796875	0.0020965576171875	2251.79530131476
0.87615966796875	0.00174896240234375	2251.83955131465
0.871734619140625	0.0014080810546875	2251.88380131454
0.8673095703125	0.00107574462890625	2251.92805131443
0.862884521484375	0.00075042724609375	2251.97230131432
0.85845947265625	0.000432403564453125	2252.0165513142
0.854034423828125	0.0001209716796875	2252.06080131409
0.849609375	-0.000184295654296875	2252.10505131398
0.845184326171875	-0.0004822998046875	2252.14930131387
0.84075927734375	-0.00077423095703125	2252.19355131376
0.836334228515625	-0.0010595703125	2252.23780131365
0.8319091796875	-0.001337890625	2252.28205131353
0.827484130859375	-0.001611328125	2252.32630131342
0.82305908203125	-0.00187835693359375	2252.37055131331
0.818634033203125	-0.00213897705078125	2252.4148013132
0.814208984375	-0.00239410400390625	2252.45905131309
0.809783935546875	-0.0026434326171875	2252.50330131298
0.80535888671875	-0.00288726806640625	2252.54755131286
0.800933837890625	-0.003126220703125	2252.59180131275
0.7965087890625	-0.00335906982421875	2252.63605131264
0.792083740234375	-0.00358642578125	2252.68030131253
0.78765869140625	-0.00380950927734375	2252.72455131242
0.783233642578125	-0.004027099609375	2252.76880131231
0.77880859375	-0.0042388916015625	2252.81305131219
0.774383544921875	-0.00444671630859375	2252.85730131208
0.76995849609375	-0.00464935302734375	2252.90155131197
0.765533447265625	-0.00484771728515625	2252.94580131186
0.7611083984375	-0.00504302978515625	2252.99005131175
0.756683349609375	-0.00523101806640625	2253.03430131164
0.75225830078125	-0.0054156494140625	2253.07855131152
0.747833251953125	-0.00559539794921875	2253.12280131141
0.743408203125	-0.00577056884765625	2253.1670513113
0.738983154296875	-0.00594207763671875	2253.21130131119
0.73455810546875	-0.00610992431640625	2253.25555131108
0.730133056640625	-0.0062530517578125	2253.29980131096
0.7257080078125	-0.006414794921875	2253.34405131085
0.721282958984375	-0.0065673828125	2253.38830131074
0.71685791015625	-0.0067230224609375	2253.43255131063
0.712432861328125	-0.0068695068359375	2253.47680131052
0.7080078125	-0.0070159912109375	2253.52105131041
0.703582763671875	-0.0071563720703125	2253.56530131029
0.69915771484375	-0.007293701171875	2253.60955131018
0.694732666015625	-0.0074310302734375	2253.65380131007
0.6903076171875	-0.007562255859375	2253.69805130996
0.685882568359375	-0.0076934814453125	2253.74230130985
0.68145751953125	-0.0078155517578125	2253.78655130974
0.677032470703125	-0.0079376220703125	2253.83080130962
0.672607421875	-0.008056640625	2253.87505130951
0.668182373046875	-0.0081787109375	2253.9193013094
0.66375732421875	-0.0082916259765625	2253.96355130929
0.659332275390625	-0.0084075927734375	2254.00780130918
0.6549072265625	-0.008514404296875	2254.05205130907
0.650482177734375	-0.008624267578125	2254.09630130895
0.64605712890625	-0.0087310791015625	2254.14055130884
0.641632080078125	-0.0088348388671875	2254.18480130873
0.63720703125	-0.0089385986328125	2254.22905130862
0.632781982421875	-0.0090362548828125	2254.27330130851
0.62835693359375	-0.009136962890625	2254.3175513084
0.623931884765625	-0.0092376708984375	2254.36180130828
0.6195068359375	-0.009332275390625	2254.40605130817
0.615081787109375	-0.0094207763671875	2254.45030130806
0.61065673828125	-0.0095123291015625	2254.49455130795
0.606231689453125	-0.009600830078125	2254.53880130784
0.601806640625	-0.009686279296875	2254.58305130772
0.597381591796875	-0.0097747802734375	2254.62730130761
0.59295654296875	-0.009857177734375	2254.6715513075
0.588531494140625	-0.0099395751953125	2254.71580130739
0.5841064453125	-0.0100189208984375	2254.76005130728
0.579681396484375	-0.010101318359375	2254.80430130717
0.57525634765625	-0.0101806640625	2254.84855130705
0.570831298828125	-0.0102630615234375	2254.89280130694
0.56640625	-0.0103424072265625	2254.93705130683
0.561981201171875	-0.010418701171875	2254.98130130672
0.55755615234375	-0.010491943359375	2255.02555130661
0.553131103515625	-0.0105682373046875	2255.0698013065
0.5487060546875	-0.010638427734375	2255.11405130638
0.544281005859375	-0.01070556640625	2255.15830130627
0.53985595703125	-0.01077880859375	2255.20255130616
0.535430908203125	-0.010845947265625	2255.24680130605
0.531005859375	-0.0109130859375	2255.29105130594
0.526580810546875	-0.01097412109375	2255.33530130583
0.52215576171875	-0.011041259765625	2255.37955130571
0.517730712890625	-0.0111083984375	2255.4238013056
0.5133056640625	-0.0111785888671875	2255.46805130549
0.508880615234375	-0.0112457275390625	2255.51230130538
0.50445556640625	-0.0113067626953125	2255.55655130527
0.500030517578125	-0.011370849609375	2255.60080130516
0.49560546875	-0.01143798828125	2255.64505130504
0.491180419921875	-0.0114959716796875	2255.68930130493
0.48675537109375	-0.01156005859375	2255.73355130482
0.482330322265625	-0.01162109375	2255.77780130471
0.4779052734375	-0.0116790771484375	2255.8220513046
0.473480224609375	-0.0117431640625	2255.86630130449
0.46905517578125	-0.0118011474609375	2255.91055130437
0.464630126953125	-0.0118621826171875	2255.95480130426
0.460205078125	-0.011920166015625	2255.99905130415
0.455780029296875	-0.011981201171875	2256.04330130404
0.45135498046875	-0.0120391845703125	2256.08755130393
0.446929931640625	-0.0120941162109375	2256.13180130381
0.4425048828125	-0.012152099609375	2256.1760513037
0.438079833984375	-0.0122100830078125	2256.22030130359
0.43365478515625	-0.01226806640625	2256.26455130348
0.429229736328125	-0.012322998046875	2256.30880130337
0.4248046875	-0.0123748779296875	2256.35305130326
0.420379638671875	-0.0124359130859375	2256.39730130314
0.41595458984375	-0.01248779296875	2256.44155130303
0.411529541015625	-0.012542724609375	2256.48580130292
0.4071044921875	-0.01259765625	2256.53005130281
0.402679443359375	-0.0126495361328125	2256.5743013027
0.39825439453125	-0.012701416015625	2256.61855130259
0.393829345703125	-0.0127593994140625	2256.66280130247
0.389404296875	-0.012811279296875	2256.70705130236
0.384979248046875	-0.0128662109375	2256.75130130225
0.38055419921875	-0.0129180908203125	2256.79555130214
0.376129150390625	-0.012969970703125	2256.83980130203
0.3717041015625	-0.0130279541015625	2256.88405130192
0.367279052734375	-0.013079833984375	2256.9283013018
0.36285400390625	-0.013128662109375	2256.97255130169
0.358428955078125	-0.0131805419921875	2257.01680130158
0.35400390625	-0.013232421875	2257.06105130147
0.349578857421875	-0.0132843017578125	2257.10530130136
