Potential applied (V)	WE(1).Current (A)	Time (s)
0.004425048828125	-0.00281341552734375	2118.70401165079
0.00885009765625	-0.0023834228515625	2118.79251265056
0.013275146484375	-0.00197265625	2118.88101365034
0.0177001953125	-0.001575927734375	2118.96951465012
0.022125244140625	-0.0011932373046875	2119.05801564989
0.02655029296875	-0.00082366943359375	2119.14651664967
0.030975341796875	-0.000465667724609375	2119.23501764945
0.035400390625	-0.000118316650390625	2119.32351864922
0.039825439453125	0.000218231201171875	2119.412019649
0.04425048828125	0.0005450439453125	2119.50052064878
0.048675537109375	0.0008624267578125	2119.58902164855
0.0531005859375	0.00117034912109375	2119.67752264833
0.057525634765625	0.00146942138671875	2119.76602364811
0.06195068359375	0.00175994873046875	2119.85452464788
0.066375732421875	0.00204254150390625	2119.94302564766
0.07080078125	0.00231689453125	2120.03152664743
0.075225830078125	0.0025830078125	2120.12002764721
0.07965087890625	0.0028411865234375	2120.20852864699
0.084075927734375	0.0030926513671875	2120.29702964676
0.0885009765625	0.00333648681640625	2120.38553064654
0.092926025390625	0.0035736083984375	2120.47403164632
0.09735107421875	0.00380279541015625	2120.56253264609
0.101776123046875	0.0040252685546875	2120.65103364587
0.106201171875	0.00424072265625	2120.73953464565
0.110626220703125	0.00445037841796875	2120.82803564542
0.11505126953125	0.00465240478515625	2120.9165366452
0.119476318359375	0.004844970703125	2121.00503764498
0.1239013671875	0.0050360107421875	2121.09353864475
0.128326416015625	0.005220947265625	2121.18203964453
0.13275146484375	0.00540191650390625	2121.27054064431
0.137176513671875	0.00557708740234375	2121.35904164408
0.1416015625	0.005745849609375	2121.44754264386
0.146026611328125	0.00590972900390625	2121.53604364364
0.15045166015625	0.006068115234375	2121.62454464341
0.154876708984375	0.0062103271484375	2121.71304564319
0.1593017578125	0.0063568115234375	2121.80154664297
0.163726806640625	0.0064971923828125	2121.89004764274
0.16815185546875	0.006634521484375	2121.97854864252
0.172576904296875	0.0067657470703125	2122.0670496423
0.177001953125	0.0068939208984375	2122.15555064207
0.181427001953125	0.0070159912109375	2122.24405164185
0.18585205078125	0.0071319580078125	2122.33255264163
0.190277099609375	0.007244873046875	2122.4210536414
0.1947021484375	0.007354736328125	2122.50955464118
0.199127197265625	0.00745849609375	2122.59805564095
0.20355224609375	0.0075592041015625	2122.68655664073
0.207977294921875	0.00765380859375	2122.77505764051
0.21240234375	0.007745361328125	2122.86355864028
0.216827392578125	0.0078277587890625	2122.95205964006
0.22125244140625	0.0079132080078125	2123.04056063984
0.225677490234375	0.00799560546875	2123.12906163961
0.2301025390625	0.0080718994140625	2123.21756263939
0.234527587890625	0.00814208984375	2123.30606363917
0.23895263671875	0.0082122802734375	2123.39456463894
0.243377685546875	0.0082733154296875	2123.48306563872
0.247802734375	0.0083404541015625	2123.5715666385
0.252227783203125	0.0083984375	2123.66006763827
0.25665283203125	0.0084564208984375	2123.74856863805
0.261077880859375	0.00850830078125	2123.83706963783
0.2655029296875	0.0085540771484375	2123.9255706376
0.269927978515625	0.0085968017578125	2124.01407163738
0.27435302734375	0.0086395263671875	2124.10257263716
0.278778076171875	0.0086822509765625	2124.19107363693
0.283203125	0.008721923828125	2124.27957463671
0.287628173828125	0.008758544921875	2124.36807563649
0.29205322265625	0.0087890625	2124.45657663626
0.296478271484375	0.0088165283203125	2124.54507763604
0.3009033203125	0.008843994140625	2124.63357863582
0.305328369140625	0.008868408203125	2124.72207963559
0.30975341796875	0.008892822265625	2124.81058063537
0.314178466796875	0.008917236328125	2124.89908163515
0.318603515625	0.008935546875	2124.98758263492
0.323028564453125	0.0089508056640625	2125.0760836347
0.32745361328125	0.008966064453125	2125.16458463448
0.331878662109375	0.0089752197265625	2125.25308563425
0.3363037109375	0.0089874267578125	2125.34158663403
0.340728759765625	0.00899658203125	2125.4300876338
0.34515380859375	0.009002685546875	2125.51858863358
0.349578857421875	0.0090087890625	2125.60708963336
0.35400390625	0.0090087890625	2125.69559063313
0.358428955078125	0.009014892578125	2125.78409163291
0.36285400390625	0.009014892578125	2125.87259263269
0.367279052734375	0.0090118408203125	2125.96109363246
0.3717041015625	0.0090087890625	2126.04959463224
0.376129150390625	0.0090087890625	2126.13809563202
0.38055419921875	0.009002685546875	2126.22659663179
0.384979248046875	0.0089996337890625	2126.31509763157
0.389404296875	0.00899658203125	2126.40359863135
0.393829345703125	0.0089874267578125	2126.49209963112
0.39825439453125	0.0089813232421875	2126.5806006309
0.402679443359375	0.0089691162109375	2126.66910163068
0.4071044921875	0.0089630126953125	2126.75760263045
0.411529541015625	0.008953857421875	2126.84610363023
0.41595458984375	0.008941650390625	2126.93460463001
0.420379638671875	0.008929443359375	2127.02310562978
0.4248046875	0.0089202880859375	2127.11160662956
0.429229736328125	0.0089111328125	2127.20010762934
0.43365478515625	0.00889892578125	2127.28860862911
0.438079833984375	0.00888671875	2127.37710962889
0.4425048828125	0.00887451171875	2127.46561062867
0.446929931640625	0.0088592529296875	2127.55411162844
0.45135498046875	0.0088470458984375	2127.64261262822
0.455780029296875	0.0088348388671875	2127.731113628
0.460205078125	0.0088165283203125	2127.81961462777
0.464630126953125	0.00880126953125	2127.90811562755
0.46905517578125	0.0087890625	2127.99661662733
0.473480224609375	0.008770751953125	2128.0851176271
0.4779052734375	0.0087554931640625	2128.17361862688
0.482330322265625	0.0087432861328125	2128.26211962665
0.48675537109375	0.0087249755859375	2128.35062062643
0.491180419921875	0.008709716796875	2128.43912162621
0.49560546875	0.0087005615234375	2128.52762262598
0.500030517578125	0.0086822509765625	2128.61612362576
0.50445556640625	0.0086639404296875	2128.70462462554
0.508880615234375	0.008648681640625	2128.79312562531
0.5133056640625	0.0086334228515625	2128.88162662509
0.517730712890625	0.0086181640625	2128.97012762487
0.52215576171875	0.0086029052734375	2129.05862862464
0.526580810546875	0.008587646484375	2129.14712962442
0.531005859375	0.008575439453125	2129.2356306242
0.535430908203125	0.00855712890625	2129.32413162397
0.53985595703125	0.0085418701171875	2129.41263262375
0.544281005859375	0.008526611328125	2129.50113362353
0.5487060546875	0.00850830078125	2129.5896346233
0.553131103515625	0.00849609375	2129.67813562308
0.55755615234375	0.0084808349609375	2129.76663662286
0.561981201171875	0.008465576171875	2129.85513762263
0.56640625	0.0084503173828125	2129.94363862241
0.570831298828125	0.0084320068359375	2130.03213962219
0.57525634765625	0.0084197998046875	2130.12064062196
0.579681396484375	0.008404541015625	2130.20914162174
0.5841064453125	0.008392333984375	2130.29764262152
0.588531494140625	0.0083770751953125	2130.38614362129
0.59295654296875	0.00836181640625	2130.47464462107
0.597381591796875	0.008349609375	2130.56314562085
0.601806640625	0.00833740234375	2130.65164662062
0.606231689453125	0.0083251953125	2130.7401476204
0.61065673828125	0.0083099365234375	2130.82864862018
0.615081787109375	0.008294677734375	2130.91714961995
0.6195068359375	0.008282470703125	2131.00565061973
0.623931884765625	0.008270263671875	2131.0941516195
0.62835693359375	0.0082611083984375	2131.18265261928
0.632781982421875	0.008245849609375	2131.27115361906
0.63720703125	0.0082366943359375	2131.35965461883
0.641632080078125	0.0082244873046875	2131.44815561861
0.64605712890625	0.0082122802734375	2131.53665661839
0.650482177734375	0.008203125	2131.62515761816
0.6549072265625	0.0081939697265625	2131.71365861794
0.659332275390625	0.0081817626953125	2131.80215961772
0.66375732421875	0.008172607421875	2131.89066061749
0.668182373046875	0.008160400390625	2131.97916161727
0.672607421875	0.008148193359375	2132.06766261705
0.677032470703125	0.0081390380859375	2132.15616361682
0.68145751953125	0.0081298828125	2132.2446646166
0.685882568359375	0.0081207275390625	2132.33316561638
0.6903076171875	0.0081146240234375	2132.42166661615
0.694732666015625	0.0081024169921875	2132.51016761593
0.69915771484375	0.0080963134765625	2132.59866861571
0.703582763671875	0.008087158203125	2132.68716961548
0.7080078125	0.0080810546875	2132.77567061526
0.712432861328125	0.008074951171875	2132.86417161504
0.71685791015625	0.0080657958984375	2132.95267261481
0.721282958984375	0.008062744140625	2133.04117361459
0.7257080078125	0.008056640625	2133.12967461437
0.730133056640625	0.008050537109375	2133.21817561414
0.73455810546875	0.00804443359375	2133.30667661392
0.738983154296875	0.0080413818359375	2133.3951776137
0.743408203125	0.0080352783203125	2133.48367861347
0.747833251953125	0.0080322265625	2133.57217961325
0.75225830078125	0.0080291748046875	2133.66068061302
0.756683349609375	0.0080291748046875	2133.7491816128
0.7611083984375	0.008026123046875	2133.83768261258
0.765533447265625	0.0080230712890625	2133.92618361235
0.76995849609375	0.0080230712890625	2134.01468461213
0.774383544921875	0.0080230712890625	2134.10318561191
0.77880859375	0.0080230712890625	2134.19168661168
0.783233642578125	0.0080230712890625	2134.28018761146
0.78765869140625	0.008026123046875	2134.36868861124
0.792083740234375	0.0080291748046875	2134.45718961101
0.7965087890625	0.0080291748046875	2134.54569061079
0.800933837890625	0.0080322265625	2134.63419161057
0.80535888671875	0.008038330078125	2134.72269261034
0.809783935546875	0.0080413818359375	2134.81119361012
0.814208984375	0.00804443359375	2134.8996946099
0.818634033203125	0.0080535888671875	2134.98819560967
0.82305908203125	0.0080596923828125	2135.07669660945
0.827484130859375	0.0080657958984375	2135.16519760923
0.8319091796875	0.008074951171875	2135.253698609
0.836334228515625	0.0080841064453125	2135.34219960878
0.84075927734375	0.00809326171875	2135.43070060856
0.845184326171875	0.0081024169921875	2135.51920160833
0.849609375	0.0081146240234375	2135.60770260811
0.854034423828125	0.0081268310546875	2135.69620360789
0.85845947265625	0.008135986328125	2135.78470460766
0.862884521484375	0.008148193359375	2135.87320560744
0.8673095703125	0.0081634521484375	2135.96170660722
0.871734619140625	0.0081787109375	2136.05020760699
0.87615966796875	0.0081939697265625	2136.13870860677
0.880584716796875	0.0082122802734375	2136.22720960654
0.885009765625	0.0082305908203125	2136.31571060632
0.889434814453125	0.0082489013671875	2136.4042116061
0.89385986328125	0.0082672119140625	2136.49271260587
0.898284912109375	0.00828857421875	2136.58121360565
0.9027099609375	0.00831298828125	2136.66971460543
0.907135009765625	0.0083343505859375	2136.7582156052
0.91156005859375	0.0083587646484375	2136.84671660498
0.915985107421875	0.0083831787109375	2136.93521760476
0.92041015625	0.00841064453125	2137.02371860453
0.924835205078125	0.0084381103515625	2137.11221960431
0.92926025390625	0.008465576171875	2137.20072060409
0.933685302734375	0.00849609375	2137.28922160386
0.9381103515625	0.0085296630859375	2137.37772260364
0.942535400390625	0.008563232421875	2137.46622360342
0.94696044921875	0.0085968017578125	2137.55472460319
0.951385498046875	0.00863037109375	2137.64322560297
0.955810546875	0.0086669921875	2137.73172660275
0.960235595703125	0.00870361328125	2137.82022760252
0.96466064453125	0.0087432861328125	2137.9087286023
0.969085693359375	0.0087860107421875	2137.99722960208
0.9735107421875	0.0088287353515625	2138.08573060185
0.977935791015625	0.0088714599609375	2138.17423160163
0.98236083984375	0.008917236328125	2138.26273260141
0.986785888671875	0.008966064453125	2138.35123360118
0.9912109375	0.0090179443359375	2138.43973460096
0.995635986328125	0.0090667724609375	2138.52823560074
1.00006103515625	0.009124755859375	2138.61673660051
0.995635986328125	0.0084564208984375	2138.70523760029
0.9912109375	0.0078338623046875	2138.79373860006
0.986785888671875	0.0072479248046875	2138.88223959984
0.98236083984375	0.006689453125	2138.97074059962
0.977935791015625	0.006158447265625	2139.05924159939
0.9735107421875	0.00565185546875	2139.14774259917
0.969085693359375	0.0051666259765625	2139.23624359895
0.96466064453125	0.00470550537109375	2139.32474459872
0.960235595703125	0.0042626953125	2139.4132455985
0.955810546875	0.00383453369140625	2139.50174659828
0.951385498046875	0.003426513671875	2139.59024759805
0.94696044921875	0.00303253173828125	2139.67874859783
0.942535400390625	0.00265533447265625	2139.76724959761
0.9381103515625	0.00229095458984375	2139.85575059738
0.933685302734375	0.0019366455078125	2139.94425159716
0.92926025390625	0.00159820556640625	2140.03275259694
0.924835205078125	0.00127227783203125	2140.12125359671
0.92041015625	0.0009576416015625	2140.20975459649
0.915985107421875	0.00065521240234375	2140.29825559627
0.91156005859375	0.00036248779296875	2140.38675659604
0.907135009765625	8.1207275390625E-05	2140.47525759582
0.9027099609375	-0.0001904296875	2140.5637585956
0.898284912109375	-0.000452392578125	2140.65225959537
0.89385986328125	-0.0007049560546875	2140.74076059515
0.889434814453125	-0.0009478759765625	2140.82926159493
0.885009765625	-0.0011822509765625	2140.9177625947
0.880584716796875	-0.0014080810546875	2141.00626359448
0.87615966796875	-0.00162506103515625	2141.09476459426
0.871734619140625	-0.00183380126953125	2141.18326559403
0.8673095703125	-0.00203582763671875	2141.27176659381
0.862884521484375	-0.00222900390625	2141.36026759358
0.85845947265625	-0.00241424560546875	2141.44876859336
0.854034423828125	-0.0025927734375	2141.53726959314
0.849609375	-0.0027642822265625	2141.62577059291
0.845184326171875	-0.00292816162109375	2141.71427159269
0.84075927734375	-0.00308685302734375	2141.80277259247
0.836334228515625	-0.00323883056640625	2141.89127359224
0.8319091796875	-0.0033843994140625	2141.97977459202
0.827484130859375	-0.00352386474609375	2142.0682755918
0.82305908203125	-0.003658447265625	2142.15677659157
0.818634033203125	-0.00378448486328125	2142.24527759135
0.814208984375	-0.0039080810546875	2142.33377859113
0.809783935546875	-0.00402435302734375	2142.4222795909
0.80535888671875	-0.00413726806640625	2142.51078059068
0.800933837890625	-0.00424560546875	2142.59928159046
0.7965087890625	-0.00434783935546875	2142.68778259023
0.792083740234375	-0.00444610595703125	2142.77628359001
0.78765869140625	-0.004539794921875	2142.86478458979
0.783233642578125	-0.00463104248046875	2142.95328558956
0.77880859375	-0.0047174072265625	2143.04178658934
0.774383544921875	-0.00480072021484375	2143.13028758912
0.76995849609375	-0.00487945556640625	2143.21878858889
0.765533447265625	-0.0049554443359375	2143.30728958867
0.7611083984375	-0.00502838134765625	2143.39579058845
0.756683349609375	-0.00509979248046875	2143.48429158822
0.75225830078125	-0.005164794921875	2143.572792588
0.747833251953125	-0.00522796630859375	2143.66129358778
0.743408203125	-0.0052899169921875	2143.74979458755
0.738983154296875	-0.00534759521484375	2143.83829558733
0.73455810546875	-0.00540496826171875	2143.9267965871
0.730133056640625	-0.00546112060546875	2144.01529758688
0.7257080078125	-0.00551422119140625	2144.10379858666
0.721282958984375	-0.0055657958984375	2144.19229958643
0.71685791015625	-0.0056146240234375	2144.28080058621
0.712432861328125	-0.005660400390625	2144.36930158599
0.7080078125	-0.00570556640625	2144.45780258576
0.703582763671875	-0.00575042724609375	2144.54630358554
0.69915771484375	-0.0057928466796875	2144.63480458532
0.694732666015625	-0.00583526611328125	2144.72330558509
0.6903076171875	-0.00587554931640625	2144.81180658487
0.685882568359375	-0.005914306640625	2144.90030758465
0.68145751953125	-0.00595123291015625	2144.98880858442
0.677032470703125	-0.0059893798828125	2145.0773095842
0.672607421875	-0.006026611328125	2145.16581058398
0.668182373046875	-0.00604248046875	2145.25431158375
0.66375732421875	-0.0060760498046875	2145.34281258353
0.659332275390625	-0.006109619140625	2145.43131358331
0.6549072265625	-0.00614013671875	2145.51981458308
0.650482177734375	-0.0061737060546875	2145.60831558286
0.64605712890625	-0.006207275390625	2145.69681658264
0.641632080078125	-0.00623779296875	2145.78531758241
0.63720703125	-0.006268310546875	2145.87381858219
0.632781982421875	-0.006298828125	2145.96231958197
0.62835693359375	-0.006329345703125	2146.05082058174
0.623931884765625	-0.00635986328125	2146.13932158152
0.6195068359375	-0.006390380859375	2146.2278225813
0.615081787109375	-0.0064178466796875	2146.31632358107
0.61065673828125	-0.0064453125	2146.40482458085
0.606231689453125	-0.0064727783203125	2146.49332558063
0.601806640625	-0.006500244140625	2146.5818265804
0.597381591796875	-0.0065277099609375	2146.67032758018
0.59295654296875	-0.00655517578125	2146.75882857995
0.588531494140625	-0.006585693359375	2146.84732957973
0.5841064453125	-0.006610107421875	2146.93583057951
0.579681396484375	-0.0066375732421875	2147.02433157928
0.57525634765625	-0.0066650390625	2147.11283257906
0.570831298828125	-0.006689453125	2147.20133357884
0.56640625	-0.0067169189453125	2147.28983457861
0.561981201171875	-0.0067413330078125	2147.37833557839
0.55755615234375	-0.0067657470703125	2147.46683657817
0.553131103515625	-0.0067901611328125	2147.55533757794
0.5487060546875	-0.006817626953125	2147.64383857772
0.544281005859375	-0.006842041015625	2147.7323395775
0.53985595703125	-0.006866455078125	2147.82084057727
0.535430908203125	-0.006890869140625	2147.90934157705
0.531005859375	-0.006915283203125	2147.99784257683
0.526580810546875	-0.0069427490234375	2148.0863435766
0.52215576171875	-0.006964111328125	2148.17484457638
0.517730712890625	-0.006988525390625	2148.26334557616
0.5133056640625	-0.007012939453125	2148.35184657593
0.508880615234375	-0.007037353515625	2148.44034757571
0.50445556640625	-0.007061767578125	2148.52884857549
0.500030517578125	-0.007086181640625	2148.61734957526
0.49560546875	-0.0071075439453125	2148.70585057504
0.491180419921875	-0.0071319580078125	2148.79435157482
0.48675537109375	-0.007159423828125	2148.88285257459
0.482330322265625	-0.007183837890625	2148.97135357437
0.4779052734375	-0.007208251953125	2149.05985457415
0.473480224609375	-0.0072296142578125	2149.14835557392
0.46905517578125	-0.0072540283203125	2149.2368565737
0.464630126953125	-0.007275390625	2149.32535757348
0.460205078125	-0.0072998046875	2149.41385857325
0.455780029296875	-0.00732421875	2149.50235957303
0.45135498046875	-0.0073486328125	2149.5908605728
0.446929931640625	-0.007373046875	2149.67936157258
0.4425048828125	-0.0073974609375	2149.76786257236
0.438079833984375	-0.007421875	2149.85636357213
0.43365478515625	-0.0074462890625	2149.94486457191
0.429229736328125	-0.007470703125	2150.03336557169
0.4248046875	-0.0074951171875	2150.12186657146
0.420379638671875	-0.0075164794921875	2150.21036757124
0.41595458984375	-0.0075408935546875	2150.29886857102
0.411529541015625	-0.0075653076171875	2150.38736957079
0.4071044921875	-0.0075897216796875	2150.47587057057
0.402679443359375	-0.0076141357421875	2150.56437157035
0.39825439453125	-0.0076385498046875	2150.65287257012
0.393829345703125	-0.0076629638671875	2150.7413735699
0.389404296875	-0.007684326171875	2150.82987456968
0.384979248046875	-0.007708740234375	2150.91837556945
0.38055419921875	-0.007733154296875	2151.00687656923
0.376129150390625	-0.0077606201171875	2151.09537756901
0.3717041015625	-0.007781982421875	2151.18387856878
0.367279052734375	-0.007806396484375	2151.27237956856
0.36285400390625	-0.0078277587890625	2151.36088056834
0.358428955078125	-0.0078521728515625	2151.44938156811
0.35400390625	-0.007879638671875	2151.53788256789
0.349578857421875	-0.0079010009765625	2151.62638356767
0.34515380859375	-0.007928466796875	2151.71488456744
0.340728759765625	-0.007952880859375	2151.80338556722
0.3363037109375	-0.007977294921875	2151.891886567
0.331878662109375	-0.008001708984375	2151.98038756677
0.32745361328125	-0.008026123046875	2152.06888856655
0.323028564453125	-0.0080535888671875	2152.15738956633
0.318603515625	-0.008074951171875	2152.2458905661
0.314178466796875	-0.008099365234375	2152.33439156588
0.30975341796875	-0.0081298828125	2152.42289256565
0.305328369140625	-0.008154296875	2152.51139356543
0.3009033203125	-0.0081817626953125	2152.59989456521
0.296478271484375	-0.008203125	2152.68839556498
0.29205322265625	-0.0082275390625	2152.77689656476
0.287628173828125	-0.008251953125	2152.86539756454
0.283203125	-0.0082794189453125	2152.95389856431
0.278778076171875	-0.0083038330078125	2153.04239956409
0.27435302734375	-0.008331298828125	2153.13090056387
0.269927978515625	-0.008355712890625	2153.21940156364
0.2655029296875	-0.008380126953125	2153.30790256342
0.261077880859375	-0.0084075927734375	2153.3964035632
0.25665283203125	-0.00843505859375	2153.48490456297
0.252227783203125	-0.00845947265625	2153.57340556275
0.247802734375	-0.0084869384765625	2153.66190656253
0.243377685546875	-0.008514404296875	2153.7504075623
0.23895263671875	-0.008538818359375	2153.83890856208
0.234527587890625	-0.008563232421875	2153.92740956186
0.2301025390625	-0.008587646484375	2154.01591056163
0.225677490234375	-0.0086151123046875	2154.10441156141
0.22125244140625	-0.008642578125	2154.19291256119
0.216827392578125	-0.0086669921875	2154.28141356096
0.21240234375	-0.0086944580078125	2154.36991456074
0.207977294921875	-0.008721923828125	2154.45841556052
0.20355224609375	-0.0087493896484375	2154.54691656029
0.199127197265625	-0.00877685546875	2154.63541756007
0.1947021484375	-0.008807373046875	2154.72391855985
0.190277099609375	-0.008831787109375	2154.81241955962
0.18585205078125	-0.0088623046875	2154.9009205594
0.181427001953125	-0.008892822265625	2154.98942155917
0.177001953125	-0.00892333984375	2155.07792255895
0.172576904296875	-0.0089508056640625	2155.16642355873
0.16815185546875	-0.0089813232421875	2155.2549245585
0.163726806640625	-0.0090087890625	2155.34342555828
0.1593017578125	-0.009039306640625	2155.43192655806
0.154876708984375	-0.00906982421875	2155.52042755783
0.15045166015625	-0.0090972900390625	2155.60892855761
0.146026611328125	-0.0091278076171875	2155.69742955739
0.1416015625	-0.009161376953125	2155.78593055716
0.137176513671875	-0.0091949462890625	2155.87443155694
0.13275146484375	-0.0092254638671875	2155.96293255672
0.128326416015625	-0.009259033203125	2156.05143355649
0.1239013671875	-0.0092926025390625	2156.13993455627
0.119476318359375	-0.0093231201171875	2156.22843555605
0.11505126953125	-0.009356689453125	2156.31693655582
0.110626220703125	-0.0093902587890625	2156.4054375556
0.106201171875	-0.0094268798828125	2156.49393855538
0.101776123046875	-0.00946044921875	2156.58243955515
0.09735107421875	-0.0094940185546875	2156.67094055493
0.092926025390625	-0.009527587890625	2156.75944155471
0.0885009765625	-0.009564208984375	2156.84794255448
0.084075927734375	-0.009600830078125	2156.93644355426
0.07965087890625	-0.009637451171875	2157.02494455404
0.075225830078125	-0.009674072265625	2157.11344555381
0.07080078125	-0.009716796875	2157.20194655359
0.066375732421875	-0.00975341796875	2157.29044755337
0.06195068359375	-0.0097930908203125	2157.37894855314
0.057525634765625	-0.009832763671875	2157.46744955292
0.0531005859375	-0.00987548828125	2157.55595055269
0.048675537109375	-0.0099151611328125	2157.64445155247
0.04425048828125	-0.009954833984375	2157.73295255225
0.039825439453125	-0.00999755859375	2157.82145355202
0.035400390625	-0.0100433349609375	2157.9099545518
0.030975341796875	-0.010089111328125	2157.99845555158
0.02655029296875	-0.0101318359375	2158.08695655135
0.022125244140625	-0.010174560546875	2158.17545755113
0.0177001953125	-0.01021728515625	2158.26395855091
0.013275146484375	-0.01026611328125	2158.35245955068
0.00885009765625	-0.010308837890625	2158.44096055046
0.004425048828125	-0.010357666015625	2158.52946155024
0	-0.010406494140625	2158.61796255001
0.004425048828125	-0.009716796875	2158.70646354979
0.00885009765625	-0.009063720703125	2158.79496454957
0.013275146484375	-0.0084381103515625	2158.88346554934
0.0177001953125	-0.0078399658203125	2158.97196654912
0.022125244140625	-0.0072662353515625	2159.0604675489
0.02655029296875	-0.0067108154296875	2159.14896854867
0.030975341796875	-0.0061798095703125	2159.23746954845
0.035400390625	-0.0056640625	2159.32597054823
0.039825439453125	-0.0051666259765625	2159.414471548
0.04425048828125	-0.00468841552734375	2159.50297254778
0.048675537109375	-0.00422454833984375	2159.59147354756
0.0531005859375	-0.0037750244140625	2159.67997454733
0.057525634765625	-0.0033404541015625	2159.76847554711
0.06195068359375	-0.002919921875	2159.85697654689
0.066375732421875	-0.00252197265625	2159.94547754666
0.07080078125	-0.00212615966796875	2160.03397854644
0.075225830078125	-0.0017425537109375	2160.12247954621
0.07965087890625	-0.0013720703125	2160.21098054599
0.084075927734375	-0.0010113525390625	2160.29948154577
0.0885009765625	-0.00066131591796875	2160.38798254554
0.092926025390625	-0.000322265625	2160.47648354532
0.09735107421875	7.0159912109375E-06	2160.5649845451
0.101776123046875	0.000326507568359375	2160.65348554487
0.106201171875	0.0006365966796875	2160.74198654465
0.110626220703125	0.00093719482421875	2160.83048754443
0.11505126953125	0.00122894287109375	2160.9189885442
0.119476318359375	0.00151092529296875	2161.00748954398
0.1239013671875	0.0017852783203125	2161.09599054376
0.128326416015625	0.0020513916015625	2161.18449154353
0.13275146484375	0.00230987548828125	2161.27299254331
0.137176513671875	0.00256011962890625	2161.36149354309
0.1416015625	0.00280303955078125	2161.44999454286
0.146026611328125	0.0030377197265625	2161.53849554264
0.15045166015625	0.0032666015625	2161.62699654242
0.154876708984375	0.00348663330078125	2161.71549754219
0.1593017578125	0.00369964599609375	2161.80399854197
0.163726806640625	0.00390655517578125	2161.89249954175
0.16815185546875	0.0041082763671875	2161.98100054152
0.172576904296875	0.00430084228515625	2162.0695015413
0.177001953125	0.00448516845703125	2162.15800254108
0.181427001953125	0.00466552734375	2162.24650354085
0.18585205078125	0.00484100341796875	2162.33500454063
0.190277099609375	0.00501220703125	2162.42350554041
0.1947021484375	0.0051763916015625	2162.51200654018
0.199127197265625	0.00533447265625	2162.60050753996
0.20355224609375	0.00548614501953125	2162.68900853974
0.207977294921875	0.005634765625	2162.77750953951
0.21240234375	0.005777587890625	2162.86601053929
0.216827392578125	0.00591552734375	2162.95451153906
0.22125244140625	0.00604705810546875	2163.04301253884
0.225677490234375	0.00616455078125	2163.13151353862
0.2301025390625	0.00628662109375	2163.22001453839
0.234527587890625	0.006402587890625	2163.30851553817
0.23895263671875	0.006512451171875	2163.39701653795
0.243377685546875	0.0066192626953125	2163.48551753772
0.247802734375	0.0067230224609375	2163.5740185375
0.252227783203125	0.0068206787109375	2163.66251953728
0.25665283203125	0.006915283203125	2163.75102053705
0.261077880859375	0.0070037841796875	2163.83952153683
0.2655029296875	0.0070892333984375	2163.92802253661
0.269927978515625	0.0071746826171875	2164.01652353638
0.27435302734375	0.0072540283203125	2164.10502453616
0.278778076171875	0.0073272705078125	2164.19352553594
0.283203125	0.0073974609375	2164.28202653571
0.287628173828125	0.007464599609375	2164.37052753549
0.29205322265625	0.00753173828125	2164.45902853527
0.296478271484375	0.0075958251953125	2164.54752953504
0.3009033203125	0.00765380859375	2164.63603053482
0.305328369140625	0.0077056884765625	2164.7245315346
0.30975341796875	0.0077606201171875	2164.81303253437
0.314178466796875	0.0078094482421875	2164.90153353415
0.318603515625	0.007855224609375	2164.99003453393
0.323028564453125	0.0079010009765625	2165.0785355337
0.32745361328125	0.007940673828125	2165.16703653348
0.331878662109375	0.0079803466796875	2165.25553753326
0.3363037109375	0.0080108642578125	2165.34403853303
0.340728759765625	0.0080474853515625	2165.43253953281
0.34515380859375	0.0080841064453125	2165.52104053259
0.349578857421875	0.0081146240234375	2165.60954153236
0.35400390625	0.0081390380859375	2165.69804253214
0.358428955078125	0.0081634521484375	2165.78654353191
0.36285400390625	0.0081878662109375	2165.87504453169
0.367279052734375	0.0082061767578125	2165.96354553147
0.3717041015625	0.0082275390625	2166.05204653124
0.376129150390625	0.00823974609375	2166.14054753102
0.38055419921875	0.008258056640625	2166.2290485308
0.384979248046875	0.0082733154296875	2166.31754953057
0.389404296875	0.0082855224609375	2166.40605053035
0.393829345703125	0.0082977294921875	2166.49455153013
0.39825439453125	0.008306884765625	2166.5830525299
0.402679443359375	0.00831298828125	2166.67155352968
0.4071044921875	0.0083221435546875	2166.76005452946
0.411529541015625	0.008331298828125	2166.84855552923
0.41595458984375	0.0083343505859375	2166.93705652901
0.420379638671875	0.0083404541015625	2167.02555752879
0.4248046875	0.008343505859375	2167.11405852856
0.429229736328125	0.008343505859375	2167.20255952834
0.43365478515625	0.0083465576171875	2167.29106052812
0.438079833984375	0.0083465576171875	2167.37956152789
0.4425048828125	0.008343505859375	2167.46806252767
0.446929931640625	0.0083404541015625	2167.55656352745
0.45135498046875	0.0083404541015625	2167.64506452722
0.455780029296875	0.0083404541015625	2167.733565527
0.460205078125	0.00833740234375	2167.82206652678
0.464630126953125	0.008331298828125	2167.91056752655
0.46905517578125	0.0083282470703125	2167.99906852633
0.473480224609375	0.0083251953125	2168.08756952611
0.4779052734375	0.008319091796875	2168.17607052588
0.482330322265625	0.00831298828125	2168.26457152566
0.48675537109375	0.008306884765625	2168.35307252543
0.491180419921875	0.0083038330078125	2168.44157352521
0.49560546875	0.008294677734375	2168.53007452499
0.500030517578125	0.0082855224609375	2168.61857552476
0.50445556640625	0.0082763671875	2168.70707652454
0.508880615234375	0.008270263671875	2168.79557752432
0.5133056640625	0.00826416015625	2168.88407852409
0.517730712890625	0.0082550048828125	2168.97257952387
0.52215576171875	0.008245849609375	2169.06108052365
0.526580810546875	0.008233642578125	2169.14958152342
0.531005859375	0.0082244873046875	2169.2380825232
0.535430908203125	0.00821533203125	2169.32658352298
0.53985595703125	0.008203125	2169.41508452275
0.544281005859375	0.0081939697265625	2169.50358552253
0.5487060546875	0.0081817626953125	2169.59208652231
0.553131103515625	0.008172607421875	2169.68058752208
0.55755615234375	0.0081634521484375	2169.76908852186
0.561981201171875	0.0081512451171875	2169.85758952164
0.56640625	0.0081390380859375	2169.94609052141
0.570831298828125	0.0081298828125	2170.03459152119
0.57525634765625	0.00811767578125	2170.12309252097
0.579681396484375	0.0081085205078125	2170.21159352074
0.5841064453125	0.0080963134765625	2170.30009452052
0.588531494140625	0.0080841064453125	2170.3885955203
0.59295654296875	0.008074951171875	2170.47709652007
0.597381591796875	0.008062744140625	2170.56559751985
0.601806640625	0.0080535888671875	2170.65409851963
0.606231689453125	0.0080413818359375	2170.7425995194
0.61065673828125	0.0080291748046875	2170.83110051918
0.615081787109375	0.00802001953125	2170.91960151896
0.6195068359375	0.0080108642578125	2171.00810251873
0.623931884765625	0.008001708984375	2171.09660351851
0.62835693359375	0.0079925537109375	2171.18510451828
0.632781982421875	0.0079833984375	2171.27360551806
0.63720703125	0.00797119140625	2171.36210651784
0.641632080078125	0.0079620361328125	2171.45060751761
0.64605712890625	0.007952880859375	2171.53910851739
0.650482177734375	0.007940673828125	2171.62760951717
0.6549072265625	0.007928466796875	2171.71611051694
0.659332275390625	0.00792236328125	2171.80461151672
0.66375732421875	0.0079132080078125	2171.8931125165
0.668182373046875	0.0079010009765625	2171.98161351627
0.672607421875	0.007891845703125	2172.07011451605
0.677032470703125	0.0078826904296875	2172.15861551583
0.68145751953125	0.00787353515625	2172.2471165156
0.685882568359375	0.0078643798828125	2172.33561751538
0.6903076171875	0.0078582763671875	2172.42411851516
0.694732666015625	0.00784912109375	2172.51261951493
0.69915771484375	0.0078399658203125	2172.60112051471
0.703582763671875	0.007830810546875	2172.68962151449
0.7080078125	0.00782470703125	2172.77812251426
0.712432861328125	0.0078155517578125	2172.86662351404
0.71685791015625	0.0078094482421875	2172.95512451382
0.721282958984375	0.0078033447265625	2173.04362551359
0.7257080078125	0.00780029296875	2173.13212651337
0.730133056640625	0.007794189453125	2173.22062751315
0.73455810546875	0.0077880859375	2173.30912851292
0.738983154296875	0.007781982421875	2173.3976295127
0.743408203125	0.00777587890625	2173.48613051248
0.747833251953125	0.007769775390625	2173.57463151225
0.75225830078125	0.007769775390625	2173.66313251203
0.756683349609375	0.0077667236328125	2173.7516335118
0.7611083984375	0.0077606201171875	2173.84013451158
0.765533447265625	0.0077606201171875	2173.92863551136
0.76995849609375	0.007757568359375	2174.01713651113
0.774383544921875	0.0077545166015625	2174.10563751091
0.77880859375	0.0077545166015625	2174.19413851069
0.783233642578125	0.00775146484375	2174.28263951046
0.78765869140625	0.00775146484375	2174.37114051024
0.792083740234375	0.00775146484375	2174.45964151002
0.7965087890625	0.0077545166015625	2174.54814250979
0.800933837890625	0.007757568359375	2174.63664350957
0.80535888671875	0.007757568359375	2174.72514450935
0.809783935546875	0.0077606201171875	2174.81364550912
0.814208984375	0.007763671875	2174.9021465089
0.818634033203125	0.0077667236328125	2174.99064750868
0.82305908203125	0.0077728271484375	2175.07914850845
0.827484130859375	0.0077789306640625	2175.16764950823
0.8319091796875	0.0077850341796875	2175.25615050801
0.836334228515625	0.0077911376953125	2175.34465150778
0.84075927734375	0.0077972412109375	2175.43315250756
0.845184326171875	0.0078033447265625	2175.52165350734
0.849609375	0.0078155517578125	2175.61015450711
0.854034423828125	0.00782470703125	2175.69865550689
0.85845947265625	0.0078369140625	2175.78715650667
0.862884521484375	0.007843017578125	2175.87565750644
0.8673095703125	0.007855224609375	2175.96415850622
0.871734619140625	0.0078704833984375	2176.052659506
0.87615966796875	0.0078857421875	2176.14116050577
0.880584716796875	0.00789794921875	2176.22966150555
0.885009765625	0.007916259765625	2176.31816250532
0.889434814453125	0.0079345703125	2176.4066635051
0.89385986328125	0.007952880859375	2176.49516450488
0.898284912109375	0.00797119140625	2176.58366550465
0.9027099609375	0.00799560546875	2176.67216650443
0.907135009765625	0.0080169677734375	2176.76066750421
0.91156005859375	0.0080413818359375	2176.84916850398
0.915985107421875	0.0080657958984375	2176.93766950376
0.92041015625	0.0080902099609375	2177.02617050354
0.924835205078125	0.00811767578125	2177.11467150331
0.92926025390625	0.008148193359375	2177.20317250309
0.933685302734375	0.0081787109375	2177.29167350287
0.9381103515625	0.0082122802734375	2177.38017450264
0.942535400390625	0.008245849609375	2177.46867550242
0.94696044921875	0.0082794189453125	2177.5571765022
0.951385498046875	0.00831298828125	2177.64567750197
0.955810546875	0.0083526611328125	2177.73417850175
0.960235595703125	0.0083892822265625	2177.82267950153
0.96466064453125	0.008428955078125	2177.9111805013
0.969085693359375	0.0084716796875	2177.99968150108
0.9735107421875	0.008514404296875	2178.08818250086
0.977935791015625	0.0085601806640625	2178.17668350063
0.98236083984375	0.00860595703125	2178.26518450041
0.986785888671875	0.00865478515625	2178.35368550019
0.9912109375	0.0087066650390625	2178.44218649996
0.995635986328125	0.008758544921875	2178.53068749974
1.00006103515625	0.0088165283203125	2178.61918849952
0.995635986328125	0.008154296875	2178.70768949929
0.9912109375	0.0075408935546875	2178.79619049907
0.986785888671875	0.0069549560546875	2178.88469149884
0.98236083984375	0.006402587890625	2178.97319249862
0.977935791015625	0.005877685546875	2179.0616934984
0.9735107421875	0.005377197265625	2179.15019449817
0.969085693359375	0.0049005126953125	2179.23869549795
0.96466064453125	0.004443359375	2179.32719649773
0.960235595703125	0.00400604248046875	2179.4156974975
0.955810546875	0.00358612060546875	2179.50419849728
0.951385498046875	0.0031842041015625	2179.59269949706
0.94696044921875	0.00279876708984375	2179.68120049683
0.942535400390625	0.00242584228515625	2179.76970149661
0.9381103515625	0.00206817626953125	2179.85820249639
0.933685302734375	0.0017205810546875	2179.94670349616
0.92926025390625	0.00138885498046875	2180.03520449594
0.924835205078125	0.00106842041015625	2180.12370549572
0.92041015625	0.0007598876953125	2180.21220649549
0.915985107421875	0.000462127685546875	2180.30070749527
0.91156005859375	0.00017547607421875	2180.38920849505
0.907135009765625	-0.000100860595703125	2180.47770949482
0.9027099609375	-0.000367431640625	2180.5662104946
0.898284912109375	-0.000623779296875	2180.65471149438
0.89385986328125	-0.0008709716796875	2180.74321249415
0.889434814453125	-0.00110931396484375	2180.83171349393
0.885009765625	-0.001339111328125	2180.92021449371
0.880584716796875	-0.00156005859375	2181.00871549348
0.87615966796875	-0.0017724609375	2181.09721649326
0.871734619140625	-0.0019769287109375	2181.18571749304
0.8673095703125	-0.0021734619140625	2181.27421849281
0.862884521484375	-0.0023626708984375	2181.36271949259
0.85845947265625	-0.0025433349609375	2181.45122049236
0.854034423828125	-0.00271759033203125	2181.53972149214
0.849609375	-0.0028857421875	2181.62822249192
0.845184326171875	-0.00304595947265625	2181.71672349169
0.84075927734375	-0.0032012939453125	2181.80522449147
0.836334228515625	-0.00334808349609375	2181.89372549125
0.8319091796875	-0.00348968505859375	2181.98222649102
0.827484130859375	-0.00362548828125	2182.0707274908
0.82305908203125	-0.0037567138671875	2182.15922849058
0.818634033203125	-0.00387969970703125	2182.24772949035
0.814208984375	-0.0039996337890625	2182.33623049013
0.809783935546875	-0.004112548828125	2182.42473148991
0.80535888671875	-0.0042205810546875	2182.51323248968
0.800933837890625	-0.004326171875	2182.60173348946
0.7965087890625	-0.00442535400390625	2182.69023448924
0.792083740234375	-0.0045220947265625	2182.77873548901
0.78765869140625	-0.00461273193359375	2182.86723648879
0.783233642578125	-0.00470001220703125	2182.95573748857
0.77880859375	-0.00478271484375	2183.04423848834
0.774383544921875	-0.004862060546875	2183.13273948812
0.76995849609375	-0.00493865966796875	2183.2212404879
0.765533447265625	-0.00501220703125	2183.30974148767
0.7611083984375	-0.005081787109375	2183.39824248745
0.756683349609375	-0.00514923095703125	2183.48674348723
0.75225830078125	-0.00521392822265625	2183.575244487
0.747833251953125	-0.00527587890625	2183.66374548678
0.743408203125	-0.0053338623046875	2183.75224648656
0.738983154296875	-0.00539031982421875	2183.84074748633
0.73455810546875	-0.0054443359375	2183.92924848611
0.730133056640625	-0.00549774169921875	2184.01774948589
0.7257080078125	-0.005548095703125	2184.10625048566
0.721282958984375	-0.005596923828125	2184.19475148544
0.71685791015625	-0.005643310546875	2184.28325248521
0.712432861328125	-0.00568756103515625	2184.37175348499
0.7080078125	-0.00573150634765625	2184.46025448477
0.703582763671875	-0.00577545166015625	2184.54875548454
0.69915771484375	-0.00581451416015625	2184.63725648432
0.694732666015625	-0.00585479736328125	2184.7257574841
0.6903076171875	-0.005894775390625	2184.81425848387
0.685882568359375	-0.00593170166015625	2184.90275948365
0.68145751953125	-0.00596893310546875	2184.99126048343
0.677032470703125	-0.006005859375	2185.0797614832
0.672607421875	-0.0060211181640625	2185.16826248298
0.668182373046875	-0.0060546875	2185.25676348276
0.66375732421875	-0.0060882568359375	2185.34526448253
0.659332275390625	-0.006121826171875	2185.43376548231
0.6549072265625	-0.00615234375	2185.52226648209
0.650482177734375	-0.0061859130859375	2185.61076748186
0.64605712890625	-0.0062164306640625	2185.69926848164
0.641632080078125	-0.0062469482421875	2185.78776948142
0.63720703125	-0.0062744140625	2185.87627048119
0.632781982421875	-0.006304931640625	2185.96477148097
0.62835693359375	-0.0063323974609375	2186.05327248075
0.623931884765625	-0.006365966796875	2186.14177348052
0.6195068359375	-0.006390380859375	2186.2302744803
0.615081787109375	-0.0064208984375	2186.31877548008
0.61065673828125	-0.0064483642578125	2186.40727647985
0.606231689453125	-0.0064727783203125	2186.49577747963
0.601806640625	-0.006500244140625	2186.58427847941
0.597381591796875	-0.00653076171875	2186.67277947918
0.59295654296875	-0.00655517578125	2186.76128047896
0.588531494140625	-0.0065826416015625	2186.84978147874
0.5841064453125	-0.00660400390625	2186.93828247851
0.579681396484375	-0.00662841796875	2187.02678347829
0.57525634765625	-0.0066558837890625	2187.11528447806
0.570831298828125	-0.006683349609375	2187.20378547784
0.56640625	-0.006707763671875	2187.29228647762
0.561981201171875	-0.0067291259765625	2187.38078747739
0.55755615234375	-0.0067535400390625	2187.46928847717
0.553131103515625	-0.006781005859375	2187.55778947695
0.5487060546875	-0.0068023681640625	2187.64629047672
0.544281005859375	-0.0068267822265625	2187.7347914765
0.53985595703125	-0.0068511962890625	2187.82329247628
0.535430908203125	-0.0068756103515625	2187.91179347605
0.531005859375	-0.006903076171875	2188.00029447583
0.526580810546875	-0.006927490234375	2188.08879547561
0.52215576171875	-0.006951904296875	2188.17729647538
0.517730712890625	-0.0069732666015625	2188.26579747516
0.5133056640625	-0.007000732421875	2188.35429847494
0.508880615234375	-0.007025146484375	2188.44279947471
0.50445556640625	-0.007049560546875	2188.53130047449
0.500030517578125	-0.007073974609375	2188.61980147427
0.49560546875	-0.0070953369140625	2188.70830247404
0.491180419921875	-0.0071197509765625	2188.79680347382
0.48675537109375	-0.0071441650390625	2188.8853044736
0.482330322265625	-0.0071685791015625	2188.97380547337
0.4779052734375	-0.0071929931640625	2189.06230647315
0.473480224609375	-0.0072174072265625	2189.15080747293
0.46905517578125	-0.0072418212890625	2189.2393084727
0.464630126953125	-0.00726318359375	2189.32780947248
0.460205078125	-0.00728759765625	2189.41631047226
0.455780029296875	-0.00731201171875	2189.50481147203
0.45135498046875	-0.0073333740234375	2189.59331247181
0.446929931640625	-0.0073577880859375	2189.68181347158
0.4425048828125	-0.0073822021484375	2189.77031447136
0.438079833984375	-0.0074066162109375	2189.85881547114
0.43365478515625	-0.0074310302734375	2189.94731647091
0.429229736328125	-0.0074554443359375	2190.03581747069
0.4248046875	-0.007476806640625	2190.12431847047
0.420379638671875	-0.0075042724609375	2190.21281947024
0.41595458984375	-0.0075286865234375	2190.30132047002
0.411529541015625	-0.0075531005859375	2190.3898214698
0.4071044921875	-0.0075775146484375	2190.47832246957
0.402679443359375	-0.007598876953125	2190.56682346935
0.39825439453125	-0.007623291015625	2190.65532446913
0.393829345703125	-0.007647705078125	2190.7438254689
0.389404296875	-0.0076690673828125	2190.83232646868
0.384979248046875	-0.007696533203125	2190.92082746846
0.38055419921875	-0.0077178955078125	2191.00932846823
0.376129150390625	-0.0077423095703125	2191.09782946801
0.3717041015625	-0.0077667236328125	2191.18633046779
0.367279052734375	-0.0077911376953125	2191.27483146756
0.36285400390625	-0.0078125	2191.36333246734
0.358428955078125	-0.0078369140625	2191.45183346712
0.35400390625	-0.007861328125	2191.54033446689
0.349578857421875	-0.0078826904296875	2191.62883546667
0.34515380859375	-0.0079071044921875	2191.71733646645
0.340728759765625	-0.0079345703125	2191.80583746622
0.3363037109375	-0.007958984375	2191.894338466
0.331878662109375	-0.0079833984375	2191.98283946578
0.32745361328125	-0.0080078125	2192.07134046555
0.323028564453125	-0.0080352783203125	2192.15984146533
0.318603515625	-0.0080596923828125	2192.2483424651
0.314178466796875	-0.0080841064453125	2192.33684346488
0.30975341796875	-0.0081085205078125	2192.42534446466
0.305328369140625	-0.008135986328125	2192.51384546443
0.3009033203125	-0.0081634521484375	2192.60234646421
0.296478271484375	-0.008184814453125	2192.69084746399
0.29205322265625	-0.008209228515625	2192.77934846376
0.287628173828125	-0.008233642578125	2192.86784946354
0.283203125	-0.00826416015625	2192.95635046332
0.278778076171875	-0.00828857421875	2193.04485146309
0.27435302734375	-0.0083099365234375	2193.13335246287
0.269927978515625	-0.0083343505859375	2193.22185346265
0.2655029296875	-0.00836181640625	2193.31035446242
0.261077880859375	-0.00838623046875	2193.3988554622
0.25665283203125	-0.0084136962890625	2193.48735646198
0.252227783203125	-0.0084381103515625	2193.57585746175
0.247802734375	-0.008465576171875	2193.66435846153
0.243377685546875	-0.008489990234375	2193.75285946131
0.23895263671875	-0.0085174560546875	2193.84136046108
0.234527587890625	-0.008544921875	2193.92986146086
0.2301025390625	-0.0085693359375	2194.01836246064
0.225677490234375	-0.00859375	2194.10686346041
0.22125244140625	-0.0086212158203125	2194.19536446019
0.216827392578125	-0.008648681640625	2194.28386545997
0.21240234375	-0.008673095703125	2194.37236645974
0.207977294921875	-0.00870361328125	2194.46086745952
0.20355224609375	-0.0087310791015625	2194.5493684593
0.199127197265625	-0.008758544921875	2194.63786945907
0.1947021484375	-0.008782958984375	2194.72637045885
0.190277099609375	-0.0088165283203125	2194.81487145863
0.18585205078125	-0.008843994140625	2194.9033724584
0.181427001953125	-0.008868408203125	2194.99187345818
0.177001953125	-0.00889892578125	2195.08037445795
0.172576904296875	-0.008929443359375	2195.16887545773
0.16815185546875	-0.0089569091796875	2195.25737645751
0.163726806640625	-0.0089874267578125	2195.34587745728
0.1593017578125	-0.0090179443359375	2195.43437845706
0.154876708984375	-0.0090484619140625	2195.52287945684
0.15045166015625	-0.00908203125	2195.61138045661
0.146026611328125	-0.009112548828125	2195.69988145639
0.1416015625	-0.00914306640625	2195.78838245617
0.137176513671875	-0.0091766357421875	2195.87688345594
0.13275146484375	-0.009210205078125	2195.96538445572
0.128326416015625	-0.00924072265625	2196.0538854555
0.1239013671875	-0.009271240234375	2196.14238645527
0.119476318359375	-0.009307861328125	2196.23088745505
0.11505126953125	-0.0093414306640625	2196.31938845483
0.110626220703125	-0.0093719482421875	2196.4078894546
0.106201171875	-0.009405517578125	2196.49639045438
0.101776123046875	-0.0094390869140625	2196.58489145416
0.09735107421875	-0.0094757080078125	2196.67339245393
0.092926025390625	-0.0095123291015625	2196.76189345371
0.0885009765625	-0.0095458984375	2196.85039445349
0.084075927734375	-0.0095794677734375	2196.93889545326
0.07965087890625	-0.009619140625	2197.02739645304
0.075225830078125	-0.0096588134765625	2197.11589745282
0.07080078125	-0.009698486328125	2197.20439845259
0.066375732421875	-0.009735107421875	2197.29289945237
0.06195068359375	-0.00977783203125	2197.38140045215
0.057525634765625	-0.009820556640625	2197.46990145192
0.0531005859375	-0.0098602294921875	2197.5584024517
0.048675537109375	-0.00989990234375	2197.64690345147
0.04425048828125	-0.009942626953125	2197.73540445125
0.039825439453125	-0.0099853515625	2197.82390545103
0.035400390625	-0.010028076171875	2197.9124064508
0.030975341796875	-0.01007080078125	2198.00090745058
0.02655029296875	-0.0101165771484375	2198.08940845036
0.022125244140625	-0.0101593017578125	2198.17790945013
0.0177001953125	-0.010205078125	2198.26641044991
0.013275146484375	-0.0102508544921875	2198.35491144969
0.00885009765625	-0.0102996826171875	2198.44341244946
0.004425048828125	-0.0103424072265625	2198.53191344924
0	-0.010394287109375	2198.62041444902
0.004425048828125	-0.00970458984375	2198.70891544879
0.00885009765625	-0.0090545654296875	2198.79741644857
0.013275146484375	-0.0084320068359375	2198.88591744835
0.0177001953125	-0.0078338623046875	2198.97441844812
0.022125244140625	-0.0072601318359375	2199.0629194479
0.02655029296875	-0.0067108154296875	2199.15142044768
0.030975341796875	-0.0061767578125	2199.23992144745
0.035400390625	-0.0056610107421875	2199.32842244723
0.039825439453125	-0.00516357421875	2199.41692344701
0.04425048828125	-0.00468841552734375	2199.50542444678
0.048675537109375	-0.00422393798828125	2199.59392544656
0.0531005859375	-0.00377777099609375	2199.68242644634
0.057525634765625	-0.0033447265625	2199.77092744611
0.06195068359375	-0.002923583984375	2199.85942844589
0.066375732421875	-0.0025262451171875	2199.94792944567
0.07080078125	-0.00213165283203125	2200.03643044544
0.075225830078125	-0.00174896240234375	2200.12493144522
0.07965087890625	-0.0013787841796875	2200.213432445
0.084075927734375	-0.00101837158203125	2200.30193344477
0.0885009765625	-0.00066986083984375	2200.39043444455
0.092926025390625	-0.0003309326171875	2200.47893544432
0.09735107421875	-2.30712890625E-06	2200.5674364441
0.101776123046875	0.00031658935546875	2200.65593744388
0.106201171875	0.00062591552734375	2200.74443844365
0.110626220703125	0.00092681884765625	2200.83293944343
0.11505126953125	0.00121795654296875	2200.92144044321
0.119476318359375	0.0014984130859375	2201.00994144298
0.1239013671875	0.0017730712890625	2201.09844244276
0.128326416015625	0.0020391845703125	2201.18694344254
0.13275146484375	0.0022979736328125	2201.27544444231
0.137176513671875	0.0025469970703125	2201.36394544209
0.1416015625	0.00278961181640625	2201.45244644187
0.146026611328125	0.00302459716796875	2201.54094744164
0.15045166015625	0.003251953125	2201.62944844142
0.154876708984375	0.00347381591796875	2201.7179494412
0.1593017578125	0.00368621826171875	2201.80645044097
0.163726806640625	0.00389404296875	2201.89495144075
0.16815185546875	0.00409332275390625	2201.98345244053
0.172576904296875	0.00428619384765625	2202.0719534403
0.177001953125	0.0044720458984375	2202.16045444008
0.181427001953125	0.00465118408203125	2202.24895543986
0.18585205078125	0.00482818603515625	2202.33745643963
0.190277099609375	0.00499969482421875	2202.42595743941
0.1947021484375	0.00516326904296875	2202.51445843919
0.199127197265625	0.005321044921875	2202.60295943896
0.20355224609375	0.0054730224609375	2202.69146043874
0.207977294921875	0.00562164306640625	2202.77996143852
0.21240234375	0.00576446533203125	2202.86846243829
0.216827392578125	0.00590118408203125	2202.95696343807
0.22125244140625	0.0060333251953125	2203.04546443785
0.225677490234375	0.00615234375	2203.13396543762
0.2301025390625	0.0062713623046875	2203.2224664374
0.234527587890625	0.0063873291015625	2203.31096743717
0.23895263671875	0.0064971923828125	2203.39946843695
0.243377685546875	0.00660400390625	2203.48796943673
0.247802734375	0.0067047119140625	2203.5764704365
0.252227783203125	0.0068084716796875	2203.66497143628
0.25665283203125	0.0069000244140625	2203.75347243606
0.261077880859375	0.0069915771484375	2203.84197343583
0.2655029296875	0.0070770263671875	2203.93047443561
0.269927978515625	0.007159423828125	2204.01897543539
0.27435302734375	0.00723876953125	2204.10747643516
0.278778076171875	0.0073150634765625	2204.19597743494
0.283203125	0.00738525390625	2204.28447843472
0.287628173828125	0.007452392578125	2204.37297943449
0.29205322265625	0.0075164794921875	2204.46148043427
0.296478271484375	0.0075775146484375	2204.54998143405
0.3009033203125	0.0076324462890625	2204.63848243382
0.305328369140625	0.0076904296875	2204.7269834336
0.30975341796875	0.0077423095703125	2204.81548443338
0.314178466796875	0.007794189453125	2204.90398543315
0.318603515625	0.0078369140625	2204.99248643293
0.323028564453125	0.0078826904296875	2205.08098743271
0.32745361328125	0.0079254150390625	2205.16948843248
0.331878662109375	0.0079620361328125	2205.25798943226
0.3363037109375	0.00799560546875	2205.34649043204
0.340728759765625	0.0080352783203125	2205.43499143181
0.34515380859375	0.00806884765625	2205.52349243159
0.349578857421875	0.0080963134765625	2205.61199343137
0.35400390625	0.008123779296875	2205.70049443114
0.358428955078125	0.008148193359375	2205.78899543092
0.36285400390625	0.008172607421875	2205.87749643069
0.367279052734375	0.00819091796875	2205.96599743047
0.3717041015625	0.0082122802734375	2206.05449843025
0.376129150390625	0.0082275390625	2206.14299943002
0.38055419921875	0.008245849609375	2206.2315004298
0.384979248046875	0.008258056640625	2206.32000142958
0.389404296875	0.008270263671875	2206.40850242935
0.393829345703125	0.008282470703125	2206.49700342913
0.39825439453125	0.0082916259765625	2206.58550442891
0.402679443359375	0.00830078125	2206.67400542868
0.4071044921875	0.0083099365234375	2206.76250642846
0.411529541015625	0.0083160400390625	2206.85100742824
0.41595458984375	0.008319091796875	2206.93950842801
0.420379638671875	0.0083251953125	2207.02800942779
0.4248046875	0.0083282470703125	2207.11651042757
0.429229736328125	0.008331298828125	2207.20501142734
0.43365478515625	0.008331298828125	2207.29351242712
0.438079833984375	0.0083343505859375	2207.3820134269
0.4425048828125	0.0083343505859375	2207.47051442667
0.446929931640625	0.008331298828125	2207.55901542645
0.45135498046875	0.0083282470703125	2207.64751642623
0.455780029296875	0.0083251953125	2207.736017426
0.460205078125	0.008319091796875	2207.82451842578
0.464630126953125	0.008319091796875	2207.91301942556
0.46905517578125	0.00831298828125	2208.00152042533
0.473480224609375	0.008306884765625	2208.09002142511
0.4779052734375	0.0083038330078125	2208.17852242489
0.482330322265625	0.00830078125	2208.26702342466
0.48675537109375	0.008294677734375	2208.35552442444
0.491180419921875	0.0082855224609375	2208.44402542421
0.49560546875	0.0082794189453125	2208.53252642399
0.500030517578125	0.008270263671875	2208.62102742377
0.50445556640625	0.00826416015625	2208.70952842354
0.508880615234375	0.0082550048828125	2208.79802942332
0.5133056640625	0.0082427978515625	2208.8865304231
0.517730712890625	0.0082366943359375	2208.97503142287
0.52215576171875	0.0082244873046875	2209.06353242265
0.526580810546875	0.0082183837890625	2209.15203342243
0.531005859375	0.008209228515625	2209.2405344222
0.535430908203125	0.008197021484375	2209.32903542198
0.53985595703125	0.0081878662109375	2209.41753642176
0.544281005859375	0.0081756591796875	2209.50603742153
0.5487060546875	0.00816650390625	2209.59453842131
0.553131103515625	0.008154296875	2209.68303942109
0.55755615234375	0.0081451416015625	2209.77154042086
0.561981201171875	0.0081329345703125	2209.86004142064
0.56640625	0.008123779296875	2209.94854242042
0.570831298828125	0.008111572265625	2210.03704342019
0.57525634765625	0.008099365234375	2210.12554441997
0.579681396484375	0.0080902099609375	2210.21404541975
0.5841064453125	0.0080810546875	2210.30254641952
0.588531494140625	0.0080657958984375	2210.3910474193
0.59295654296875	0.008056640625	2210.47954841908
0.597381591796875	0.00804443359375	2210.56804941885
0.601806640625	0.0080322265625	2210.65655041863
0.606231689453125	0.00802001953125	2210.74505141841
0.61065673828125	0.0080108642578125	2210.83355241818
0.615081787109375	0.0079986572265625	2210.92205341796
0.6195068359375	0.007989501953125	2211.01055441773
0.623931884765625	0.007977294921875	2211.09905541751
0.62835693359375	0.0079681396484375	2211.18755641729
0.632781982421875	0.0079559326171875	2211.27605741706
0.63720703125	0.00794677734375	2211.36455841684
0.641632080078125	0.0079376220703125	2211.45305941662
0.64605712890625	0.0079254150390625	2211.54156041639
0.650482177734375	0.007916259765625	2211.63006141617
0.6549072265625	0.0079071044921875	2211.71856241595
0.659332275390625	0.0078948974609375	2211.80706341572
0.66375732421875	0.0078857421875	2211.8955644155
0.668182373046875	0.0078765869140625	2211.98406541528
0.672607421875	0.0078643798828125	2212.07256641505
0.677032470703125	0.007855224609375	2212.16106741483
0.68145751953125	0.00784912109375	2212.24956841461
0.685882568359375	0.0078399658203125	2212.33806941438
0.6903076171875	0.007830810546875	2212.42657041416
0.694732666015625	0.0078216552734375	2212.51507141394
0.69915771484375	0.0078125	2212.60357241371
0.703582763671875	0.0078033447265625	2212.69207341349
0.7080078125	0.007794189453125	2212.78057441327
0.712432861328125	0.0077880859375	2212.86907541304
0.71685791015625	0.0077789306640625	2212.95757641282
0.721282958984375	0.0077728271484375	2213.0460774126
0.7257080078125	0.0077667236328125	2213.13457841237
0.730133056640625	0.0077606201171875	2213.22307941215
0.73455810546875	0.0077545166015625	2213.31158041193
0.738983154296875	0.007745361328125	2213.4000814117
0.743408203125	0.0077423095703125	2213.48858241148
0.747833251953125	0.0077392578125	2213.57708341125
0.75225830078125	0.007733154296875	2213.66558441103
0.756683349609375	0.0077301025390625	2213.75408541081
0.7611083984375	0.0077239990234375	2213.84258641058
0.765533447265625	0.007720947265625	2213.93108741036
0.76995849609375	0.0077178955078125	2214.01958841014
0.774383544921875	0.00771484375	2214.10808940991
0.77880859375	0.0077117919921875	2214.19659040969
0.783233642578125	0.0077117919921875	2214.28509140947
0.78765869140625	0.0077117919921875	2214.37359240924
0.792083740234375	0.0077117919921875	2214.46209340902
0.7965087890625	0.0077117919921875	2214.5505944088
0.800933837890625	0.00771484375	2214.63909540857
0.80535888671875	0.00771484375	2214.72759640835
0.809783935546875	0.0077178955078125	2214.81609740813
0.814208984375	0.007720947265625	2214.9045984079
0.818634033203125	0.0077239990234375	2214.99309940768
0.82305908203125	0.0077301025390625	2215.08160040746
0.827484130859375	0.007733154296875	2215.17010140723
0.8319091796875	0.0077392578125	2215.25860240701
0.836334228515625	0.007745361328125	2215.34710340679
0.84075927734375	0.00775146484375	2215.43560440656
0.845184326171875	0.0077606201171875	2215.52410540634
0.849609375	0.007769775390625	2215.61260640612
0.854034423828125	0.0077789306640625	2215.70110740589
0.85845947265625	0.0077880859375	2215.78960840567
0.862884521484375	0.00780029296875	2215.87810940545
0.8673095703125	0.0078094482421875	2215.96661040522
0.871734619140625	0.0078216552734375	2216.055111405
0.87615966796875	0.0078369140625	2216.14361240478
0.880584716796875	0.00784912109375	2216.23211340455
0.885009765625	0.007867431640625	2216.32061440433
0.889434814453125	0.0078826904296875	2216.4091154041
0.89385986328125	0.0079010009765625	2216.49761640388
0.898284912109375	0.0079193115234375	2216.58611740366
0.9027099609375	0.007940673828125	2216.67461840343
0.907135009765625	0.0079620361328125	2216.76311940321
0.91156005859375	0.0079833984375	2216.85162040299
0.915985107421875	0.0080108642578125	2216.94012140276
0.92041015625	0.0080352783203125	2217.02862240254
0.924835205078125	0.0080596923828125	2217.11712340232
0.92926025390625	0.0080902099609375	2217.20562440209
0.933685302734375	0.0081207275390625	2217.29412540187
0.9381103515625	0.0081512451171875	2217.38262640165
0.942535400390625	0.008184814453125	2217.47112740142
0.94696044921875	0.0082183837890625	2217.5596284012
0.951385498046875	0.0082550048828125	2217.64812940098
0.955810546875	0.0082916259765625	2217.73663040075
0.960235595703125	0.0083282470703125	2217.82513140053
0.96466064453125	0.0083709716796875	2217.91363240031
0.969085693359375	0.00841064453125	2218.00213340008
0.9735107421875	0.00845947265625	2218.09063439986
0.977935791015625	0.008502197265625	2218.17913539964
0.98236083984375	0.008551025390625	2218.26763639941
0.986785888671875	0.008599853515625	2218.35613739919
0.9912109375	0.008648681640625	2218.44463839897
0.995635986328125	0.0087066650390625	2218.53313939874
1.00006103515625	0.0087615966796875	2218.62164039852
0.995635986328125	0.0080963134765625	2218.7101413983
0.9912109375	0.00748291015625	2218.79864239807
0.986785888671875	0.006903076171875	2218.88714339785
0.98236083984375	0.0063507080078125	2218.97564439762
0.977935791015625	0.0058258056640625	2219.0641453974
0.9735107421875	0.005328369140625	2219.15264639718
0.969085693359375	0.00485321044921875	2219.24114739695
0.96466064453125	0.0043963623046875	2219.32964839673
0.960235595703125	0.0039599609375	2219.41814939651
0.955810546875	0.003541259765625	2219.50665039628
0.951385498046875	0.0031402587890625	2219.59515139606
0.94696044921875	0.00275604248046875	2219.68365239584
0.942535400390625	0.002384033203125	2219.77215339561
0.9381103515625	0.00202667236328125	2219.86065439539
0.933685302734375	0.00167938232421875	2219.94915539517
0.92926025390625	0.00134857177734375	2220.03765639494
0.924835205078125	0.0010296630859375	2220.12615739472
0.92041015625	0.00072174072265625	2220.2146583945
0.915985107421875	0.00042547607421875	2220.30315939427
0.91156005859375	0.00013958740234375	2220.39166039405
0.907135009765625	-0.00013580322265625	2220.48016139383
0.9027099609375	-0.000401214599609375	2220.5686623936
0.898284912109375	-0.00065673828125	2220.65716339338
0.89385986328125	-0.00090301513671875	2220.74566439316
0.889434814453125	-0.00114013671875	2220.83416539293
0.885009765625	-0.00136932373046875	2220.92266639271
0.880584716796875	-0.0015887451171875	2221.01116739249
0.87615966796875	-0.00180023193359375	2221.09966839226
0.871734619140625	-0.00200439453125	2221.18816939204
0.8673095703125	-0.00220001220703125	2221.27667039182
0.862884521484375	-0.0023876953125	2221.36517139159
0.85845947265625	-0.00256805419921875	2221.45367239137
0.854034423828125	-0.00274139404296875	2221.54217339115
0.849609375	-0.002908935546875	2221.63067439092
0.845184326171875	-0.00306884765625	2221.7191753907
0.84075927734375	-0.00322265625	2221.80767639047
0.836334228515625	-0.0033685302734375	2221.89617739025
0.8319091796875	-0.0035107421875	2221.98467839003
0.827484130859375	-0.00364532470703125	2222.0731793898
0.82305908203125	-0.0037738037109375	2222.16168038958
0.818634033203125	-0.00389801025390625	2222.25018138936
0.814208984375	-0.00401641845703125	2222.33868238913
0.809783935546875	-0.0041290283203125	2222.42718338891
0.80535888671875	-0.00423736572265625	2222.51568438869
0.800933837890625	-0.00434112548828125	2222.60418538846
0.7965087890625	-0.0044403076171875	2222.69268638824
0.792083740234375	-0.0045343017578125	2222.78118738802
0.78765869140625	-0.0046258544921875	2222.86968838779
0.783233642578125	-0.00471221923828125	2222.95818938757
0.77880859375	-0.00479339599609375	2223.04669038735
0.774383544921875	-0.0048712158203125	2223.13519138712
0.76995849609375	-0.00494598388671875	2223.2236923869
0.765533447265625	-0.0050201416015625	2223.31219338668
0.7611083984375	-0.00508758544921875	2223.40069438645
0.756683349609375	-0.005155029296875	2223.48919538623
0.75225830078125	-0.0052203369140625	2223.57769638601
0.747833251953125	-0.0052801513671875	2223.66619738578
0.743408203125	-0.005338134765625	2223.75469838556
0.738983154296875	-0.00539337158203125	2223.84319938534
0.73455810546875	-0.0054461669921875	2223.93170038511
0.730133056640625	-0.005499267578125	2224.02020138489
0.7257080078125	-0.005548095703125	2224.10870238467
0.721282958984375	-0.00559661865234375	2224.19720338444
0.71685791015625	-0.00564422607421875	2224.28570438422
0.712432861328125	-0.005687255859375	2224.374205384
0.7080078125	-0.0057293701171875	2224.46270638377
0.703582763671875	-0.00577178955078125	2224.55120738355
0.69915771484375	-0.00581207275390625	2224.63970838332
0.694732666015625	-0.00585235595703125	2224.7282093831
0.6903076171875	-0.00589111328125	2224.81671038288
0.685882568359375	-0.0059259033203125	2224.90521138265
0.68145751953125	-0.0059619140625	2224.99371238243
0.677032470703125	-0.00599884033203125	2225.08221338221
0.672607421875	-0.00603271484375	2225.17071438198
0.668182373046875	-0.0060455322265625	2225.25921538176
0.66375732421875	-0.0060791015625	2225.34771638154
0.659332275390625	-0.006109619140625	2225.43621738131
0.6549072265625	-0.00614013671875	2225.52471838109
0.650482177734375	-0.0061737060546875	2225.61321938087
0.64605712890625	-0.0062042236328125	2225.70172038064
0.641632080078125	-0.0062347412109375	2225.79022138042
0.63720703125	-0.00626220703125	2225.8787223802
0.632781982421875	-0.0062896728515625	2225.96722337997
0.62835693359375	-0.0063201904296875	2226.05572437975
0.623931884765625	-0.0063507080078125	2226.14422537953
0.6195068359375	-0.006378173828125	2226.2327263793
0.615081787109375	-0.0064056396484375	2226.32122737908
0.61065673828125	-0.00643310546875	2226.40972837886
0.606231689453125	-0.00645751953125	2226.49822937863
0.601806640625	-0.0064849853515625	2226.58673037841
0.597381591796875	-0.006512451171875	2226.67523137819
0.59295654296875	-0.0065399169921875	2226.76373237796
0.588531494140625	-0.0065673828125	2226.85223337774
0.5841064453125	-0.006591796875	2226.94073437752
0.579681396484375	-0.0066162109375	2227.02923537729
0.57525634765625	-0.0066436767578125	2227.11773637707
0.570831298828125	-0.0066680908203125	2227.20623737684
0.56640625	-0.0066925048828125	2227.29473837662
0.561981201171875	-0.0067169189453125	2227.3832393764
0.55755615234375	-0.0067413330078125	2227.47174037617
0.553131103515625	-0.006768798828125	2227.56024137595
0.5487060546875	-0.006793212890625	2227.64874237573
0.544281005859375	-0.006817626953125	2227.7372433755
0.53985595703125	-0.006842041015625	2227.82574437528
0.535430908203125	-0.006866455078125	2227.91424537506
0.531005859375	-0.0068878173828125	2228.00274637483
0.526580810546875	-0.006915283203125	2228.09124737461
0.52215576171875	-0.006939697265625	2228.17974837439
0.517730712890625	-0.006964111328125	2228.26824937416
0.5133056640625	-0.006988525390625	2228.35675037394
0.508880615234375	-0.007012939453125	2228.44525137372
0.50445556640625	-0.0070343017578125	2228.53375237349
0.500030517578125	-0.0070587158203125	2228.62225337327
0.49560546875	-0.007080078125	2228.71075437305
0.491180419921875	-0.0071044921875	2228.79925537282
0.48675537109375	-0.00712890625	2228.8877563726
0.482330322265625	-0.0071533203125	2228.97625737238
0.4779052734375	-0.0071746826171875	2229.06475837215
0.473480224609375	-0.0071990966796875	2229.15325937193
0.46905517578125	-0.0072235107421875	2229.24176037171
0.464630126953125	-0.0072479248046875	2229.33026137148
0.460205078125	-0.0072723388671875	2229.41876237126
0.455780029296875	-0.0072967529296875	2229.50726337104
0.45135498046875	-0.0073211669921875	2229.59576437081
0.446929931640625	-0.0073455810546875	2229.68426537059
0.4425048828125	-0.0073699951171875	2229.77276637036
0.438079833984375	-0.0073944091796875	2229.86126737014
0.43365478515625	-0.0074127197265625	2229.94976836992
0.429229736328125	-0.0074371337890625	2230.03826936969
0.4248046875	-0.0074615478515625	2230.12677036947
0.420379638671875	-0.0074859619140625	2230.21527136925
0.41595458984375	-0.0075103759765625	2230.30377236902
0.411529541015625	-0.0075347900390625	2230.3922733688
0.4071044921875	-0.0075592041015625	2230.48077436858
0.402679443359375	-0.0075836181640625	2230.56927536835
0.39825439453125	-0.0076080322265625	2230.65777636813
0.393829345703125	-0.0076324462890625	2230.74627736791
0.389404296875	-0.00765380859375	2230.83477836768
0.384979248046875	-0.00767822265625	2230.92327936746
0.38055419921875	-0.00770263671875	2231.01178036724
0.376129150390625	-0.00772705078125	2231.10028136701
0.3717041015625	-0.00775146484375	2231.18878236679
0.367279052734375	-0.0077789306640625	2231.27728336657
0.36285400390625	-0.00780029296875	2231.36578436634
0.358428955078125	-0.0078216552734375	2231.45428536612
0.35400390625	-0.0078460693359375	2231.5427863659
0.349578857421875	-0.007867431640625	2231.63128736567
0.34515380859375	-0.0078948974609375	2231.71978836545
0.340728759765625	-0.0079193115234375	2231.80828936523
0.3363037109375	-0.0079437255859375	2231.896790365
0.331878662109375	-0.0079681396484375	2231.98529136478
0.32745361328125	-0.0079925537109375	2232.07379236456
0.323028564453125	-0.00802001953125	2232.16229336433
0.318603515625	-0.00804443359375	2232.25079436411
0.314178466796875	-0.00806884765625	2232.33929536388
0.30975341796875	-0.0080963134765625	2232.42779636366
0.305328369140625	-0.0081207275390625	2232.51629736344
0.3009033203125	-0.0081451416015625	2232.60479836321
0.296478271484375	-0.0081695556640625	2232.69329936299
0.29205322265625	-0.0081939697265625	2232.78180036277
0.287628173828125	-0.008221435546875	2232.87030136254
0.283203125	-0.008245849609375	2232.95880236232
0.278778076171875	-0.008270263671875	2233.0473033621
0.27435302734375	-0.008294677734375	2233.13580436187
0.269927978515625	-0.008319091796875	2233.22430536165
0.2655029296875	-0.008343505859375	2233.31280636143
0.261077880859375	-0.0083709716796875	2233.4013073612
0.25665283203125	-0.0083984375	2233.48980836098
0.252227783203125	-0.0084228515625	2233.57830936076
0.247802734375	-0.008447265625	2233.66681036053
0.243377685546875	-0.0084716796875	2233.75531136031
0.23895263671875	-0.0084991455078125	2233.84381236009
0.234527587890625	-0.008526611328125	2233.93231335986
0.2301025390625	-0.008551025390625	2234.02081435964
0.225677490234375	-0.0085784912109375	2234.10931535942
0.22125244140625	-0.0086029052734375	2234.19781635919
0.216827392578125	-0.0086273193359375	2234.28631735897
0.21240234375	-0.00865478515625	2234.37481835875
0.207977294921875	-0.0086822509765625	2234.46331935852
0.20355224609375	-0.0087127685546875	2234.5518203583
0.199127197265625	-0.0087371826171875	2234.64032135808
0.1947021484375	-0.0087677001953125	2234.72882235785
0.190277099609375	-0.0087921142578125	2234.81732335763
0.18585205078125	-0.00882568359375	2234.90582435741
0.181427001953125	-0.0088531494140625	2234.99432535718
0.177001953125	-0.0088836669921875	2235.08282635696
0.172576904296875	-0.0089111328125	2235.17132735673
0.16815185546875	-0.0089385986328125	2235.25982835651
0.163726806640625	-0.0089691162109375	2235.34832935629
0.1593017578125	-0.0089996337890625	2235.43683035606
0.154876708984375	-0.0090301513671875	2235.52533135584
0.15045166015625	-0.0090606689453125	2235.61383235562
0.146026611328125	-0.0090911865234375	2235.70233335539
0.1416015625	-0.0091217041015625	2235.79083435517
0.137176513671875	-0.0091583251953125	2235.87933535495
0.13275146484375	-0.009185791015625	2235.96783635472
0.128326416015625	-0.0092193603515625	2236.0563373545
0.1239013671875	-0.0092498779296875	2236.14483835428
0.119476318359375	-0.009283447265625	2236.23333935405
0.11505126953125	-0.00931396484375	2236.32184035383
0.110626220703125	-0.0093475341796875	2236.41034135361
0.106201171875	-0.009381103515625	2236.49884235338
0.101776123046875	-0.0094146728515625	2236.58734335316
0.09735107421875	-0.0094512939453125	2236.67584435294
0.092926025390625	-0.0094879150390625	2236.76434535271
0.0885009765625	-0.0095245361328125	2236.85284635249
0.084075927734375	-0.0095611572265625	2236.94134735227
0.07965087890625	-0.009600830078125	2237.02984835204
0.075225830078125	-0.0096405029296875	2237.11834935182
0.07080078125	-0.0096771240234375	2237.2068503516
0.066375732421875	-0.009716796875	2237.29535135137
0.06195068359375	-0.00975341796875	2237.38385235115
0.057525634765625	-0.009796142578125	2237.47235335093
0.0531005859375	-0.0098358154296875	2237.5608543507
0.048675537109375	-0.0098785400390625	2237.64935535048
0.04425048828125	-0.009918212890625	2237.73785635026
0.039825439453125	-0.0099609375	2237.82635735003
0.035400390625	-0.0100067138671875	2237.91485834981
0.030975341796875	-0.0100494384765625	2238.00335934958
0.02655029296875	-0.01009521484375	2238.09186034936
0.022125244140625	-0.010137939453125	2238.18036134914
0.0177001953125	-0.0101806640625	2238.26886234891
0.013275146484375	-0.0102264404296875	2238.35736334869
0.00885009765625	-0.0102752685546875	2238.44586434847
0.004425048828125	-0.010321044921875	2238.53436534824
0	-0.010369873046875	2238.62286634802
0.004425048828125	-0.0096832275390625	2238.7113673478
0.00885009765625	-0.009033203125	2238.79986834757
0.013275146484375	-0.00841064453125	2238.88836934735
