Potential applied (V)	WE(1).Current (A)	Time (s)
0.004425048828125	-0.00081146240234375	1213.36086893656
0.00885009765625	-0.00042376708984375	1213.80337393544
0.013275146484375	-9.0911865234375E-05	1214.24587893432
0.0177001953125	0.000197479248046875	1214.68838393321
0.022125244140625	0.0004476318359375	1215.13088893209
0.02655029296875	0.00066650390625	1215.57339393097
0.030975341796875	0.000858154296875	1216.01589892985
0.035400390625	0.0010247802734375	1216.45840392874
0.039825439453125	0.0011712646484375	1216.90090892762
0.04425048828125	0.0013006591796875	1217.3434139265
0.048675537109375	0.0014129638671875	1217.78591892539
0.0531005859375	0.00151214599609375	1218.22842392427
0.057525634765625	0.00159881591796875	1218.67092892315
0.06195068359375	0.0016741943359375	1219.11343392203
0.066375732421875	0.00173980712890625	1219.55593892092
0.07080078125	0.0017950439453125	1219.9984439198
0.075225830078125	0.00184356689453125	1220.44094891868
0.07965087890625	0.0018853759765625	1220.88345391757
0.084075927734375	0.00192138671875	1221.32595891645
0.0885009765625	0.0019512939453125	1221.76846391533
0.092926025390625	0.00197723388671875	1222.21096891421
0.09735107421875	0.0019976806640625	1222.6534739131
0.101776123046875	0.00201507568359375	1223.09597891198
0.106201171875	0.00202880859375	1223.53848391086
0.110626220703125	0.0020391845703125	1223.98098890975
0.11505126953125	0.002047119140625	1224.42349390863
0.119476318359375	0.00205230712890625	1224.86599890751
0.1239013671875	0.0020556640625	1225.30850390639
0.128326416015625	0.00205718994140625	1225.75100890528
0.13275146484375	0.002056884765625	1226.19351390416
0.137176513671875	0.00205596923828125	1226.63601890304
0.1416015625	0.00205352783203125	1227.07852390192
0.146026611328125	0.0020501708984375	1227.52102890081
0.15045166015625	0.00204498291015625	1227.96353389969
0.154876708984375	0.00203857421875	1228.40603889857
0.1593017578125	0.00203125	1228.84854389746
0.163726806640625	0.002025146484375	1229.29104889634
0.16815185546875	0.0020166015625	1229.73355389522
0.172576904296875	0.002008056640625	1230.1760588941
0.177001953125	0.0019989013671875	1230.61856389299
0.181427001953125	0.00198974609375	1231.06106889187
0.18585205078125	0.001981201171875	1231.50357389075
0.190277099609375	0.0019720458984375	1231.94607888964
0.1947021484375	0.0019622802734375	1232.38858388852
0.199127197265625	0.00195159912109375	1232.8310888874
0.20355224609375	0.00194244384765625	1233.27359388628
0.207977294921875	0.00193450927734375	1233.71609888517
0.21240234375	0.001925048828125	1234.15860388405
0.216827392578125	0.0019140625	1234.60110888293
0.22125244140625	0.00190460205078125	1235.04361388181
0.225677490234375	0.00189453125	1235.4861188807
0.2301025390625	0.001884765625	1235.92862387958
0.234527587890625	0.00187530517578125	1236.37112887846
0.23895263671875	0.0018670654296875	1236.81363387735
0.243377685546875	0.00185760498046875	1237.25613887623
0.247802734375	0.00184906005859375	1237.69864387511
0.252227783203125	0.00183990478515625	1238.14114887399
0.25665283203125	0.001832275390625	1238.58365387288
0.261077880859375	0.00182373046875	1239.02615887176
0.2655029296875	0.001815185546875	1239.46866387064
0.269927978515625	0.00180755615234375	1239.91116886953
0.27435302734375	0.00179901123046875	1240.35367386841
0.278778076171875	0.0017919921875	1240.79617886729
0.283203125	0.0017840576171875	1241.23868386617
0.287628173828125	0.00177734375	1241.68118886506
0.29205322265625	0.00177093505859375	1242.12369386394
0.296478271484375	0.0017633056640625	1242.56619886282
0.3009033203125	0.0017572021484375	1243.0087038617
0.305328369140625	0.0017510986328125	1243.45120886059
0.30975341796875	0.0017449951171875	1243.89371385947
0.314178466796875	0.00174163818359375	1244.33621885835
0.318603515625	0.00173614501953125	1244.77872385724
0.323028564453125	0.00173004150390625	1245.22122885612
0.32745361328125	0.00172454833984375	1245.663733855
0.331878662109375	0.0017193603515625	1246.10623885388
0.3363037109375	0.0017144775390625	1246.54874385277
0.340728759765625	0.00170928955078125	1246.99124885165
0.34515380859375	0.001705322265625	1247.43375385053
0.349578857421875	0.001700439453125	1247.87625884942
0.35400390625	0.00169525146484375	1248.3187638483
0.358428955078125	0.0016912841796875	1248.76126884718
0.36285400390625	0.001688232421875	1249.20377384606
0.367279052734375	0.0016845703125	1249.64627884495
0.3717041015625	0.001680908203125	1250.08878384383
0.376129150390625	0.0016778564453125	1250.53128884271
0.38055419921875	0.00167510986328125	1250.97379384159
0.384979248046875	0.00167144775390625	1251.41629884048
0.389404296875	0.00166839599609375	1251.85880383936
0.393829345703125	0.00166473388671875	1252.30130883824
0.39825439453125	0.00166168212890625	1252.74381383713
0.402679443359375	0.0016583251953125	1253.18631883601
0.4071044921875	0.001656494140625	1253.62882383489
0.411529541015625	0.00165374755859375	1254.07132883377
0.41595458984375	0.00165130615234375	1254.51383383266
0.420379638671875	0.0016485595703125	1254.95633883154
0.4248046875	0.00164520263671875	1255.39884383042
0.429229736328125	0.00164306640625	1255.84134882931
0.43365478515625	0.00164154052734375	1256.28385382819
0.438079833984375	0.00163970947265625	1256.72635882707
0.4425048828125	0.0016375732421875	1257.16886382595
0.446929931640625	0.00163543701171875	1257.61136882484
0.45135498046875	0.0016339111328125	1258.05387382372
0.455780029296875	0.00163238525390625	1258.4963788226
0.460205078125	0.00163055419921875	1258.93888382148
0.464630126953125	0.001629638671875	1259.38138882037
0.46905517578125	0.0016265869140625	1259.82389381925
0.473480224609375	0.0016259765625	1260.26639881813
0.4779052734375	0.00162445068359375	1260.70890381702
0.482330322265625	0.00162322998046875	1261.1514088159
0.48675537109375	0.0016229248046875	1261.59391381478
0.491180419921875	0.00162109375	1262.03641881366
0.49560546875	0.00162017822265625	1262.47892381255
0.500030517578125	0.0016192626953125	1262.92142881143
0.50445556640625	0.00161895751953125	1263.36393381031
0.508880615234375	0.0016180419921875	1263.8064388092
0.5133056640625	0.0016180419921875	1264.24894380808
0.517730712890625	0.00161712646484375	1264.69144880696
0.52215576171875	0.0016168212890625	1265.13395380584
0.526580810546875	0.00161651611328125	1265.57645880473
0.531005859375	0.00161590576171875	1266.01896380361
0.535430908203125	0.0016156005859375	1266.46146880249
0.53985595703125	0.00161529541015625	1266.90397380137
0.544281005859375	0.0016156005859375	1267.34647880026
0.5487060546875	0.00161468505859375	1267.78898379914
0.553131103515625	0.001614990234375	1268.23148879802
0.55755615234375	0.00161529541015625	1268.67399379691
0.561981201171875	0.0016162109375	1269.11649879579
0.56640625	0.00161712646484375	1269.55900379467
0.570831298828125	0.00161712646484375	1270.00150879355
0.57525634765625	0.0016180419921875	1270.44401379244
0.579681396484375	0.0016192626953125	1270.88651879132
0.5841064453125	0.00162017822265625	1271.3290237902
0.588531494140625	0.0016204833984375	1271.77152878909
0.59295654296875	0.00162261962890625	1272.21403378797
0.597381591796875	0.0016241455078125	1272.65653878685
0.601806640625	0.00162689208984375	1273.09904378573
0.606231689453125	0.00162841796875	1273.54154878462
0.61065673828125	0.0016302490234375	1273.9840537835
0.615081787109375	0.0016326904296875	1274.42655878238
0.6195068359375	0.00163482666015625	1274.86906378127
0.623931884765625	0.0016363525390625	1275.31156878015
0.62835693359375	0.00164215087890625	1275.75407377903
0.632781982421875	0.001644287109375	1276.19657877791
0.63720703125	0.00164642333984375	1276.6390837768
0.641632080078125	0.00165008544921875	1277.08158877568
0.64605712890625	0.0016534423828125	1277.52409377456
0.650482177734375	0.001656494140625	1277.96659877344
0.6549072265625	0.00166015625	1278.40910377233
0.659332275390625	0.00166351318359375	1278.85160877121
0.66375732421875	0.00166656494140625	1279.29411377009
0.668182373046875	0.001671142578125	1279.73661876898
0.672607421875	0.0016754150390625	1280.17912376786
0.677032470703125	0.0016796875	1280.62162876674
0.68145751953125	0.0016845703125	1281.06413376562
0.685882568359375	0.00168914794921875	1281.50663876451
0.6903076171875	0.00169403076171875	1281.94914376339
0.694732666015625	0.00169952392578125	1282.39164876227
0.69915771484375	0.00170440673828125	1282.83415376115
0.703582763671875	0.00170928955078125	1283.27665876004
0.7080078125	0.001715087890625	1283.71916375892
0.712432861328125	0.00172119140625	1284.1616687578
0.71685791015625	0.0017279052734375	1284.60417375669
0.721282958984375	0.00173370361328125	1285.04667875557
0.7257080078125	0.00174072265625	1285.48918375445
0.730133056640625	0.00174713134765625	1285.93168875333
0.73455810546875	0.00175445556640625	1286.37419375222
0.738983154296875	0.0017626953125	1286.8166987511
0.743408203125	0.00176910400390625	1287.25920374998
0.747833251953125	0.001778564453125	1287.70170874887
0.75225830078125	0.0017864990234375	1288.14421374775
0.756683349609375	0.00179473876953125	1288.58671874663
0.7611083984375	0.00180419921875	1289.02922374551
0.765533447265625	0.00181304931640625	1289.4717287444
0.76995849609375	0.00182281494140625	1289.91423374328
0.774383544921875	0.00183319091796875	1290.35673874216
0.77880859375	0.0018438720703125	1290.79924374105
0.783233642578125	0.0018548583984375	1291.24174873993
0.78765869140625	0.00186614990234375	1291.68425373881
0.792083740234375	0.0018780517578125	1292.12675873769
0.7965087890625	0.001890869140625	1292.56926373658
0.800933837890625	0.001903076171875	1293.01176873546
0.80535888671875	0.00191619873046875	1293.45427373434
0.809783935546875	0.001929931640625	1293.89677873322
0.814208984375	0.00194427490234375	1294.33928373211
0.818634033203125	0.0019598388671875	1294.78178873099
0.82305908203125	0.0019744873046875	1295.22429372987
0.827484130859375	0.001990966796875	1295.66679872876
0.8319091796875	0.0020074462890625	1296.10930372764
0.836334228515625	0.002025146484375	1296.55180872652
0.84075927734375	0.002042236328125	1296.9943137254
0.845184326171875	0.002061767578125	1297.43681872429
0.849609375	0.00208160400390625	1297.87932372317
0.854034423828125	0.00210205078125	1298.32182872205
0.85845947265625	0.002122802734375	1298.76433372094
0.862884521484375	0.0021441650390625	1299.20683871982
0.8673095703125	0.00216705322265625	1299.6493437187
0.871734619140625	0.0021905517578125	1300.09184871758
0.87615966796875	0.002215576171875	1300.53435371647
0.880584716796875	0.0022412109375	1300.97685871535
0.885009765625	0.00226776123046875	1301.41936371423
0.889434814453125	0.00229583740234375	1301.86186871311
0.89385986328125	0.00232421875	1302.304373712
0.898284912109375	0.00235321044921875	1302.74687871088
0.9027099609375	0.00238250732421875	1303.18938370976
0.907135009765625	0.0024151611328125	1303.63188870865
0.91156005859375	0.0024468994140625	1304.07439370753
0.915985107421875	0.0024810791015625	1304.51689870641
0.92041015625	0.0025164794921875	1304.95940370529
0.924835205078125	0.00255279541015625	1305.40190870418
0.92926025390625	0.0025921630859375	1305.84441370306
0.933685302734375	0.0026318359375	1306.28691870194
0.9381103515625	0.00267547607421875	1306.72942370083
0.942535400390625	0.0027178955078125	1307.17192869971
0.94696044921875	0.002762451171875	1307.61443369859
0.951385498046875	0.00280975341796875	1308.05693869747
0.955810546875	0.00285888671875	1308.49944369636
0.960235595703125	0.00291046142578125	1308.94194869524
0.96466064453125	0.0029638671875	1309.38445369412
0.969085693359375	0.00301910400390625	1309.826958693
0.9735107421875	0.0030780029296875	1310.26946369189
0.977935791015625	0.0031396484375	1310.71196869077
0.98236083984375	0.0032049560546875	1311.15447368965
0.986785888671875	0.00327362060546875	1311.59697868854
0.9912109375	0.0033447265625	1312.03948368742
0.995635986328125	0.003421630859375	1312.4819886863
1.00006103515625	0.00350250244140625	1312.92449368518
0.995635986328125	0.0029791259765625	1313.36699868407
0.9912109375	0.002547607421875	1313.80950368295
0.986785888671875	0.00217742919921875	1314.25200868183
0.98236083984375	0.00185455322265625	1314.69451368072
0.977935791015625	0.00156768798828125	1315.1370186796
0.9735107421875	0.0013116455078125	1315.57952367848
0.969085693359375	0.0010791015625	1316.02202867736
0.96466064453125	0.000867919921875	1316.46453367625
0.960235595703125	0.000675048828125	1316.90703867513
0.955810546875	0.00049957275390625	1317.34954367401
0.951385498046875	0.000339141845703125	1317.79204867289
0.94696044921875	0.000192657470703125	1318.23455367178
0.942535400390625	5.8502197265625E-05	1318.67705867066
0.9381103515625	-6.4422607421875E-05	1319.11956366954
0.933685302734375	-0.00017852783203125	1319.56206866843
0.92926025390625	-0.000280731201171875	1320.00457366731
0.924835205078125	-0.0003736572265625	1320.44707866619
0.92041015625	-0.000458709716796875	1320.88958366507
0.915985107421875	-0.00053570556640625	1321.33208866396
0.91156005859375	-0.000606292724609375	1321.77459366284
0.907135009765625	-0.00067047119140625	1322.21709866172
0.9027099609375	-0.000728759765625	1322.65960366061
0.898284912109375	-0.00078155517578125	1323.10210865949
0.89385986328125	-0.00082977294921875	1323.54461365837
0.889434814453125	-0.0008734130859375	1323.98711865725
0.885009765625	-0.00091339111328125	1324.42962365614
0.880584716796875	-0.0009490966796875	1324.87212865502
0.87615966796875	-0.000982666015625	1325.3146336539
0.871734619140625	-0.0010137939453125	1325.75713865278
0.8673095703125	-0.00104095458984375	1326.19964365167
0.862884521484375	-0.00106658935546875	1326.64214865055
0.85845947265625	-0.0010888671875	1327.08465364943
0.854034423828125	-0.00110992431640625	1327.52715864832
0.849609375	-0.00112945556640625	1327.9696636472
0.845184326171875	-0.00114776611328125	1328.41216864608
0.84075927734375	-0.00116455078125	1328.85467364496
0.836334228515625	-0.00118072509765625	1329.29717864385
0.8319091796875	-0.001195068359375	1329.73968364273
0.827484130859375	-0.00120819091796875	1330.18218864161
0.82305908203125	-0.001220703125	1330.6246936405
0.818634033203125	-0.00123260498046875	1331.06719863938
0.814208984375	-0.001243896484375	1331.50970363826
0.809783935546875	-0.00125396728515625	1331.95220863714
0.80535888671875	-0.001263427734375	1332.39471363603
0.800933837890625	-0.00127349853515625	1332.83721863491
0.7965087890625	-0.0012823486328125	1333.27972363379
0.792083740234375	-0.001290283203125	1333.72222863268
0.78765869140625	-0.001298828125	1334.16473363156
0.783233642578125	-0.00130645751953125	1334.60723863044
0.77880859375	-0.0013134765625	1335.04974362932
0.774383544921875	-0.00132110595703125	1335.49224862821
0.76995849609375	-0.0013275146484375	1335.93475362709
0.765533447265625	-0.00133453369140625	1336.37725862597
0.7611083984375	-0.00134185791015625	1336.81976362485
0.756683349609375	-0.0013482666015625	1337.26226862374
0.75225830078125	-0.00135406494140625	1337.70477362262
0.747833251953125	-0.0013604736328125	1338.1472786215
0.743408203125	-0.001365966796875	1338.58978362039
0.738983154296875	-0.001370849609375	1339.03228861927
0.73455810546875	-0.00137725830078125	1339.47479361815
0.730133056640625	-0.001383056640625	1339.91729861703
0.7257080078125	-0.0013885498046875	1340.35980361592
0.721282958984375	-0.0013934326171875	1340.8023086148
0.71685791015625	-0.00139923095703125	1341.24481361368
0.712432861328125	-0.0014044189453125	1341.68731861257
0.7080078125	-0.0014093017578125	1342.12982361145
0.703582763671875	-0.00141448974609375	1342.57232861033
0.69915771484375	-0.0014190673828125	1343.01483360921
0.694732666015625	-0.001424560546875	1343.4573386081
0.6903076171875	-0.00143035888671875	1343.89984360698
0.685882568359375	-0.00143524169921875	1344.34234860586
0.68145751953125	-0.00144073486328125	1344.78485360474
0.677032470703125	-0.0014453125	1345.22735860363
0.672607421875	-0.0014501953125	1345.66986360251
0.668182373046875	-0.00145538330078125	1346.11236860139
0.66375732421875	-0.00146026611328125	1346.55487360028
0.659332275390625	-0.00146636962890625	1346.99737859916
0.6549072265625	-0.00147064208984375	1347.43988359804
0.650482177734375	-0.00147552490234375	1347.88238859692
0.64605712890625	-0.0014801025390625	1348.32489359581
0.641632080078125	-0.00148590087890625	1348.76739859469
0.63720703125	-0.0014910888671875	1349.20990359357
0.632781982421875	-0.0014959716796875	1349.65240859246
0.62835693359375	-0.0015008544921875	1350.09491359134
0.623931884765625	-0.0015081787109375	1350.53741859022
0.6195068359375	-0.0015130615234375	1350.9799235891
0.615081787109375	-0.0015179443359375	1351.42242858799
0.61065673828125	-0.00152252197265625	1351.86493358687
0.606231689453125	-0.00152679443359375	1352.30743858575
0.601806640625	-0.001531982421875	1352.74994358463
0.597381591796875	-0.00153717041015625	1353.19244858352
0.59295654296875	-0.00154144287109375	1353.6349535824
0.588531494140625	-0.001546630859375	1354.07745858128
0.5841064453125	-0.0015496826171875	1354.51996358017
0.579681396484375	-0.00155548095703125	1354.96246857905
0.57525634765625	-0.00156097412109375	1355.40497357793
0.570831298828125	-0.00156524658203125	1355.84747857681
0.56640625	-0.001571044921875	1356.2899835757
0.561981201171875	-0.001575927734375	1356.73248857458
0.55755615234375	-0.00158172607421875	1357.17499357346
0.553131103515625	-0.00158660888671875	1357.61749857235
0.5487060546875	-0.00159210205078125	1358.06000357123
0.544281005859375	-0.00159637451171875	1358.50250857011
0.53985595703125	-0.0016021728515625	1358.94501356899
0.535430908203125	-0.0016070556640625	1359.38751856788
0.531005859375	-0.00161224365234375	1359.83002356676
0.526580810546875	-0.00161773681640625	1360.27252856564
0.52215576171875	-0.00162353515625	1360.71503356452
0.517730712890625	-0.001629638671875	1361.15753856341
0.5133056640625	-0.00163482666015625	1361.60004356229
0.508880615234375	-0.00164031982421875	1362.04254856117
0.50445556640625	-0.00164459228515625	1362.48505356006
0.500030517578125	-0.0016510009765625	1362.92755855894
0.49560546875	-0.00165679931640625	1363.37006355782
0.491180419921875	-0.0016619873046875	1363.8125685567
0.48675537109375	-0.00166778564453125	1364.25507355559
0.482330322265625	-0.00167327880859375	1364.69757855447
0.4779052734375	-0.001678466796875	1365.14008355335
0.473480224609375	-0.0016839599609375	1365.58258855224
0.46905517578125	-0.001689453125	1366.02509355112
0.464630126953125	-0.0016949462890625	1366.46759855
0.460205078125	-0.001700439453125	1366.91010354888
0.455780029296875	-0.0017059326171875	1367.35260854777
0.45135498046875	-0.0017120361328125	1367.79511354665
0.446929931640625	-0.00171722412109375	1368.23761854553
0.4425048828125	-0.00172271728515625	1368.68012354441
0.438079833984375	-0.00172821044921875	1369.1226285433
0.43365478515625	-0.00173370361328125	1369.56513354218
0.429229736328125	-0.001739501953125	1370.00763854106
0.4248046875	-0.00174530029296875	1370.45014353995
0.420379638671875	-0.0017510986328125	1370.89264853883
0.41595458984375	-0.0017559814453125	1371.33515353771
0.411529541015625	-0.0017620849609375	1371.77765853659
0.4071044921875	-0.001767578125	1372.22016353548
0.402679443359375	-0.0017724609375	1372.66266853436
0.39825439453125	-0.00177764892578125	1373.10517353324
0.393829345703125	-0.001783447265625	1373.54767853213
0.389404296875	-0.001788330078125	1373.99018353101
0.384979248046875	-0.0017938232421875	1374.43268852989
0.38055419921875	-0.00179901123046875	1374.87519352877
0.376129150390625	-0.00180511474609375	1375.31769852766
0.3717041015625	-0.00181060791015625	1375.76020352654
0.367279052734375	-0.00181549072265625	1376.20270852542
0.36285400390625	-0.00182098388671875	1376.6452135243
0.358428955078125	-0.00182708740234375	1377.08771852319
0.35400390625	-0.0018328857421875	1377.53022352207
0.349578857421875	-0.00183685302734375	1377.97272852095
0.34515380859375	-0.00184295654296875	1378.41523351984
0.340728759765625	-0.0018487548828125	1378.85773851872
0.3363037109375	-0.00185546875	1379.3002435176
0.331878662109375	-0.001861572265625	1379.74274851648
0.32745361328125	-0.0018682861328125	1380.18525351537
0.323028564453125	-0.00187347412109375	1380.62775851425
0.318603515625	-0.001878662109375	1381.07026351313
0.314178466796875	-0.00188568115234375	1381.51276851202
0.30975341796875	-0.00189422607421875	1381.9552735109
0.305328369140625	-0.00190032958984375	1382.39777850978
0.3009033203125	-0.00190582275390625	1382.84028350866
0.296478271484375	-0.00191253662109375	1383.28278850755
0.29205322265625	-0.00191864013671875	1383.72529350643
0.287628173828125	-0.0019256591796875	1384.16779850531
0.283203125	-0.001932373046875	1384.6103035042
0.278778076171875	-0.0019384765625	1385.05280850308
0.27435302734375	-0.00194549560546875	1385.49531350196
0.269927978515625	-0.00195098876953125	1385.93781850084
0.2655029296875	-0.001959228515625	1386.38032349973
0.261077880859375	-0.00196624755859375	1386.82282849861
0.25665283203125	-0.001973876953125	1387.26533349749
0.252227783203125	-0.001981201171875	1387.70783849637
0.247802734375	-0.00198974609375	1388.15034349526
0.243377685546875	-0.00199737548828125	1388.59284849414
0.23895263671875	-0.002005615234375	1389.03535349302
0.234527587890625	-0.00201324462890625	1389.47785849191
0.2301025390625	-0.002021484375	1389.92036349079
0.225677490234375	-0.002030029296875	1390.36286848967
0.22125244140625	-0.00203857421875	1390.80537348855
0.216827392578125	-0.0020477294921875	1391.24787848744
0.21240234375	-0.002056884765625	1391.69038348632
0.207977294921875	-0.00206634521484375	1392.1328884852
0.20355224609375	-0.0020758056640625	1392.57539348408
0.199127197265625	-0.0020855712890625	1393.01789848297
0.1947021484375	-0.00209564208984375	1393.46040348185
0.190277099609375	-0.00210479736328125	1393.90290848073
0.18585205078125	-0.002115478515625	1394.34541347962
0.181427001953125	-0.00212615966796875	1394.7879184785
0.177001953125	-0.002137451171875	1395.23042347738
0.172576904296875	-0.00214752197265625	1395.67292847626
0.16815185546875	-0.00215911865234375	1396.11543347515
0.163726806640625	-0.00217041015625	1396.55793847403
0.1593017578125	-0.0021826171875	1397.00044347291
0.154876708984375	-0.0021929931640625	1397.4429484718
0.15045166015625	-0.002205810546875	1397.88545347068
0.146026611328125	-0.00221771240234375	1398.32795846956
0.1416015625	-0.0022308349609375	1398.77046346844
0.137176513671875	-0.0022430419921875	1399.21296846733
0.13275146484375	-0.00225616455078125	1399.65547346621
0.128326416015625	-0.002269287109375	1400.09797846509
0.1239013671875	-0.00228271484375	1400.54048346398
0.119476318359375	-0.00229583740234375	1400.98298846286
0.11505126953125	-0.00230926513671875	1401.42549346174
0.110626220703125	-0.00232330322265625	1401.86799846062
0.106201171875	-0.002337646484375	1402.31050345951
0.101776123046875	-0.00235198974609375	1402.75300845839
0.09735107421875	-0.00236663818359375	1403.19551345727
0.092926025390625	-0.00238250732421875	1403.63801845615
0.0885009765625	-0.00239837646484375	1404.08052345504
0.084075927734375	-0.002413330078125	1404.52302845392
0.07965087890625	-0.002430419921875	1404.9655334528
0.075225830078125	-0.00244598388671875	1405.40803845169
0.07080078125	-0.00246246337890625	1405.85054345057
0.066375732421875	-0.00248016357421875	1406.29304844945
0.06195068359375	-0.00249755859375	1406.73555344833
0.057525634765625	-0.0025152587890625	1407.17805844722
0.0531005859375	-0.0025335693359375	1407.6205634461
0.048675537109375	-0.00255157470703125	1408.06306844498
0.04425048828125	-0.00257080078125	1408.50557344387
0.039825439453125	-0.00258941650390625	1408.94807844275
0.035400390625	-0.00260833740234375	1409.39058344163
0.030975341796875	-0.0026275634765625	1409.83308844051
0.02655029296875	-0.002647705078125	1410.2755934394
0.022125244140625	-0.00266815185546875	1410.71809843828
0.0177001953125	-0.0026873779296875	1411.16060343716
0.013275146484375	-0.00270904541015625	1411.60310843604
0.00885009765625	-0.00273101806640625	1412.04561343493
0.004425048828125	-0.00275146484375	1412.48811843381
0	-0.0027752685546875	1412.93062343269
0.004425048828125	-0.0021612548828125	1413.37312843158
0.00885009765625	-0.0016375732421875	1413.81563343046
0.013275146484375	-0.0011846923828125	1414.25813842934
0.0177001953125	-0.00078948974609375	1414.70064342822
0.022125244140625	-0.000444061279296875	1415.14314842711
0.02655029296875	-0.000140655517578125	1415.58565342599
0.030975341796875	0.000126739501953125	1416.02815842487
0.035400390625	0.0003623046875	1416.47066342376
0.039825439453125	0.000570068359375	1416.91316842264
0.04425048828125	0.00075408935546875	1417.35567342152
0.048675537109375	0.0009161376953125	1417.7981784204
0.0531005859375	0.00105987548828125	1418.24068341929
0.057525634765625	0.00118682861328125	1418.68318841817
0.06195068359375	0.001297607421875	1419.12569341705
0.066375732421875	0.00139495849609375	1419.56819841593
0.07080078125	0.0014801025390625	1420.01070341482
0.075225830078125	0.0015570068359375	1420.4532084137
0.07965087890625	0.0016229248046875	1420.89571341258
0.084075927734375	0.00168060302734375	1421.33821841147
0.0885009765625	0.00173095703125	1421.78072341035
0.092926025390625	0.0017755126953125	1422.22322840923
0.09735107421875	0.00181304931640625	1422.66573340811
0.101776123046875	0.00184539794921875	1423.108238407
0.106201171875	0.00187286376953125	1423.55074340588
0.110626220703125	0.00189544677734375	1423.99324840476
0.11505126953125	0.00191436767578125	1424.43575340365
0.119476318359375	0.0019293212890625	1424.87825840253
0.1239013671875	0.0019415283203125	1425.32076340141
0.128326416015625	0.0019512939453125	1425.76326840029
0.13275146484375	0.0019598388671875	1426.20577339918
0.137176513671875	0.00196563720703125	1426.64827839806
0.1416015625	0.00196868896484375	1427.09078339694
0.146026611328125	0.00196990966796875	1427.53328839582
0.15045166015625	0.001971435546875	1427.97579339471
0.154876708984375	0.0019708251953125	1428.41829839359
0.1593017578125	0.00196746826171875	1428.86080339247
0.163726806640625	0.00196441650390625	1429.30330839136
0.16815185546875	0.00196014404296875	1429.74581339024
0.172576904296875	0.00195526123046875	1430.18831838912
0.177001953125	0.00194976806640625	1430.630823388
0.181427001953125	0.001943359375	1431.07332838689
0.18585205078125	0.00193695068359375	1431.51583338577
0.190277099609375	0.0019305419921875	1431.95833838465
0.1947021484375	0.001922607421875	1432.40084338354
0.199127197265625	0.00191497802734375	1432.84334838242
0.20355224609375	0.00190673828125	1433.2858533813
0.207977294921875	0.0018988037109375	1433.72835838018
0.21240234375	0.00189117431640625	1434.17086337907
0.216827392578125	0.00188201904296875	1434.61336837795
0.22125244140625	0.0018731689453125	1435.05587337683
0.225677490234375	0.00186431884765625	1435.49837837571
0.2301025390625	0.0018560791015625	1435.9408833746
0.234527587890625	0.00184722900390625	1436.38338837348
0.23895263671875	0.00183929443359375	1436.82589337236
0.243377685546875	0.00183319091796875	1437.26839837125
0.247802734375	0.001824951171875	1437.71090337013
0.252227783203125	0.00181671142578125	1438.15340836901
0.25665283203125	0.00180877685546875	1438.59591336789
0.261077880859375	0.00180023193359375	1439.03841836678
0.2655029296875	0.00179229736328125	1439.48092336566
0.269927978515625	0.00178466796875	1439.92342836454
0.27435302734375	0.00177764892578125	1440.36593336343
0.278778076171875	0.0017706298828125	1440.80843836231
0.283203125	0.00176300048828125	1441.25094336119
0.287628173828125	0.00175689697265625	1441.69344836007
0.29205322265625	0.00175018310546875	1442.13595335896
0.296478271484375	0.0017431640625	1442.57845835784
0.3009033203125	0.00173675537109375	1443.02096335672
0.305328369140625	0.00173004150390625	1443.46346835561
0.30975341796875	0.0017242431640625	1443.90597335449
0.314178466796875	0.00172027587890625	1444.34847835337
0.318603515625	0.001715087890625	1444.79098335225
0.323028564453125	0.00170928955078125	1445.23348835114
0.32745361328125	0.00170379638671875	1445.67599335002
0.331878662109375	0.001697998046875	1446.1184983489
0.3363037109375	0.00169342041015625	1446.56100334778
0.340728759765625	0.001688232421875	1447.00350834667
0.34515380859375	0.00168365478515625	1447.44601334555
0.349578857421875	0.001678466796875	1447.88851834443
0.35400390625	0.00167205810546875	1448.33102334332
0.358428955078125	0.00166900634765625	1448.7735283422
0.36285400390625	0.00166473388671875	1449.21603334108
0.367279052734375	0.00166046142578125	1449.65853833996
0.3717041015625	0.00165771484375	1450.10104333885
0.376129150390625	0.00165435791015625	1450.54354833773
0.38055419921875	0.00165130615234375	1450.98605333661
0.384979248046875	0.0016473388671875	1451.4285583355
0.389404296875	0.00164459228515625	1451.87106333438
0.393829345703125	0.00163970947265625	1452.31356833326
0.39825439453125	0.0016375732421875	1452.75607333214
0.402679443359375	0.0016339111328125	1453.19857833103
0.4071044921875	0.001632080078125	1453.64108332991
0.411529541015625	0.00162872314453125	1454.08358832879
0.41595458984375	0.00162567138671875	1454.52609332767
0.420379638671875	0.00162322998046875	1454.96859832656
0.4248046875	0.00161956787109375	1455.41110332544
0.429229736328125	0.00161712646484375	1455.85360832432
0.43365478515625	0.00161407470703125	1456.29611332321
0.438079833984375	0.001612548828125	1456.73861832209
0.4425048828125	0.0016094970703125	1457.18112332097
0.446929931640625	0.00160736083984375	1457.62362831985
0.45135498046875	0.001605224609375	1458.06613331874
0.455780029296875	0.00160308837890625	1458.50863831762
0.460205078125	0.001600341796875	1458.9511433165
0.464630126953125	0.00159912109375	1459.39364831539
0.46905517578125	0.00159637451171875	1459.83615331427
0.473480224609375	0.00159515380859375	1460.27865831315
0.4779052734375	0.0015936279296875	1460.72116331203
0.482330322265625	0.0015924072265625	1461.16366831092
0.48675537109375	0.001591796875	1461.6061733098
0.491180419921875	0.0015899658203125	1462.04867830868
0.49560546875	0.001588134765625	1462.49118330756
0.500030517578125	0.0015875244140625	1462.93368830645
0.50445556640625	0.0015869140625	1463.37619330533
0.508880615234375	0.001585693359375	1463.81869830421
0.5133056640625	0.00158538818359375	1464.2612033031
0.517730712890625	0.0015838623046875	1464.70370830198
0.52215576171875	0.00158294677734375	1465.14621330086
0.526580810546875	0.0015826416015625	1465.58871829974
0.531005859375	0.00158203125	1466.03122329863
0.535430908203125	0.00158111572265625	1466.47372829751
0.53985595703125	0.00157989501953125	1466.91623329639
0.544281005859375	0.00158050537109375	1467.35873829528
0.5487060546875	0.00157958984375	1467.80124329416
0.553131103515625	0.00158050537109375	1468.24374829304
0.55755615234375	0.00158111572265625	1468.68625329192
0.561981201171875	0.001580810546875	1469.12875829081
0.56640625	0.00158050537109375	1469.57126328969
0.570831298828125	0.00158111572265625	1470.01376828857
0.57525634765625	0.00158203125	1470.45627328745
0.579681396484375	0.00158172607421875	1470.89877828634
0.5841064453125	0.001583251953125	1471.34128328522
0.588531494140625	0.0015826416015625	1471.7837882841
0.59295654296875	0.00158355712890625	1472.22629328299
0.597381591796875	0.001585693359375	1472.66879828187
0.601806640625	0.00158721923828125	1473.11130328075
0.606231689453125	0.00158843994140625	1473.55380827963
0.61065673828125	0.00159027099609375	1473.99631327852
0.615081787109375	0.001591796875	1474.4388182774
0.6195068359375	0.00159454345703125	1474.88132327628
0.623931884765625	0.00159637451171875	1475.32382827517
0.62835693359375	0.00160125732421875	1475.76633327405
0.632781982421875	0.001602783203125	1476.20883827293
0.63720703125	0.00160430908203125	1476.65134327181
0.641632080078125	0.0016070556640625	1477.0938482707
0.64605712890625	0.0016094970703125	1477.53635326958
0.650482177734375	0.0016119384765625	1477.97885826846
0.6549072265625	0.0016143798828125	1478.42136326734
0.659332275390625	0.001617431640625	1478.86386826623
0.66375732421875	0.00162078857421875	1479.30637326511
0.668182373046875	0.00162353515625	1479.74887826399
0.672607421875	0.0016278076171875	1480.19138326288
0.677032470703125	0.0016314697265625	1480.63388826176
0.68145751953125	0.00163482666015625	1481.07639326064
0.685882568359375	0.0016400146484375	1481.51889825952
0.6903076171875	0.001644287109375	1481.96140325841
0.694732666015625	0.00164825439453125	1482.40390825729
0.69915771484375	0.00165313720703125	1482.84641325617
0.703582763671875	0.0016571044921875	1483.28891825506
0.7080078125	0.0016619873046875	1483.73142325394
0.712432861328125	0.00166778564453125	1484.17392825282
0.71685791015625	0.00167266845703125	1484.6164332517
0.721282958984375	0.0016790771484375	1485.05893825059
0.7257080078125	0.0016845703125	1485.50144324947
0.730133056640625	0.00169036865234375	1485.94394824835
0.73455810546875	0.00169677734375	1486.38645324723
0.738983154296875	0.00170379638671875	1486.82895824612
0.743408203125	0.001708984375	1487.271463245
0.747833251953125	0.00171630859375	1487.71396824388
0.75225830078125	0.00172332763671875	1488.15647324277
0.756683349609375	0.00173187255859375	1488.59897824165
0.7611083984375	0.001739501953125	1489.04148324053
0.765533447265625	0.00174835205078125	1489.48398823941
0.76995849609375	0.0017572021484375	1489.9264932383
0.774383544921875	0.001766357421875	1490.36899823718
0.77880859375	0.00177581787109375	1490.81150323606
0.783233642578125	0.00178497314453125	1491.25400823495
0.78765869140625	0.001795654296875	1491.69651323383
0.792083740234375	0.0018060302734375	1492.13901823271
0.7965087890625	0.001817626953125	1492.58152323159
0.800933837890625	0.0018292236328125	1493.02402823048
0.80535888671875	0.0018414306640625	1493.46653322936
0.809783935546875	0.001854248046875	1493.90903822824
0.814208984375	0.0018670654296875	1494.35154322713
0.818634033203125	0.00188018798828125	1494.79404822601
0.82305908203125	0.00189483642578125	1495.23655322489
0.827484130859375	0.00190948486328125	1495.67905822377
0.8319091796875	0.00192535400390625	1496.12156322266
0.836334228515625	0.0019415283203125	1496.56406822154
0.84075927734375	0.001956787109375	1497.00657322042
0.845184326171875	0.0019757080078125	1497.4490782193
0.849609375	0.00199310302734375	1497.89158321819
0.854034423828125	0.00201202392578125	1498.33408821707
0.85845947265625	0.0020318603515625	1498.77659321595
0.862884521484375	0.00205169677734375	1499.21909821484
0.8673095703125	0.00207305908203125	1499.66160321372
0.871734619140625	0.0020947265625	1500.1041082126
0.87615966796875	0.002117919921875	1500.54661321148
0.880584716796875	0.00214263916015625	1500.98911821037
0.885009765625	0.0021673583984375	1501.43162320925
0.889434814453125	0.0021929931640625	1501.87412820813
0.89385986328125	0.00221954345703125	1502.31663320702
0.898284912109375	0.002247314453125	1502.7591382059
0.9027099609375	0.00227630615234375	1503.20164320478
0.907135009765625	0.00230682373046875	1503.64414820366
0.91156005859375	0.00233795166015625	1504.08665320255
0.915985107421875	0.00237091064453125	1504.52915820143
0.92041015625	0.00240447998046875	1504.97166320031
0.924835205078125	0.00243927001953125	1505.41416819919
0.92926025390625	0.00247711181640625	1505.85667319808
0.933685302734375	0.0025152587890625	1506.29917819696
0.9381103515625	0.00255767822265625	1506.74168319584
0.942535400390625	0.0025994873046875	1507.18418819473
0.94696044921875	0.0026434326171875	1507.62669319361
0.951385498046875	0.00268768310546875	1508.06919819249
0.955810546875	0.00273651123046875	1508.51170319137
0.960235595703125	0.00278839111328125	1508.95420819026
0.96466064453125	0.0028424072265625	1509.39671318914
0.969085693359375	0.00289825439453125	1509.83921818802
0.9735107421875	0.00295867919921875	1510.28172318691
0.977935791015625	0.00302032470703125	1510.72422818579
0.98236083984375	0.00308685302734375	1511.16673318467
0.986785888671875	0.0031573486328125	1511.60923818355
0.9912109375	0.003232421875	1512.05174318244
0.995635986328125	0.00331146240234375	1512.49424818132
1.00006103515625	0.00339447021484375	1512.9367531802
0.995635986328125	0.00287628173828125	1513.37925817908
0.9912109375	0.00244873046875	1513.82176317797
0.986785888671875	0.00208404541015625	1514.26426817685
0.98236083984375	0.00176544189453125	1514.70677317573
0.977935791015625	0.001484375	1515.14927817462
0.9735107421875	0.00123291015625	1515.5917831735
0.969085693359375	0.0010052490234375	1516.03428817238
0.96466064453125	0.00079864501953125	1516.47679317126
0.960235595703125	0.00061065673828125	1516.91929817015
0.955810546875	0.00043902587890625	1517.36180316903
0.951385498046875	0.000283203125	1517.80430816791
0.94696044921875	0.000140289306640625	1518.2468131668
0.942535400390625	9.82055664062501E-06	1518.68931816568
0.9381103515625	-0.000109039306640625	1519.13182316456
0.933685302734375	-0.00021978759765625	1519.57432816344
0.92926025390625	-0.00031842041015625	1520.01683316233
0.924835205078125	-0.000408355712890625	1520.45933816121
0.92041015625	-0.00049066162109375	1520.90184316009
0.915985107421875	-0.0005648193359375	1521.34434815897
0.91156005859375	-0.000632598876953125	1521.78685315786
0.907135009765625	-0.00069427490234375	1522.22935815674
0.9027099609375	-0.00075042724609375	1522.67186315562
0.898284912109375	-0.00079986572265625	1523.11436815451
0.89385986328125	-0.0008465576171875	1523.55687315339
0.889434814453125	-0.000888671875	1523.99937815227
0.885009765625	-0.000926513671875	1524.44188315115
0.880584716796875	-0.000960693359375	1524.88438815004
0.87615966796875	-0.00099212646484375	1525.32689314892
0.871734619140625	-0.00102081298828125	1525.7693981478
0.8673095703125	-0.00104736328125	1526.21190314669
0.862884521484375	-0.0010711669921875	1526.65440814557
0.85845947265625	-0.0010919189453125	1527.09691314445
0.854034423828125	-0.00111236572265625	1527.53941814333
0.849609375	-0.00113037109375	1527.98192314222
0.845184326171875	-0.0011474609375	1528.4244281411
0.84075927734375	-0.00116363525390625	1528.86693313998
0.836334228515625	-0.00117828369140625	1529.30943813886
0.8319091796875	-0.00119232177734375	1529.75194313775
0.827484130859375	-0.00120513916015625	1530.19444813663
0.82305908203125	-0.001217041015625	1530.63695313551
0.818634033203125	-0.00122772216796875	1531.0794581344
0.814208984375	-0.00123870849609375	1531.52196313328
0.809783935546875	-0.00124847412109375	1531.96446813216
0.80535888671875	-0.0012579345703125	1532.40697313104
0.800933837890625	-0.00126708984375	1532.84947812993
0.7965087890625	-0.00127532958984375	1533.29198312881
0.792083740234375	-0.0012835693359375	1533.73448812769
0.78765869140625	-0.00129150390625	1534.17699312658
0.783233642578125	-0.001298828125	1534.61949812546
0.77880859375	-0.001304931640625	1535.06200312434
0.774383544921875	-0.00131195068359375	1535.50450812322
0.76995849609375	-0.0013189697265625	1535.94701312211
0.765533447265625	-0.00132568359375	1536.38951812099
0.7611083984375	-0.00133209228515625	1536.83202311987
0.756683349609375	-0.00133880615234375	1537.27452811875
0.75225830078125	-0.00134429931640625	1537.71703311764
0.747833251953125	-0.00135009765625	1538.15953811652
0.743408203125	-0.00135589599609375	1538.6020431154
0.738983154296875	-0.00136016845703125	1539.04454811429
0.73455810546875	-0.00136627197265625	1539.48705311317
0.730133056640625	-0.00137176513671875	1539.92955811205
0.7257080078125	-0.001376953125	1540.37206311093
0.721282958984375	-0.00138275146484375	1540.81456810982
0.71685791015625	-0.0013885498046875	1541.2570731087
0.712432861328125	-0.0013934326171875	1541.69957810758
0.7080078125	-0.00139862060546875	1542.14208310647
0.703582763671875	-0.00140411376953125	1542.58458810535
0.69915771484375	-0.00140838623046875	1543.02709310423
0.694732666015625	-0.00141326904296875	1543.46959810311
0.6903076171875	-0.00141845703125	1543.912103102
0.685882568359375	-0.00142364501953125	1544.35460810088
0.68145751953125	-0.00142913818359375	1544.79711309976
0.677032470703125	-0.00143402099609375	1545.23961809864
0.672607421875	-0.0014385986328125	1545.68212309753
0.668182373046875	-0.0014434814453125	1546.12462809641
0.66375732421875	-0.001448974609375	1546.56713309529
0.659332275390625	-0.0014544677734375	1547.00963809418
0.6549072265625	-0.00145904541015625	1547.45214309306
0.650482177734375	-0.00146484375	1547.89464809194
0.64605712890625	-0.0014697265625	1548.33715309082
0.641632080078125	-0.00147430419921875	1548.77965808971
0.63720703125	-0.00147918701171875	1549.22216308859
0.632781982421875	-0.001484375	1549.66466808747
0.62835693359375	-0.0014886474609375	1550.10717308636
0.623931884765625	-0.00149658203125	1550.54967808524
0.6195068359375	-0.00150115966796875	1550.99218308412
0.615081787109375	-0.0015057373046875	1551.434688083
0.61065673828125	-0.00151092529296875	1551.87719308189
0.606231689453125	-0.00151519775390625	1552.31969808077
0.601806640625	-0.001519775390625	1552.76220307965
0.597381591796875	-0.0015240478515625	1553.20470807854
0.59295654296875	-0.0015289306640625	1553.64721307742
0.588531494140625	-0.001534423828125	1554.0897180763
0.5841064453125	-0.00153778076171875	1554.53222307518
0.579681396484375	-0.00154296875	1554.97472807407
0.57525634765625	-0.00154754638671875	1555.41723307295
0.570831298828125	-0.00155364990234375	1555.85973807183
0.56640625	-0.00155853271484375	1556.30224307071
0.561981201171875	-0.00156402587890625	1556.7447480696
0.55755615234375	-0.0015692138671875	1557.18725306848
0.553131103515625	-0.00157379150390625	1557.62975806736
0.5487060546875	-0.0015789794921875	1558.07226306625
0.544281005859375	-0.001583251953125	1558.51476806513
0.53985595703125	-0.00158905029296875	1558.95727306401
0.535430908203125	-0.00159423828125	1559.39977806289
0.531005859375	-0.00159942626953125	1559.84228306178
0.526580810546875	-0.001605224609375	1560.28478806066
0.52215576171875	-0.00161041259765625	1560.72729305954
0.517730712890625	-0.0016156005859375	1561.16979805843
0.5133056640625	-0.00162139892578125	1561.61230305731
0.508880615234375	-0.00162689208984375	1562.05480805619
0.50445556640625	-0.00163299560546875	1562.49731305507
0.500030517578125	-0.00163848876953125	1562.93981805396
0.49560546875	-0.00164306640625	1563.38232305284
0.491180419921875	-0.00164886474609375	1563.82482805172
0.48675537109375	-0.00165374755859375	1564.2673330506
0.482330322265625	-0.0016595458984375	1564.70983804949
0.4779052734375	-0.00166534423828125	1565.15234304837
0.473480224609375	-0.0016705322265625	1565.59484804725
0.46905517578125	-0.0016766357421875	1566.03735304614
0.464630126953125	-0.0016827392578125	1566.47985804502
0.460205078125	-0.0016876220703125	1566.9223630439
0.455780029296875	-0.0016937255859375	1567.36486804278
0.45135498046875	-0.0016986083984375	1567.80737304167
0.446929931640625	-0.0017047119140625	1568.24987804055
0.4425048828125	-0.00171051025390625	1568.69238303943
0.438079833984375	-0.00171539306640625	1569.13488803832
0.43365478515625	-0.0017205810546875	1569.5773930372
0.429229736328125	-0.00172607421875	1570.01989803608
0.4248046875	-0.00173126220703125	1570.46240303496
0.420379638671875	-0.001737060546875	1570.90490803385
0.41595458984375	-0.001741943359375	1571.34741303273
0.411529541015625	-0.00174774169921875	1571.78991803161
0.4071044921875	-0.00175262451171875	1572.23242303049
0.402679443359375	-0.0017584228515625	1572.67492802938
0.39825439453125	-0.00176361083984375	1573.11743302826
0.393829345703125	-0.0017694091796875	1573.55993802714
0.389404296875	-0.00177398681640625	1574.00244302603
0.384979248046875	-0.0017791748046875	1574.44494802491
0.38055419921875	-0.00178497314453125	1574.88745302379
0.376129150390625	-0.00179046630859375	1575.32995802267
0.3717041015625	-0.00179534912109375	1575.77246302156
0.367279052734375	-0.001800537109375	1576.21496802044
0.36285400390625	-0.00180572509765625	1576.65747301932
0.358428955078125	-0.0018121337890625	1577.09997801821
0.35400390625	-0.001817626953125	1577.54248301709
0.349578857421875	-0.00182220458984375	1577.98498801597
0.34515380859375	-0.00182769775390625	1578.42749301485
0.340728759765625	-0.00183349609375	1578.86999801374
0.3363037109375	-0.00183990478515625	1579.31250301262
0.331878662109375	-0.0018450927734375	1579.7550080115
0.32745361328125	-0.00185150146484375	1580.19751301038
0.323028564453125	-0.00185791015625	1580.64001800927
0.318603515625	-0.00186370849609375	1581.08252300815
0.314178466796875	-0.00186981201171875	1581.52502800703
0.30975341796875	-0.00187774658203125	1581.96753300592
0.305328369140625	-0.00188323974609375	1582.4100380048
0.3009033203125	-0.0018902587890625	1582.85254300368
0.296478271484375	-0.00189666748046875	1583.29504800256
0.29205322265625	-0.00190216064453125	1583.73755300145
0.287628173828125	-0.0019091796875	1584.18005800033
0.283203125	-0.001915283203125	1584.62256299921
0.278778076171875	-0.001922607421875	1585.0650679981
0.27435302734375	-0.0019293212890625	1585.50757299698
0.269927978515625	-0.00193572998046875	1585.95007799586
0.2655029296875	-0.00194366455078125	1586.39258299474
0.261077880859375	-0.0019512939453125	1586.83508799363
0.25665283203125	-0.00195831298828125	1587.27759299251
0.252227783203125	-0.00196563720703125	1587.72009799139
0.247802734375	-0.00197357177734375	1588.16260299027
0.243377685546875	-0.001981201171875	1588.60510798916
0.23895263671875	-0.00198944091796875	1589.04761298804
0.234527587890625	-0.00199798583984375	1589.49011798692
0.2301025390625	-0.002005615234375	1589.93262298581
0.225677490234375	-0.00201385498046875	1590.37512798469
0.22125244140625	-0.00202239990234375	1590.81763298357
0.216827392578125	-0.00203125	1591.26013798245
0.21240234375	-0.00204071044921875	1591.70264298134
0.207977294921875	-0.00205047607421875	1592.14514798022
0.20355224609375	-0.0020599365234375	1592.5876529791
0.199127197265625	-0.0020697021484375	1593.03015797799
0.1947021484375	-0.00207916259765625	1593.47266297687
0.190277099609375	-0.0020892333984375	1593.91516797575
0.18585205078125	-0.00209991455078125	1594.35767297463
0.181427001953125	-0.0021099853515625	1594.80017797352
0.177001953125	-0.002120361328125	1595.2426829724
0.172576904296875	-0.00213134765625	1595.68518797128
0.16815185546875	-0.0021429443359375	1596.12769297016
0.163726806640625	-0.0021539306640625	1596.57019796905
0.1593017578125	-0.00216552734375	1597.01270296793
0.154876708984375	-0.0021771240234375	1597.45520796681
0.15045166015625	-0.002188720703125	1597.8977129657
0.146026611328125	-0.0022003173828125	1598.34021796458
0.1416015625	-0.00221343994140625	1598.78272296346
0.137176513671875	-0.0022259521484375	1599.22522796234
0.13275146484375	-0.0022381591796875	1599.66773296123
0.128326416015625	-0.002252197265625	1600.11023796011
0.1239013671875	-0.002265625	1600.55274295899
0.119476318359375	-0.0022808837890625	1600.99524795788
0.11505126953125	-0.00229248046875	1601.43775295676
0.110626220703125	-0.00230743408203125	1601.88025795564
0.106201171875	-0.0023223876953125	1602.32276295452
0.101776123046875	-0.0023370361328125	1602.76526795341
0.09735107421875	-0.002352294921875	1603.20777295229
0.092926025390625	-0.00236846923828125	1603.65027795117
0.0885009765625	-0.00238372802734375	1604.09278295006
0.084075927734375	-0.00239898681640625	1604.53528794894
0.07965087890625	-0.00241546630859375	1604.97779294782
0.075225830078125	-0.0024310302734375	1605.4202979467
0.07080078125	-0.00244842529296875	1605.86280294559
0.066375732421875	-0.00246551513671875	1606.30530794447
0.06195068359375	-0.00248291015625	1606.74781294335
0.057525634765625	-0.0025018310546875	1607.19031794223
0.0531005859375	-0.00251953125	1607.63282294112
0.048675537109375	-0.002537841796875	1608.07532794
0.04425048828125	-0.00255615234375	1608.51783293888
0.039825439453125	-0.00257598876953125	1608.96033793777
0.035400390625	-0.00259552001953125	1609.40284293665
0.030975341796875	-0.00261627197265625	1609.84534793553
0.02655029296875	-0.00263671875	1610.28785293441
0.022125244140625	-0.002657470703125	1610.7303579333
0.0177001953125	-0.0026776123046875	1611.17286293218
0.013275146484375	-0.00269927978515625	1611.61536793106
0.00885009765625	-0.00272003173828125	1612.05787292995
0.004425048828125	-0.002742919921875	1612.50037792883
0	-0.00276611328125	1612.94288292771
0.004425048828125	-0.00215484619140625	1613.38538792659
0.00885009765625	-0.0016326904296875	1613.82789292548
0.013275146484375	-0.00118011474609375	1614.27039792436
0.0177001953125	-0.0007861328125	1614.71290292324
0.022125244140625	-0.000441375732421875	1615.15540792212
0.02655029296875	-0.000138153076171875	1615.59791292101
0.030975341796875	0.000128997802734375	1616.04041791989
0.035400390625	0.000364501953125	1616.48292291877
0.039825439453125	0.00057220458984375	1616.92542791766
0.04425048828125	0.00075592041015625	1617.36793291654
0.048675537109375	0.00091796875	1617.81043791542
0.0531005859375	0.00106201171875	1618.2529429143
0.057525634765625	0.00118896484375	1618.69544791319
0.06195068359375	0.001300048828125	1619.13795291207
0.066375732421875	0.001397705078125	1619.58045791095
0.07080078125	0.00148345947265625	1620.02296290984
0.075225830078125	0.00156005859375	1620.46546790872
0.07965087890625	0.00162628173828125	1620.9079729076
0.084075927734375	0.0016845703125	1621.35047790648
0.0885009765625	0.0017352294921875	1621.79298290537
0.092926025390625	0.001778564453125	1622.23548790425
0.09735107421875	0.00181671142578125	1622.67799290313
0.101776123046875	0.001849365234375	1623.12049790201
0.106201171875	0.00187652587890625	1623.5630029009
0.110626220703125	0.0018994140625	1624.00550789978
0.11505126953125	0.0019183349609375	1624.44801289866
0.119476318359375	0.00193267822265625	1624.89051789755
0.1239013671875	0.00194580078125	1625.33302289643
0.128326416015625	0.00195556640625	1625.77552789531
0.13275146484375	0.00196380615234375	1626.21803289419
0.137176513671875	0.0019696044921875	1626.66053789308
0.1416015625	0.00197265625	1627.10304289196
0.146026611328125	0.0019744873046875	1627.54554789084
0.15045166015625	0.00197357177734375	1627.98805288973
0.154876708984375	0.00197265625	1628.43055788861
0.1593017578125	0.00196990966796875	1628.87306288749
0.163726806640625	0.0019671630859375	1629.31556788637
0.16815185546875	0.0019622802734375	1629.75807288526
0.172576904296875	0.00195770263671875	1630.20057788414
0.177001953125	0.001951904296875	1630.64308288302
0.181427001953125	0.0019451904296875	1631.0855878819
0.18585205078125	0.00193878173828125	1631.52809288079
0.190277099609375	0.00193084716796875	1631.97059787967
0.1947021484375	0.00192352294921875	1632.41310287855
0.199127197265625	0.00191558837890625	1632.85560787744
0.20355224609375	0.00190704345703125	1633.29811287632
0.207977294921875	0.0018994140625	1633.7406178752
0.21240234375	0.00189056396484375	1634.18312287408
0.216827392578125	0.00188232421875	1634.62562787297
0.22125244140625	0.0018743896484375	1635.06813287185
0.225677490234375	0.001865234375	1635.51063787073
0.2301025390625	0.001856689453125	1635.95314286962
0.234527587890625	0.0018475341796875	1636.3956478685
0.23895263671875	0.00183868408203125	1636.83815286738
0.243377685546875	0.0018304443359375	1637.28065786626
0.247802734375	0.0018218994140625	1637.72316286515
0.252227783203125	0.00181549072265625	1638.16566786403
0.25665283203125	0.00180694580078125	1638.60817286291
0.261077880859375	0.00179962158203125	1639.05067786179
0.2655029296875	0.0017913818359375	1639.49318286068
0.269927978515625	0.00178436279296875	1639.93568785956
0.27435302734375	0.001776123046875	1640.37819285844
0.278778076171875	0.00176910400390625	1640.82069785733
0.283203125	0.0017620849609375	1641.26320285621
0.287628173828125	0.00175537109375	1641.70570785509
0.29205322265625	0.0017474365234375	1642.14821285397
0.296478271484375	0.0017413330078125	1642.59071785286
0.3009033203125	0.00173431396484375	1643.03322285174
0.305328369140625	0.00172821044921875	1643.47572785062
0.30975341796875	0.00172210693359375	1643.91823284951
0.314178466796875	0.0017181396484375	1644.36073784839
0.318603515625	0.00171234130859375	1644.80324284727
0.323028564453125	0.00170654296875	1645.24574784615
0.32745361328125	0.001700439453125	1645.68825284504
0.331878662109375	0.00169525146484375	1646.13075784392
0.3363037109375	0.00168975830078125	1646.5732628428
0.340728759765625	0.00168487548828125	1647.01576784168
0.34515380859375	0.00167999267578125	1647.45827284057
0.349578857421875	0.00167510986328125	1647.90077783945
0.35400390625	0.00166900634765625	1648.34328283833
0.358428955078125	0.0016656494140625	1648.78578783722
0.36285400390625	0.00166046142578125	1649.2282928361
0.367279052734375	0.0016571044921875	1649.67079783498
0.3717041015625	0.00165283203125	1650.11330283386
0.376129150390625	0.00164947509765625	1650.55580783275
0.38055419921875	0.0016461181640625	1650.99831283163
0.384979248046875	0.001641845703125	1651.44081783051
0.389404296875	0.00163909912109375	1651.8833228294
0.393829345703125	0.0016357421875	1652.32582782828
0.39825439453125	0.001632080078125	1652.76833282716
0.402679443359375	0.00162872314453125	1653.21083782604
0.4071044921875	0.00162506103515625	1653.65334282493
0.411529541015625	0.001622314453125	1654.09584782381
0.41595458984375	0.00162017822265625	1654.53835282269
0.420379638671875	0.0016162109375	1654.98085782158
0.4248046875	0.00161407470703125	1655.42336282046
0.429229736328125	0.001611328125	1655.86586781934
0.43365478515625	0.00160858154296875	1656.30837281822
0.438079833984375	0.0016058349609375	1656.75087781711
0.4425048828125	0.00160369873046875	1657.19338281599
0.446929931640625	0.0016015625	1657.63588781487
0.45135498046875	0.00159942626953125	1658.07839281375
0.455780029296875	0.00159820556640625	1658.52089781264
0.460205078125	0.001595458984375	1658.96340281152
0.464630126953125	0.00159332275390625	1659.4059078104
0.46905517578125	0.00159088134765625	1659.84841280929
0.473480224609375	0.00158966064453125	1660.29091780817
0.4779052734375	0.0015875244140625	1660.73342280705
0.482330322265625	0.00158660888671875	1661.17592780593
0.48675537109375	0.0015850830078125	1661.61843280482
0.491180419921875	0.001583251953125	1662.0609378037
0.49560546875	0.00158233642578125	1662.50344280258
0.500030517578125	0.00158111572265625	1662.94594780147
0.50445556640625	0.0015802001953125	1663.38845280035
0.508880615234375	0.00157928466796875	1663.83095779923
0.5133056640625	0.0015777587890625	1664.27346279811
0.517730712890625	0.0015771484375	1664.715967797
0.52215576171875	0.00157562255859375	1665.15847279588
0.526580810546875	0.0015753173828125	1665.60097779476
0.531005859375	0.00157470703125	1666.04348279364
0.535430908203125	0.00157440185546875	1666.48598779253
0.53985595703125	0.0015740966796875	1666.92849279141
0.544281005859375	0.001573486328125	1667.37099779029
0.5487060546875	0.00157318115234375	1667.81350278918
0.553131103515625	0.0015728759765625	1668.25600778806
0.55755615234375	0.001572265625	1668.69851278694
0.561981201171875	0.00157257080078125	1669.14101778582
0.56640625	0.0015728759765625	1669.58352278471
0.570831298828125	0.00157318115234375	1670.02602778359
0.57525634765625	0.00157318115234375	1670.46853278247
0.579681396484375	0.001573486328125	1670.91103778136
0.5841064453125	0.00157440185546875	1671.35354278024
0.588531494140625	0.0015740966796875	1671.79604777912
0.59295654296875	0.0015753173828125	1672.238552778
0.597381591796875	0.00157623291015625	1672.68105777689
0.601806640625	0.00157806396484375	1673.12356277577
0.606231689453125	0.0015789794921875	1673.56606777465
0.61065673828125	0.0015802001953125	1674.00857277353
0.615081787109375	0.00158172607421875	1674.45107777242
0.6195068359375	0.001583251953125	1674.8935827713
0.623931884765625	0.00158538818359375	1675.33608777018
0.62835693359375	0.00158935546875	1675.77859276907
0.632781982421875	0.00159088134765625	1676.22109776795
0.63720703125	0.00159271240234375	1676.66360276683
0.641632080078125	0.00159454345703125	1677.10610776571
0.64605712890625	0.0015966796875	1677.5486127646
0.650482177734375	0.00159942626953125	1677.99111776348
0.6549072265625	0.00160247802734375	1678.43362276236
0.659332275390625	0.00160552978515625	1678.87612776125
0.66375732421875	0.0016082763671875	1679.31863276013
0.668182373046875	0.001611328125	1679.76113775901
0.672607421875	0.0016143798828125	1680.20364275789
0.677032470703125	0.0016180419921875	1680.64614775678
0.68145751953125	0.0016217041015625	1681.08865275566
0.685882568359375	0.00162567138671875	1681.53115775454
0.6903076171875	0.0016302490234375	1681.97366275342
0.694732666015625	0.00163421630859375	1682.41616775231
0.69915771484375	0.00163787841796875	1682.85867275119
0.703582763671875	0.001641845703125	1683.30117775007
0.7080078125	0.00164703369140625	1683.74368274896
0.712432861328125	0.0016522216796875	1684.18618774784
0.71685791015625	0.00165771484375	1684.62869274672
0.721282958984375	0.00166290283203125	1685.0711977456
0.7257080078125	0.0016680908203125	1685.51370274449
0.730133056640625	0.001673583984375	1685.95620774337
0.73455810546875	0.0016796875	1686.39871274225
0.738983154296875	0.001685791015625	1686.84121774114
0.743408203125	0.00169158935546875	1687.28372274002
0.747833251953125	0.00169891357421875	1687.7262277389
0.75225830078125	0.00170562744140625	1688.16873273778
0.756683349609375	0.0017132568359375	1688.61123773667
0.7611083984375	0.00172119140625	1689.05374273555
0.765533447265625	0.00172943115234375	1689.49624773443
0.76995849609375	0.00173736572265625	1689.93875273331
0.774383544921875	0.00174652099609375	1690.3812577322
0.77880859375	0.00175567626953125	1690.82376273108
0.783233642578125	0.0017645263671875	1691.26626772996
0.78765869140625	0.00177459716796875	1691.70877272885
0.792083740234375	0.00178497314453125	1692.15127772773
0.7965087890625	0.0017950439453125	1692.59378272661
0.800933837890625	0.001806640625	1693.03628772549
0.80535888671875	0.00181884765625	1693.47879272438
0.809783935546875	0.0018304443359375	1693.92129772326
0.814208984375	0.00184356689453125	1694.36380272214
0.818634033203125	0.00185638427734375	1694.80630772103
0.82305908203125	0.0018701171875	1695.24881271991
0.827484130859375	0.00188446044921875	1695.69131771879
0.8319091796875	0.0018994140625	1696.13382271767
0.836334228515625	0.001915283203125	1696.57632771656
0.84075927734375	0.001932373046875	1697.01883271544
0.845184326171875	0.0019488525390625	1697.46133771432
0.849609375	0.00196563720703125	1697.9038427132
0.854034423828125	0.0019842529296875	1698.34634771209
0.85845947265625	0.0020037841796875	1698.78885271097
0.862884521484375	0.00202301025390625	1699.23135770985
0.8673095703125	0.00204376220703125	1699.67386270874
0.871734619140625	0.0020648193359375	1700.11636770762
0.87615966796875	0.00208740234375	1700.5588727065
0.880584716796875	0.002110595703125	1701.00137770538
0.885009765625	0.002135009765625	1701.44388270427
0.889434814453125	0.002159423828125	1701.88638770315
0.89385986328125	0.00218536376953125	1702.32889270203
0.898284912109375	0.00221160888671875	1702.77139770092
0.9027099609375	0.00224029541015625	1703.2139026998
0.907135009765625	0.00226959228515625	1703.65640769868
0.91156005859375	0.0023004150390625	1704.09891269756
0.915985107421875	0.002332763671875	1704.54141769645
0.92041015625	0.00236602783203125	1704.98392269533
0.924835205078125	0.0024005126953125	1705.42642769421
0.92926025390625	0.0024365234375	1705.86893269309
0.933685302734375	0.00247467041015625	1706.31143769198
0.9381103515625	0.00251617431640625	1706.75394269086
0.942535400390625	0.002557373046875	1707.19644768974
0.94696044921875	0.002601318359375	1707.63895268863
0.951385498046875	0.0026470947265625	1708.08145768751
0.955810546875	0.00269500732421875	1708.52396268639
0.960235595703125	0.0027459716796875	1708.96646768527
0.96466064453125	0.0027984619140625	1709.40897268416
0.969085693359375	0.00285400390625	1709.85147768304
0.9735107421875	0.00291473388671875	1710.29398268192
0.977935791015625	0.002977294921875	1710.73648768081
0.98236083984375	0.00304443359375	1711.17899267969
0.986785888671875	0.003115234375	1711.62149767857
0.9912109375	0.00319091796875	1712.06400267745
0.995635986328125	0.0032708740234375	1712.50650767634
1.00006103515625	0.003355712890625	1712.94901267522
0.995635986328125	0.002838134765625	1713.3915176741
0.9912109375	0.00241180419921875	1713.83402267299
0.986785888671875	0.00204925537109375	1714.27652767187
0.98236083984375	0.0017333984375	1714.71903267075
0.977935791015625	0.00145355224609375	1715.16153766963
0.9735107421875	0.001204833984375	1715.60404266852
0.969085693359375	0.00097930908203125	1716.0465476674
0.96466064453125	0.0007745361328125	1716.48905266628
0.960235595703125	0.00058807373046875	1716.93155766516
0.955810546875	0.000418365478515625	1717.37406266405
0.951385498046875	0.000264007568359375	1717.81656766293
0.94696044921875	0.000122772216796875	1718.25907266181
0.942535400390625	-5.92956542968751E-06	1718.7015776607
0.9381103515625	-0.000123321533203125	1719.14408265958
0.933685302734375	-0.00023284912109375	1719.58658765846
0.92926025390625	-0.0003302001953125	1720.02909265734
0.924835205078125	-0.000418609619140625	1720.47159765623
0.92041015625	-0.0004996337890625	1720.91410265511
0.915985107421875	-0.000572540283203125	1721.35660765399
0.91156005859375	-0.000639190673828125	1721.79911265288
0.907135009765625	-0.00069915771484375	1722.24161765176
0.9027099609375	-0.0007537841796875	1722.68412265064
0.898284912109375	-0.00080322265625	1723.12662764952
0.89385986328125	-0.000848388671875	1723.56913264841
0.889434814453125	-0.000888671875	1724.01163764729
0.885009765625	-0.0009259033203125	1724.45414264617
0.880584716796875	-0.00095977783203125	1724.89664764505
0.87615966796875	-0.000989990234375	1725.33915264394
0.871734619140625	-0.00101776123046875	1725.78165764282
0.8673095703125	-0.0010430908203125	1726.2241626417
0.862884521484375	-0.00106689453125	1726.66666764059
0.85845947265625	-0.00108734130859375	1727.10917263947
0.854034423828125	-0.001107177734375	1727.55167763835
0.849609375	-0.00112548828125	1727.99418263723
0.845184326171875	-0.00114227294921875	1728.43668763612
0.84075927734375	-0.00115753173828125	1728.879192635
0.836334228515625	-0.00117156982421875	1729.32169763388
0.8319091796875	-0.001185302734375	1729.76420263277
0.827484130859375	-0.001197509765625	1730.20670763165
0.82305908203125	-0.0012091064453125	1730.64921263053
0.818634033203125	-0.00122039794921875	1731.09171762941
0.814208984375	-0.00123077392578125	1731.5342226283
0.809783935546875	-0.00124053955078125	1731.97672762718
0.80535888671875	-0.00124969482421875	1732.41923262606
0.800933837890625	-0.0012579345703125	1732.86173762494
0.7965087890625	-0.00126617431640625	1733.30424262383
0.792083740234375	-0.00127410888671875	1733.74674762271
0.78765869140625	-0.00128173828125	1734.18925262159
0.783233642578125	-0.0012890625	1734.63175762048
0.77880859375	-0.00129638671875	1735.07426261936
0.774383544921875	-0.0013031005859375	1735.51676761824
0.76995849609375	-0.001309814453125	1735.95927261712
0.765533447265625	-0.0013165283203125	1736.40177761601
0.7611083984375	-0.0013232421875	1736.84428261489
0.756683349609375	-0.00132965087890625	1737.28678761377
0.75225830078125	-0.0013360595703125	1737.72929261266
0.747833251953125	-0.00134124755859375	1738.17179761154
0.743408203125	-0.00134765625	1738.61430261042
0.738983154296875	-0.00135162353515625	1739.0568076093
0.73455810546875	-0.00135772705078125	1739.49931260819
0.730133056640625	-0.001363525390625	1739.94181760707
0.7257080078125	-0.00136932373046875	1740.38432260595
0.721282958984375	-0.00137451171875	1740.82682760483
0.71685791015625	-0.00138031005859375	1741.26933260372
0.712432861328125	-0.001385498046875	1741.7118376026
0.7080078125	-0.0013909912109375	1742.15434260148
0.703582763671875	-0.00139617919921875	1742.59684760037
0.69915771484375	-0.0014007568359375	1743.03935259925
0.694732666015625	-0.00140594482421875	1743.48185759813
0.6903076171875	-0.00141204833984375	1743.92436259701
0.685882568359375	-0.00141693115234375	1744.3668675959
0.68145751953125	-0.001422119140625	1744.80937259478
0.677032470703125	-0.0014263916015625	1745.25187759366
0.672607421875	-0.00143218994140625	1745.69438259255
0.668182373046875	-0.00143707275390625	1746.13688759143
0.66375732421875	-0.00144256591796875	1746.57939259031
0.659332275390625	-0.00144775390625	1747.02189758919
0.6549072265625	-0.00145355224609375	1747.46440258808
0.650482177734375	-0.00145843505859375	1747.90690758696
0.64605712890625	-0.0014630126953125	1748.34941258584
0.641632080078125	-0.0014678955078125	1748.79191758472
0.63720703125	-0.001473388671875	1749.23442258361
0.632781982421875	-0.001478271484375	1749.67692758249
0.62835693359375	-0.0014837646484375	1750.11943258137
0.623931884765625	-0.0014910888671875	1750.56193758026
0.6195068359375	-0.0014959716796875	1751.00444257914
0.615081787109375	-0.00149993896484375	1751.44694757802
0.61065673828125	-0.001505126953125	1751.8894525769
0.606231689453125	-0.00150970458984375	1752.33195757579
0.601806640625	-0.00151397705078125	1752.77446257467
0.597381591796875	-0.00151885986328125	1753.21696757355
0.59295654296875	-0.0015240478515625	1753.65947257244
0.588531494140625	-0.00152923583984375	1754.10197757132
0.5841064453125	-0.0015325927734375	1754.5444825702
0.579681396484375	-0.00153778076171875	1754.98698756908
0.57525634765625	-0.0015435791015625	1755.42949256797
0.570831298828125	-0.00154876708984375	1755.87199756685
0.56640625	-0.00155426025390625	1756.31450256573
0.561981201171875	-0.00155914306640625	1756.75700756461
0.55755615234375	-0.00156463623046875	1757.1995125635
0.553131103515625	-0.00156982421875	1757.64201756238
0.5487060546875	-0.00157470703125	1758.08452256126
0.544281005859375	-0.0015802001953125	1758.52702756015
0.53985595703125	-0.0015850830078125	1758.96953255903
0.535430908203125	-0.001590576171875	1759.41203755791
0.531005859375	-0.0015966796875	1759.85454255679
0.526580810546875	-0.00160186767578125	1760.29704755568
0.52215576171875	-0.0016070556640625	1760.73955255456
0.517730712890625	-0.00161285400390625	1761.18205755344
0.5133056640625	-0.0016180419921875	1761.62456255233
0.508880615234375	-0.0016241455078125	1762.06706755121
0.50445556640625	-0.00162872314453125	1762.50957255009
0.500030517578125	-0.0016351318359375	1762.95207754897
0.49560546875	-0.00164093017578125	1763.39458254786
0.491180419921875	-0.0016461181640625	1763.83708754674
0.48675537109375	-0.00165130615234375	1764.27959254562
0.482330322265625	-0.00165740966796875	1764.72209754451
0.4779052734375	-0.00166351318359375	1765.16460254339
0.473480224609375	-0.0016693115234375	1765.60710754227
0.46905517578125	-0.0016754150390625	1766.04961254115
0.464630126953125	-0.00168060302734375	1766.49211754004
0.460205078125	-0.001685791015625	1766.93462253892
0.455780029296875	-0.0016912841796875	1767.3771275378
0.45135498046875	-0.0016973876953125	1767.81963253668
0.446929931640625	-0.00170257568359375	1768.26213753557
0.4425048828125	-0.00170806884765625	1768.70464253445
0.438079833984375	-0.00171356201171875	1769.14714753333
0.43365478515625	-0.0017193603515625	1769.58965253222
0.429229736328125	-0.00172454833984375	1770.0321575311
0.4248046875	-0.0017303466796875	1770.47466252998
0.420379638671875	-0.0017364501953125	1770.91716752886
0.41595458984375	-0.00174163818359375	1771.35967252775
0.411529541015625	-0.00174713134765625	1771.80217752663
0.4071044921875	-0.00175262451171875	1772.24468252551
0.402679443359375	-0.0017584228515625	1772.6871875244
0.39825439453125	-0.001763916015625	1773.12969252328
0.393829345703125	-0.00176971435546875	1773.57219752216
0.389404296875	-0.00177490234375	1774.01470252104
0.384979248046875	-0.0017803955078125	1774.45720751993
0.38055419921875	-0.00178558349609375	1774.89971251881
0.376129150390625	-0.001790771484375	1775.34221751769
0.3717041015625	-0.00179718017578125	1775.78472251657
0.367279052734375	-0.001802978515625	1776.22722751546
0.36285400390625	-0.00180816650390625	1776.66973251434
0.358428955078125	-0.00181427001953125	1777.11223751322
0.35400390625	-0.00181976318359375	1777.55474251211
0.349578857421875	-0.0018231201171875	1777.99724751099
0.34515380859375	-0.00182952880859375	1778.43975250987
0.340728759765625	-0.00183563232421875	1778.88225750875
0.3363037109375	-0.00184173583984375	1779.32476250764
0.331878662109375	-0.00184722900390625	1779.76726750652
0.32745361328125	-0.00185333251953125	1780.2097725054
0.323028564453125	-0.00186004638671875	1780.65227750429
0.318603515625	-0.00186614990234375	1781.09478250317
0.314178466796875	-0.0018731689453125	1781.53728750205
0.30975341796875	-0.00188079833984375	1781.97979250093
0.305328369140625	-0.00188690185546875	1782.42229749982
0.3009033203125	-0.0018927001953125	1782.8648024987
0.296478271484375	-0.0018988037109375	1783.30730749758
0.29205322265625	-0.0019049072265625	1783.74981249646
0.287628173828125	-0.0019110107421875	1784.19231749535
0.283203125	-0.0019183349609375	1784.63482249423
0.278778076171875	-0.00192474365234375	1785.07732749311
0.27435302734375	-0.001932373046875	1785.519832492
0.269927978515625	-0.0019390869140625	1785.96233749088
0.2655029296875	-0.00194610595703125	1786.40484248976
0.261077880859375	-0.001953125	1786.84734748864
0.25665283203125	-0.00196044921875	1787.28985248753
0.252227783203125	-0.00196929931640625	1787.73235748641
0.247802734375	-0.001976318359375	1788.17486248529
0.243377685546875	-0.001983642578125	1788.61736748418
0.23895263671875	-0.0019921875	1789.05987248306
0.234527587890625	-0.00200103759765625	1789.50237748194
0.2301025390625	-0.0020074462890625	1789.94488248082
0.225677490234375	-0.0020172119140625	1790.38738747971
0.22125244140625	-0.00202545166015625	1790.82989247859
0.216827392578125	-0.00203369140625	1791.27239747747
0.21240234375	-0.0020428466796875	1791.71490247635
0.207977294921875	-0.00205291748046875	1792.15740747524
0.20355224609375	-0.00206268310546875	1792.59991247412
0.199127197265625	-0.00207183837890625	1793.042417473
0.1947021484375	-0.0020819091796875	1793.48492247189
0.190277099609375	-0.0020916748046875	1793.92742747077
0.18585205078125	-0.0021026611328125	1794.36993246965
0.181427001953125	-0.00211273193359375	1794.81243746853
0.177001953125	-0.0021240234375	1795.25494246742
0.172576904296875	-0.0021337890625	1795.6974474663
0.16815185546875	-0.0021453857421875	1796.13995246518
0.163726806640625	-0.00215728759765625	1796.58245746407
0.1593017578125	-0.0021685791015625	1797.02496246295
0.154876708984375	-0.00217926025390625	1797.46746746183
0.15045166015625	-0.00219146728515625	1797.90997246071
0.146026611328125	-0.00220367431640625	1798.3524774596
0.1416015625	-0.002216796875	1798.79498245848
0.137176513671875	-0.0022296142578125	1799.23748745736
0.13275146484375	-0.00224273681640625	1799.67999245624
0.128326416015625	-0.002255859375	1800.12249745513
0.1239013671875	-0.002269287109375	1800.56500245401
0.119476318359375	-0.00228302001953125	1801.00750745289
0.11505126953125	-0.0022955322265625	1801.45001245178
0.110626220703125	-0.00231109619140625	1801.89251745066
0.106201171875	-0.00232635498046875	1802.33502244954
0.101776123046875	-0.00234039306640625	1802.77752744842
0.09735107421875	-0.00235504150390625	1803.22003244731
0.092926025390625	-0.0023712158203125	1803.66253744619
0.0885009765625	-0.00238616943359375	1804.10504244507
0.084075927734375	-0.00240203857421875	1804.54754744396
0.07965087890625	-0.002418212890625	1804.99005244284
0.075225830078125	-0.00243377685546875	1805.43255744172
0.07080078125	-0.00245147705078125	1805.8750624406
0.066375732421875	-0.00246826171875	1806.31756743949
0.06195068359375	-0.00248565673828125	1806.76007243837
0.057525634765625	-0.00250335693359375	1807.20257743725
0.0531005859375	-0.00252197265625	1807.64508243613
0.048675537109375	-0.002540283203125	1808.08758743502
0.04425048828125	-0.00255828857421875	1808.5300924339
0.039825439453125	-0.0025787353515625	1808.97259743278
0.035400390625	-0.00259796142578125	1809.41510243167
0.030975341796875	-0.0026177978515625	1809.85760743055
0.02655029296875	-0.00263763427734375	1810.30011242943
0.022125244140625	-0.00265869140625	1810.74261742831
0.0177001953125	-0.0026788330078125	1811.1851224272
0.013275146484375	-0.0027001953125	1811.62762742608
0.00885009765625	-0.00272125244140625	1812.07013242496
0.004425048828125	-0.00274383544921875	1812.51263742385
0	-0.00276763916015625	1812.95514242273
0.004425048828125	-0.0021563720703125	1813.39764742161
0.00885009765625	-0.0016339111328125	1813.84015242049
0.013275146484375	-0.001181640625	1814.28265741938
