Potential applied (V)	WE(1).Current (A)	Time (s)
0.004425048828125	-0.0085479736328125	190.277507519595
0.00885009765625	-0.007965087890625	190.29963251954
0.013275146484375	-0.0074005126953125	190.321757519484
0.0177001953125	-0.0068450927734375	190.343882519428
0.022125244140625	-0.0062957763671875	190.366007519372
0.02655029296875	-0.00576171875	190.388132519316
0.030975341796875	-0.0052337646484375	190.41025751926
0.035400390625	-0.00471435546875	190.432382519204
0.039825439453125	-0.00420379638671875	190.454507519149
0.04425048828125	-0.00369873046875	190.476632519093
0.048675537109375	-0.00320159912109375	190.498757519037
0.0531005859375	-0.002711181640625	190.520882518981
0.057525634765625	-0.00223724365234375	190.543007518925
0.06195068359375	-0.00175872802734375	190.565132518869
0.066375732421875	-0.00128662109375	190.587257518813
0.07080078125	-0.000821533203125	190.609382518758
0.075225830078125	-0.000361541748046875	190.631507518702
0.07965087890625	9.0850830078125E-05	190.653632518646
0.084075927734375	0.000538330078125	190.67575751859
0.0885009765625	0.00098114013671875	190.697882518534
0.092926025390625	0.0014190673828125	190.720007518478
0.09735107421875	0.00185211181640625	190.742132518422
0.101776123046875	0.002279052734375	190.764257518367
0.106201171875	0.0027001953125	190.786382518311
0.110626220703125	0.00311676025390625	190.808507518255
0.11505126953125	0.00352783203125	190.830632518199
0.119476318359375	0.00393096923828125	190.852757518143
0.1239013671875	0.00433197021484375	190.874882518087
0.128326416015625	0.00472747802734375	190.897007518031
0.13275146484375	0.00511810302734375	190.919132517976
0.137176513671875	0.0055072021484375	190.94125751792
0.1416015625	0.00589141845703125	190.963382517864
0.146026611328125	0.00626953125	190.985507517808
0.15045166015625	0.0066314697265625	191.007632517752
0.154876708984375	0.007000732421875	191.029757517696
0.1593017578125	0.00736083984375	191.05188251764
0.163726806640625	0.007720947265625	191.074007517585
0.16815185546875	0.0080718994140625	191.096132517529
0.172576904296875	0.0084228515625	191.118257517473
0.177001953125	0.0087677001953125	191.140382517417
0.181427001953125	0.009112548828125	191.162507517361
0.18585205078125	0.0094451904296875	191.184632517305
0.190277099609375	0.0097808837890625	191.206757517249
0.1947021484375	0.0101104736328125	191.228882517193
0.199127197265625	0.0104339599609375	191.251007517138
0.20355224609375	0.0107574462890625	191.273132517082
0.207977294921875	0.01107177734375	191.295257517026
0.21240234375	0.011383056640625	191.31738251697
0.216827392578125	0.0116943359375	191.339507516914
0.22125244140625	0.0120025634765625	191.361632516858
0.225677490234375	0.012310791015625	191.383757516802
0.2301025390625	0.0126129150390625	191.405882516747
0.234527587890625	0.0129058837890625	191.428007516691
0.23895263671875	0.0131988525390625	191.450132516635
0.243377685546875	0.01348876953125	191.472257516579
0.247802734375	0.01376953125	191.494382516523
0.252227783203125	0.01405029296875	191.516507516467
0.25665283203125	0.0143218994140625	191.538632516411
0.261077880859375	0.014593505859375	191.560757516356
0.2655029296875	0.0148590087890625	191.5828825163
0.269927978515625	0.01512451171875	191.605007516244
0.27435302734375	0.0153839111328125	191.627132516188
0.278778076171875	0.0156402587890625	191.649257516132
0.283203125	0.0158935546875	191.671382516076
0.287628173828125	0.0161407470703125	191.69350751602
0.29205322265625	0.016387939453125	191.715632515965
0.296478271484375	0.0166290283203125	191.737757515909
0.3009033203125	0.0168701171875	191.759882515853
0.305328369140625	0.0171051025390625	191.782007515797
0.30975341796875	0.017333984375	191.804132515741
0.314178466796875	0.01756591796875	191.826257515685
0.318603515625	0.017791748046875	191.848382515629
0.323028564453125	0.018011474609375	191.870507515574
0.32745361328125	0.0182342529296875	191.892632515518
0.331878662109375	0.0184478759765625	191.914757515462
0.3363037109375	0.0186614990234375	191.936882515406
0.340728759765625	0.0188720703125	191.95900751535
0.34515380859375	0.0190765380859375	191.981132515294
0.349578857421875	0.0192840576171875	192.003257515238
0.35400390625	0.0194854736328125	192.025382515183
0.358428955078125	0.019683837890625	192.047507515127
0.36285400390625	0.0198822021484375	192.069632515071
0.367279052734375	0.0200836181640625	192.091757515015
0.3717041015625	0.0202789306640625	192.113882514959
0.376129150390625	0.020465087890625	192.136007514903
0.38055419921875	0.020648193359375	192.158132514847
0.384979248046875	0.0208282470703125	192.180257514791
0.389404296875	0.0210052490234375	192.202382514736
0.393829345703125	0.02117919921875	192.22450751468
0.39825439453125	0.0213470458984375	192.246632514624
0.402679443359375	0.021514892578125	192.268757514568
0.4071044921875	0.0216796875	192.290882514512
0.411529541015625	0.0218505859375	192.313007514456
0.41595458984375	0.02203369140625	192.3351325144
0.420379638671875	0.022198486328125	192.357257514345
0.4248046875	0.0223480224609375	192.379382514289
0.429229736328125	0.0224884033203125	192.401507514233
0.43365478515625	0.0226348876953125	192.423632514177
0.438079833984375	0.0227996826171875	192.445757514121
0.4425048828125	0.0229644775390625	192.467882514065
0.446929931640625	0.0231292724609375	192.490007514009
0.45135498046875	0.0232757568359375	192.512132513954
0.455780029296875	0.0234161376953125	192.534257513898
0.460205078125	0.0235504150390625	192.556382513842
0.464630126953125	0.023687744140625	192.578507513786
0.46905517578125	0.023822021484375	192.60063251373
0.473480224609375	0.023956298828125	192.622757513674
0.4779052734375	0.02408447265625	192.644882513618
0.482330322265625	0.0242095947265625	192.667007513563
0.48675537109375	0.0243316650390625	192.689132513507
0.491180419921875	0.024456787109375	192.711257513451
0.49560546875	0.024578857421875	192.733382513395
0.500030517578125	0.0246978759765625	192.755507513339
0.50445556640625	0.02481689453125	192.777632513283
0.508880615234375	0.0249298095703125	192.799757513227
0.5133056640625	0.0250396728515625	192.821882513172
0.517730712890625	0.025146484375	192.844007513116
0.52215576171875	0.02525634765625	192.86613251306
0.526580810546875	0.0253662109375	192.888257513004
0.531005859375	0.025469970703125	192.910382512948
0.535430908203125	0.02557373046875	192.932507512892
0.53985595703125	0.0256744384765625	192.954632512836
0.544281005859375	0.025775146484375	192.976757512781
0.5487060546875	0.0258697509765625	192.998882512725
0.553131103515625	0.02596435546875	193.021007512669
0.55755615234375	0.0260589599609375	193.043132512613
0.561981201171875	0.026153564453125	193.065257512557
0.56640625	0.0262451171875	193.087382512501
0.570831298828125	0.026336669921875	193.109507512445
0.57525634765625	0.026422119140625	193.13163251239
0.579681396484375	0.026507568359375	193.153757512334
0.5841064453125	0.0265869140625	193.175882512278
0.588531494140625	0.0266693115234375	193.198007512222
0.59295654296875	0.026751708984375	193.220132512166
0.597381591796875	0.0268280029296875	193.24225751211
0.601806640625	0.0269073486328125	193.264382512054
0.606231689453125	0.026983642578125	193.286507511998
0.61065673828125	0.0270599365234375	193.308632511943
0.615081787109375	0.027130126953125	193.330757511887
0.6195068359375	0.027203369140625	193.352882511831
0.623931884765625	0.0272705078125	193.375007511775
0.62835693359375	0.02734375	193.397132511719
0.632781982421875	0.027410888671875	193.419257511663
0.63720703125	0.0274749755859375	193.441382511607
0.641632080078125	0.0275360107421875	193.463507511552
0.64605712890625	0.02760009765625	193.485632511496
0.650482177734375	0.0276611328125	193.50775751144
0.6549072265625	0.0277191162109375	193.529882511384
0.659332275390625	0.027777099609375	193.552007511328
0.66375732421875	0.02783203125	193.574132511272
0.668182373046875	0.027886962890625	193.596257511216
0.672607421875	0.02794189453125	193.618382511161
0.677032470703125	0.02799072265625	193.640507511105
0.68145751953125	0.0280426025390625	193.662632511049
0.685882568359375	0.0280914306640625	193.684757510993
0.6903076171875	0.0281402587890625	193.706882510937
0.694732666015625	0.02818603515625	193.729007510881
0.69915771484375	0.028228759765625	193.751132510825
0.703582763671875	0.028271484375	193.77325751077
0.7080078125	0.0283111572265625	193.795382510714
0.712432861328125	0.028350830078125	193.817507510658
0.71685791015625	0.0283905029296875	193.839632510602
0.721282958984375	0.02843017578125	193.861757510546
0.7257080078125	0.028466796875	193.88388251049
0.730133056640625	0.02850341796875	193.906007510434
0.73455810546875	0.0285369873046875	193.928132510379
0.738983154296875	0.028570556640625	193.950257510323
0.743408203125	0.02860107421875	193.972382510267
0.747833251953125	0.0286346435546875	193.994507510211
0.75225830078125	0.0286651611328125	194.016632510155
0.756683349609375	0.0286895751953125	194.038757510099
0.7611083984375	0.0287200927734375	194.060882510043
0.765533447265625	0.0287445068359375	194.083007509988
0.76995849609375	0.02877197265625	194.105132509932
0.774383544921875	0.02879638671875	194.127257509876
0.77880859375	0.0288238525390625	194.14938250982
0.783233642578125	0.02884521484375	194.171507509764
0.78765869140625	0.028863525390625	194.193632509708
0.792083740234375	0.028887939453125	194.215757509652
0.7965087890625	0.0289093017578125	194.237882509596
0.800933837890625	0.0289306640625	194.260007509541
0.80535888671875	0.028948974609375	194.282132509485
0.809783935546875	0.02896728515625	194.304257509429
0.814208984375	0.0289825439453125	194.326382509373
0.818634033203125	0.02900390625	194.348507509317
0.82305908203125	0.0290191650390625	194.370632509261
0.827484130859375	0.029034423828125	194.392757509205
0.8319091796875	0.029052734375	194.41488250915
0.836334228515625	0.029071044921875	194.437007509094
0.84075927734375	0.02908935546875	194.459132509038
0.845184326171875	0.0291015625	194.481257508982
0.849609375	0.0291168212890625	194.503382508926
0.854034423828125	0.0291290283203125	194.52550750887
0.85845947265625	0.0291412353515625	194.547632508814
0.862884521484375	0.029156494140625	194.569757508759
0.8673095703125	0.0291717529296875	194.591882508703
0.871734619140625	0.0291839599609375	194.614007508647
0.87615966796875	0.02919921875	194.636132508591
0.880584716796875	0.0292144775390625	194.658257508535
0.885009765625	0.0292236328125	194.680382508479
0.889434814453125	0.0292449951171875	194.702507508423
0.89385986328125	0.0292572021484375	194.724632508368
0.898284912109375	0.0292724609375	194.746757508312
0.9027099609375	0.0292877197265625	194.768882508256
0.907135009765625	0.0292999267578125	194.7910075082
0.91156005859375	0.0293182373046875	194.813132508144
0.915985107421875	0.02933349609375	194.835257508088
0.92041015625	0.029351806640625	194.857382508032
0.924835205078125	0.0293701171875	194.879507507977
0.92926025390625	0.0293853759765625	194.901632507921
0.933685302734375	0.0294036865234375	194.923757507865
0.9381103515625	0.029425048828125	194.945882507809
0.942535400390625	0.0294464111328125	194.968007507753
0.94696044921875	0.0294677734375	194.990132507697
0.951385498046875	0.029486083984375	195.012257507641
0.955810546875	0.0295074462890625	195.034382507586
0.960235595703125	0.02952880859375	195.05650750753
0.96466064453125	0.02955322265625	195.078632507474
0.969085693359375	0.0295806884765625	195.100757507418
0.9735107421875	0.0296051025390625	195.122882507362
0.977935791015625	0.029632568359375	195.145007507306
0.98236083984375	0.0296600341796875	195.16713250725
0.986785888671875	0.0296875	195.189257507194
0.9912109375	0.029718017578125	195.211382507139
0.995635986328125	0.02974853515625	195.233507507083
1.00006103515625	0.0297821044921875	195.255632507027
0.995635986328125	0.028802490234375	195.277757506971
0.9912109375	0.027850341796875	195.299882506915
0.986785888671875	0.0269287109375	195.322007506859
0.98236083984375	0.026031494140625	195.344132506803
0.977935791015625	0.0251556396484375	195.366257506748
0.9735107421875	0.02430419921875	195.388382506692
0.969085693359375	0.023468017578125	195.410507506636
0.96466064453125	0.022650146484375	195.43263250658
0.960235595703125	0.0218505859375	195.454757506524
0.955810546875	0.0210662841796875	195.476882506468
0.951385498046875	0.02030029296875	195.499007506412
0.94696044921875	0.01954345703125	195.521132506357
0.942535400390625	0.0188018798828125	195.543257506301
0.9381103515625	0.01807861328125	195.565382506245
0.933685302734375	0.0173614501953125	195.587507506189
0.92926025390625	0.0166656494140625	195.609632506133
0.924835205078125	0.0159820556640625	195.631757506077
0.92041015625	0.0153106689453125	195.653882506021
0.915985107421875	0.0146484375	195.676007505966
0.91156005859375	0.0140045166015625	195.69813250591
0.907135009765625	0.0133636474609375	195.720257505854
0.9027099609375	0.0127349853515625	195.742382505798
0.898284912109375	0.0121185302734375	195.764507505742
0.89385986328125	0.01151123046875	195.786632505686
0.889434814453125	0.010919189453125	195.80875750563
0.885009765625	0.0103302001953125	195.830882505575
0.880584716796875	0.00975341796875	195.853007505519
0.87615966796875	0.0091888427734375	195.875132505463
0.871734619140625	0.00863037109375	195.897257505407
0.8673095703125	0.0080810546875	195.919382505351
0.862884521484375	0.0075408935546875	195.941507505295
0.85845947265625	0.0070098876953125	195.963632505239
0.854034423828125	0.0064849853515625	195.985757505184
0.849609375	0.00596923828125	196.007882505128
0.845184326171875	0.005462646484375	196.030007505072
0.84075927734375	0.0049627685546875	196.052132505016
0.836334228515625	0.00447113037109375	196.07425750496
0.8319091796875	0.0039862060546875	196.096382504904
0.827484130859375	0.00350921630859375	196.118507504848
0.82305908203125	0.00303955078125	196.140632504793
0.818634033203125	0.00257843017578125	196.162757504737
0.814208984375	0.00212188720703125	196.184882504681
0.809783935546875	0.0016717529296875	196.207007504625
0.80535888671875	0.00122894287109375	196.229132504569
0.800933837890625	0.00079193115234375	196.251257504513
0.7965087890625	0.000362274169921875	196.273382504457
0.792083740234375	-6.1065673828125E-05	196.295507504401
0.78765869140625	-0.000477813720703125	196.317632504346
0.783233642578125	-0.0008880615234375	196.33975750429
0.77880859375	-0.00129241943359375	196.361882504234
0.774383544921875	-0.001690673828125	196.384007504178
0.76995849609375	-0.00208251953125	196.406132504122
0.765533447265625	-0.00246978759765625	196.428257504066
0.7611083984375	-0.002850341796875	196.45038250401
0.756683349609375	-0.00322540283203125	196.472507503955
0.75225830078125	-0.00359527587890625	196.494632503899
0.747833251953125	-0.00395904541015625	196.516757503843
0.743408203125	-0.004317626953125	196.538882503787
0.738983154296875	-0.0046685791015625	196.561007503731
0.73455810546875	-0.005015869140625	196.583132503675
0.730133056640625	-0.00535858154296875	196.605257503619
0.7257080078125	-0.00569671630859375	196.627382503564
0.721282958984375	-0.0060284423828125	196.649507503508
0.71685791015625	-0.006329345703125	196.671632503452
0.712432861328125	-0.00665283203125	196.693757503396
0.7080078125	-0.00697021484375	196.71588250334
0.703582763671875	-0.007281494140625	196.738007503284
0.69915771484375	-0.007586669921875	196.760132503228
0.694732666015625	-0.0078857421875	196.782257503173
0.6903076171875	-0.008184814453125	196.804382503117
0.685882568359375	-0.008477783203125	196.826507503061
0.68145751953125	-0.0087646484375	196.848632503005
0.677032470703125	-0.0090484619140625	196.870757502949
0.672607421875	-0.009326171875	196.892882502893
0.668182373046875	-0.009600830078125	196.915007502837
0.66375732421875	-0.0098724365234375	196.937132502782
0.659332275390625	-0.010137939453125	196.959257502726
0.6549072265625	-0.010400390625	196.98138250267
0.650482177734375	-0.01065673828125	197.003507502614
0.64605712890625	-0.0109100341796875	197.025632502558
0.641632080078125	-0.0111572265625	197.047757502502
0.63720703125	-0.0114044189453125	197.069882502446
0.632781982421875	-0.0116485595703125	197.092007502391
0.62835693359375	-0.011883544921875	197.114132502335
0.623931884765625	-0.0121246337890625	197.136257502279
0.6195068359375	-0.012359619140625	197.158382502223
0.615081787109375	-0.0125823974609375	197.180507502167
0.61065673828125	-0.01280517578125	197.202632502111
0.606231689453125	-0.0130279541015625	197.224757502055
0.601806640625	-0.01324462890625	197.246882501999
0.597381591796875	-0.013458251953125	197.269007501944
0.59295654296875	-0.0136688232421875	197.291132501888
0.588531494140625	-0.0138763427734375	197.313257501832
0.5841064453125	-0.01407470703125	197.335382501776
0.579681396484375	-0.014276123046875	197.35750750172
0.57525634765625	-0.0144744873046875	197.379632501664
0.570831298828125	-0.014666748046875	197.401757501608
0.56640625	-0.014862060546875	197.423882501553
0.561981201171875	-0.01505126953125	197.446007501497
0.55755615234375	-0.0152374267578125	197.468132501441
0.553131103515625	-0.0154266357421875	197.490257501385
0.5487060546875	-0.0156219482421875	197.512382501329
0.544281005859375	-0.0157989501953125	197.534507501273
0.53985595703125	-0.0159759521484375	197.556632501217
0.535430908203125	-0.0161529541015625	197.578757501162
0.531005859375	-0.0163238525390625	197.600882501106
0.526580810546875	-0.0164886474609375	197.62300750105
0.52215576171875	-0.016656494140625	197.645132500994
0.517730712890625	-0.0168212890625	197.667257500938
0.5133056640625	-0.0169830322265625	197.689382500882
0.508880615234375	-0.017132568359375	197.711507500826
0.50445556640625	-0.01727294921875	197.733632500771
0.500030517578125	-0.017431640625	197.755757500715
0.49560546875	-0.0175933837890625	197.777882500659
0.491180419921875	-0.017755126953125	197.800007500603
0.48675537109375	-0.0179107666015625	197.822132500547
0.482330322265625	-0.0180572509765625	197.844257500491
0.4779052734375	-0.01820068359375	197.866382500435
0.473480224609375	-0.01834716796875	197.88850750038
0.46905517578125	-0.01849365234375	197.910632500324
0.464630126953125	-0.0186370849609375	197.932757500268
0.460205078125	-0.018780517578125	197.954882500212
0.455780029296875	-0.0189178466796875	197.977007500156
0.45135498046875	-0.01905517578125	197.9991325001
0.446929931640625	-0.0191925048828125	198.021257500044
0.4425048828125	-0.019329833984375	198.043382499989
0.438079833984375	-0.0194671630859375	198.065507499933
0.43365478515625	-0.019598388671875	198.087632499877
0.429229736328125	-0.019732666015625	198.109757499821
0.4248046875	-0.01986083984375	198.131882499765
0.420379638671875	-0.0199859619140625	198.154007499709
0.41595458984375	-0.020111083984375	198.176132499653
0.411529541015625	-0.0202362060546875	198.198257499598
0.4071044921875	-0.020355224609375	198.220382499542
0.402679443359375	-0.0204742431640625	198.242507499486
0.39825439453125	-0.0205963134765625	198.26463249943
0.393829345703125	-0.02071533203125	198.286757499374
0.389404296875	-0.020831298828125	198.308882499318
0.384979248046875	-0.0209503173828125	198.331007499262
0.38055419921875	-0.021063232421875	198.353132499206
0.376129150390625	-0.02117919921875	198.375257499151
0.3717041015625	-0.021295166015625	198.397382499095
0.367279052734375	-0.0214080810546875	198.419507499039
0.36285400390625	-0.02152099609375	198.441632498983
0.358428955078125	-0.0216339111328125	198.463757498927
0.35400390625	-0.02174072265625	198.485882498871
0.349578857421875	-0.0218505859375	198.508007498815
0.34515380859375	-0.0219573974609375	198.53013249876
0.340728759765625	-0.022064208984375	198.552257498704
0.3363037109375	-0.022174072265625	198.574382498648
0.331878662109375	-0.0222808837890625	198.596507498592
0.32745361328125	-0.0223876953125	198.618632498536
0.323028564453125	-0.0224945068359375	198.64075749848
0.318603515625	-0.0225982666015625	198.662882498424
0.314178466796875	-0.022698974609375	198.685007498369
0.30975341796875	-0.022808837890625	198.707132498313
0.305328369140625	-0.02291259765625	198.729257498257
0.3009033203125	-0.023016357421875	198.751382498201
0.296478271484375	-0.0231201171875	198.773507498145
0.29205322265625	-0.0232208251953125	198.795632498089
0.287628173828125	-0.023321533203125	198.817757498033
0.283203125	-0.0234222412109375	198.839882497978
0.278778076171875	-0.023516845703125	198.862007497922
0.27435302734375	-0.0236175537109375	198.884132497866
0.269927978515625	-0.02371826171875	198.90625749781
0.2655029296875	-0.0238189697265625	198.928382497754
0.261077880859375	-0.02391357421875	198.950507497698
0.25665283203125	-0.0240142822265625	198.972632497642
0.252227783203125	-0.0241119384765625	198.994757497587
0.247802734375	-0.0242095947265625	199.016882497531
0.243377685546875	-0.02430419921875	199.039007497475
0.23895263671875	-0.0243988037109375	199.061132497419
0.234527587890625	-0.0244964599609375	199.083257497363
0.2301025390625	-0.0245941162109375	199.105382497307
0.225677490234375	-0.0246856689453125	199.127507497251
0.22125244140625	-0.0247833251953125	199.149632497196
0.216827392578125	-0.0248779296875	199.17175749714
0.21240234375	-0.024969482421875	199.193882497084
0.207977294921875	-0.02506103515625	199.216007497028
0.20355224609375	-0.0251556396484375	199.238132496972
0.199127197265625	-0.0252471923828125	199.260257496916
0.1947021484375	-0.025341796875	199.28238249686
0.190277099609375	-0.0254425048828125	199.304507496804
0.18585205078125	-0.0255340576171875	199.326632496749
0.181427001953125	-0.0256256103515625	199.348757496693
0.177001953125	-0.0257171630859375	199.370882496637
0.172576904296875	-0.0258087158203125	199.393007496581
0.16815185546875	-0.0259033203125	199.415132496525
0.163726806640625	-0.0259979248046875	199.437257496469
0.1593017578125	-0.0260894775390625	199.459382496413
0.154876708984375	-0.026177978515625	199.481507496358
0.15045166015625	-0.02626953125	199.503632496302
0.146026611328125	-0.0263580322265625	199.525757496246
0.1416015625	-0.0264495849609375	199.54788249619
0.137176513671875	-0.0265411376953125	199.570007496134
0.13275146484375	-0.0266265869140625	199.592132496078
0.128326416015625	-0.0267181396484375	199.614257496022
0.1239013671875	-0.026806640625	199.636382495967
0.119476318359375	-0.026898193359375	199.658507495911
0.11505126953125	-0.0269866943359375	199.680632495855
0.110626220703125	-0.0270782470703125	199.702757495799
0.106201171875	-0.027166748046875	199.724882495743
0.101776123046875	-0.0272552490234375	199.747007495687
0.09735107421875	-0.02734375	199.769132495631
0.092926025390625	-0.027435302734375	199.791257495576
0.0885009765625	-0.0275238037109375	199.81338249552
0.084075927734375	-0.0276123046875	199.835507495464
0.07965087890625	-0.027703857421875	199.857632495408
0.075225830078125	-0.0277923583984375	199.879757495352
0.07080078125	-0.0278778076171875	199.901882495296
0.066375732421875	-0.02796630859375	199.92400749524
0.06195068359375	-0.0280548095703125	199.946132495185
0.057525634765625	-0.0281402587890625	199.968257495129
0.0531005859375	-0.0282318115234375	199.990382495073
0.048675537109375	-0.0283172607421875	200.012507495017
0.04425048828125	-0.0284027099609375	200.034632494961
0.039825439453125	-0.0284942626953125	200.056757494905
0.035400390625	-0.028582763671875	200.078882494849
0.030975341796875	-0.0286712646484375	200.101007494794
0.02655029296875	-0.028759765625	200.123132494738
0.022125244140625	-0.0288482666015625	200.145257494682
0.0177001953125	-0.028936767578125	200.167382494626
0.013275146484375	-0.0290252685546875	200.18950749457
0.00885009765625	-0.0291107177734375	200.211632494514
0.004425048828125	-0.02919921875	200.233757494458
0	-0.0292877197265625	200.255882494402
0.004425048828125	-0.0283538818359375	200.278007494347
0.00885009765625	-0.02745361328125	200.300132494291
0.013275146484375	-0.02657470703125	200.322257494235
0.0177001953125	-0.0257171630859375	200.344382494179
0.022125244140625	-0.0248779296875	200.366507494123
0.02655029296875	-0.02406005859375	200.388632494067
0.030975341796875	-0.02325439453125	200.410757494011
0.035400390625	-0.0224609375	200.432882493956
0.039825439453125	-0.0216888427734375	200.4550074939
0.04425048828125	-0.0209259033203125	200.477132493844
0.048675537109375	-0.0201812744140625	200.499257493788
0.0531005859375	-0.0194488525390625	200.521382493732
0.057525634765625	-0.0187286376953125	200.543507493676
0.06195068359375	-0.018017578125	200.56563249362
0.066375732421875	-0.01732177734375	200.587757493565
0.07080078125	-0.01663818359375	200.609882493509
0.075225830078125	-0.0159637451171875	200.632007493453
0.07965087890625	-0.015301513671875	200.654132493397
0.084075927734375	-0.0146484375	200.676257493341
0.0885009765625	-0.014007568359375	200.698382493285
0.092926025390625	-0.013372802734375	200.720507493229
0.09735107421875	-0.012750244140625	200.742632493174
0.101776123046875	-0.0121368408203125	200.764757493118
0.106201171875	-0.0115325927734375	200.786882493062
0.110626220703125	-0.0109375	200.809007493006
0.11505126953125	-0.0103515625	200.83113249295
0.119476318359375	-0.00977783203125	200.853257492894
0.1239013671875	-0.0092071533203125	200.875382492838
0.128326416015625	-0.0086456298828125	200.897507492783
0.13275146484375	-0.00809326171875	200.919632492727
0.137176513671875	-0.007550048828125	200.941757492671
0.1416015625	-0.007012939453125	200.963882492615
0.146026611328125	-0.0064788818359375	200.986007492559
0.15045166015625	-0.00595703125	201.008132492503
0.154876708984375	-0.0054412841796875	201.030257492447
0.1593017578125	-0.00493560791015625	201.052382492392
0.163726806640625	-0.00443328857421875	201.074507492336
0.16815185546875	-0.003939208984375	201.09663249228
0.172576904296875	-0.00345123291015625	201.118757492224
0.177001953125	-0.002969970703125	201.140882492168
0.181427001953125	-0.0025048828125	201.163007492112
0.18585205078125	-0.0020355224609375	201.185132492056
0.190277099609375	-0.00157196044921875	201.207257492001
0.1947021484375	-0.00111480712890625	201.229382491945
0.199127197265625	-0.00066375732421875	201.251507491889
0.20355224609375	-0.000218536376953125	201.273632491833
0.207977294921875	0.00022021484375	201.295757491777
0.21240234375	0.0006536865234375	201.317882491721
0.216827392578125	0.0010821533203125	201.340007491665
0.22125244140625	0.0015045166015625	201.362132491609
0.225677490234375	0.00192230224609375	201.384257491554
0.2301025390625	0.00233428955078125	201.406382491498
0.234527587890625	0.0027392578125	201.428507491442
0.23895263671875	0.0031402587890625	201.450632491386
0.243377685546875	0.00353607177734375	201.47275749133
0.247802734375	0.00392608642578125	201.494882491274
0.252227783203125	0.00431121826171875	201.517007491218
0.25665283203125	0.00469085693359375	201.539132491163
0.261077880859375	0.00506683349609375	201.561257491107
0.2655029296875	0.00543914794921875	201.583382491051
0.269927978515625	0.00580413818359375	201.605507490995
0.27435302734375	0.00616424560546875	201.627632490939
0.278778076171875	0.0065093994140625	201.649757490883
0.283203125	0.0068603515625	201.671882490827
0.287628173828125	0.0072052001953125	201.694007490772
0.29205322265625	0.0075469970703125	201.716132490716
0.296478271484375	0.0078826904296875	201.73825749066
0.3009033203125	0.00821533203125	201.760382490604
0.305328369140625	0.0085418701171875	201.782507490548
0.30975341796875	0.0088653564453125	201.804632490492
0.314178466796875	0.0091888427734375	201.826757490436
0.318603515625	0.0095001220703125	201.848882490381
0.323028564453125	0.0098114013671875	201.871007490325
0.32745361328125	0.0101165771484375	201.893132490269
0.331878662109375	0.0104156494140625	201.915257490213
0.3363037109375	0.0107147216796875	201.937382490157
0.340728759765625	0.0110076904296875	201.959507490101
0.34515380859375	0.0113006591796875	201.981632490045
0.349578857421875	0.0115966796875	202.00375748999
0.35400390625	0.0118804931640625	202.025882489934
0.358428955078125	0.0121612548828125	202.048007489878
0.36285400390625	0.0124359130859375	202.070132489822
0.367279052734375	0.0127044677734375	202.092257489766
0.3717041015625	0.0129730224609375	202.11438248971
0.376129150390625	0.013238525390625	202.136507489654
0.38055419921875	0.013494873046875	202.158632489599
0.384979248046875	0.0137481689453125	202.180757489543
0.389404296875	0.01400146484375	202.202882489487
0.393829345703125	0.01424560546875	202.225007489431
0.39825439453125	0.01448974609375	202.247132489375
0.402679443359375	0.0147308349609375	202.269257489319
0.4071044921875	0.0149658203125	202.291382489263
0.411529541015625	0.0152008056640625	202.313507489207
0.41595458984375	0.0154327392578125	202.335632489152
0.420379638671875	0.015655517578125	202.357757489096
0.4248046875	0.01588134765625	202.37988248904
0.429229736328125	0.01610107421875	202.402007488984
0.43365478515625	0.0163177490234375	202.424132488928
0.438079833984375	0.0165313720703125	202.446257488872
0.4425048828125	0.016741943359375	202.468382488816
0.446929931640625	0.016949462890625	202.490507488761
0.45135498046875	0.01715087890625	202.512632488705
0.455780029296875	0.017352294921875	202.534757488649
0.460205078125	0.017547607421875	202.556882488593
0.464630126953125	0.0177490234375	202.579007488537
0.46905517578125	0.0179473876953125	202.601132488481
0.473480224609375	0.0181427001953125	202.623257488425
0.4779052734375	0.0183319091796875	202.64538248837
0.482330322265625	0.0185211181640625	202.667507488314
0.48675537109375	0.018701171875	202.689632488258
0.491180419921875	0.018878173828125	202.711757488202
0.49560546875	0.0190521240234375	202.733882488146
0.500030517578125	0.01922607421875	202.75600748809
0.50445556640625	0.0193939208984375	202.778132488034
0.508880615234375	0.0195587158203125	202.800257487979
0.5133056640625	0.0197265625	202.822382487923
0.517730712890625	0.0198883056640625	202.844507487867
0.52215576171875	0.0200714111328125	202.866632487811
0.526580810546875	0.0202423095703125	202.888757487755
0.531005859375	0.0203887939453125	202.910882487699
0.535430908203125	0.0205291748046875	202.933007487643
0.53985595703125	0.02066650390625	202.955132487588
0.544281005859375	0.0208282470703125	202.977257487532
0.5487060546875	0.0209808349609375	202.999382487476
0.553131103515625	0.021148681640625	203.02150748742
0.55755615234375	0.0212982177734375	203.043632487364
0.561981201171875	0.0214385986328125	203.065757487308
0.56640625	0.021575927734375	203.087882487252
0.570831298828125	0.021710205078125	203.110007487197
0.57525634765625	0.0218414306640625	203.132132487141
0.579681396484375	0.0219696044921875	203.154257487085
0.5841064453125	0.0220977783203125	203.176382487029
0.588531494140625	0.0222198486328125	203.198507486973
0.59295654296875	0.022344970703125	203.220632486917
0.597381591796875	0.0224700927734375	203.242757486861
0.601806640625	0.0225830078125	203.264882486806
0.606231689453125	0.0226959228515625	203.28700748675
0.61065673828125	0.02281494140625	203.309132486694
0.615081787109375	0.0229248046875	203.331257486638
0.6195068359375	0.0230377197265625	203.353382486582
0.623931884765625	0.02314453125	203.375507486526
0.62835693359375	0.0232574462890625	203.39763248647
0.632781982421875	0.0233612060546875	203.419757486414
0.63720703125	0.0234588623046875	203.441882486359
0.641632080078125	0.0235626220703125	203.464007486303
0.64605712890625	0.0236602783203125	203.486132486247
0.650482177734375	0.0237579345703125	203.508257486191
0.6549072265625	0.0238525390625	203.530382486135
0.659332275390625	0.023944091796875	203.552507486079
0.66375732421875	0.02403564453125	203.574632486023
0.668182373046875	0.0241241455078125	203.596757485968
0.672607421875	0.0242095947265625	203.618882485912
0.677032470703125	0.0242950439453125	203.641007485856
0.68145751953125	0.02437744140625	203.6631324858
0.685882568359375	0.024462890625	203.685257485744
0.6903076171875	0.024542236328125	203.707382485688
0.694732666015625	0.02462158203125	203.729507485632
0.69915771484375	0.0246978759765625	203.751632485577
0.703582763671875	0.0247711181640625	203.773757485521
0.7080078125	0.0248443603515625	203.795882485465
0.712432861328125	0.0249176025390625	203.818007485409
0.71685791015625	0.02498779296875	203.840132485353
0.721282958984375	0.0250518798828125	203.862257485297
0.7257080078125	0.0251220703125	203.884382485241
0.730133056640625	0.0251861572265625	203.906507485186
0.73455810546875	0.0252532958984375	203.92863248513
0.738983154296875	0.0253143310546875	203.950757485074
0.743408203125	0.025372314453125	203.972882485018
0.747833251953125	0.025433349609375	203.995007484962
0.75225830078125	0.0254913330078125	204.017132484906
0.756683349609375	0.02554931640625	204.03925748485
0.7611083984375	0.025604248046875	204.061382484795
0.765533447265625	0.0256591796875	204.083507484739
0.76995849609375	0.025714111328125	204.105632484683
0.774383544921875	0.0257659912109375	204.127757484627
0.77880859375	0.02581787109375	204.149882484571
0.783233642578125	0.0258697509765625	204.172007484515
0.78765869140625	0.02591552734375	204.194132484459
0.792083740234375	0.0259613037109375	204.216257484404
0.7965087890625	0.02601318359375	204.238382484348
0.800933837890625	0.0260589599609375	204.260507484292
0.80535888671875	0.0261016845703125	204.282632484236
0.809783935546875	0.0261474609375	204.30475748418
0.814208984375	0.0261932373046875	204.326882484124
0.818634033203125	0.0262359619140625	204.349007484068
0.82305908203125	0.0262786865234375	204.371132484012
0.827484130859375	0.026318359375	204.393257483957
0.8319091796875	0.026361083984375	204.415382483901
0.836334228515625	0.0264007568359375	204.437507483845
0.84075927734375	0.0264434814453125	204.459632483789
0.845184326171875	0.026483154296875	204.481757483733
0.849609375	0.026519775390625	204.503882483677
0.854034423828125	0.0265594482421875	204.526007483621
0.85845947265625	0.0265960693359375	204.548132483566
0.862884521484375	0.026629638671875	204.57025748351
0.8673095703125	0.026666259765625	204.592382483454
0.871734619140625	0.0267059326171875	204.614507483398
0.87615966796875	0.02674560546875	204.636632483342
0.880584716796875	0.0267822265625	204.658757483286
0.885009765625	0.02681884765625	204.68088248323
0.889434814453125	0.0268524169921875	204.703007483175
0.89385986328125	0.02689208984375	204.725132483119
0.898284912109375	0.0269256591796875	204.747257483063
0.9027099609375	0.0269622802734375	204.769382483007
0.907135009765625	0.027001953125	204.791507482951
0.91156005859375	0.0270416259765625	204.813632482895
0.915985107421875	0.0270751953125	204.835757482839
0.92041015625	0.0271148681640625	204.857882482784
0.924835205078125	0.0271514892578125	204.880007482728
0.92926025390625	0.0271942138671875	204.902132482672
0.933685302734375	0.02723388671875	204.924257482616
0.9381103515625	0.0272796630859375	204.94638248256
0.942535400390625	0.0273193359375	204.968507482504
0.94696044921875	0.0273590087890625	204.990632482448
0.951385498046875	0.027398681640625	205.012757482393
0.955810546875	0.02744140625	205.034882482337
0.960235595703125	0.027484130859375	205.057007482281
0.96466064453125	0.0275299072265625	205.079132482225
0.969085693359375	0.0275787353515625	205.101257482169
0.9735107421875	0.02762451171875	205.123382482113
0.977935791015625	0.0276702880859375	205.145507482057
0.98236083984375	0.0277191162109375	205.167632482002
0.986785888671875	0.0277679443359375	205.189757481946
0.9912109375	0.02781982421875	205.21188248189
0.995635986328125	0.027874755859375	205.234007481834
1.00006103515625	0.0279266357421875	205.256132481778
0.995635986328125	0.0269622802734375	205.278257481722
0.9912109375	0.0260345458984375	205.300382481666
0.986785888671875	0.0251312255859375	205.322507481611
0.98236083984375	0.02425537109375	205.344632481555
0.977935791015625	0.0234039306640625	205.366757481499
0.9735107421875	0.0225738525390625	205.388882481443
0.969085693359375	0.0217559814453125	205.411007481387
0.96466064453125	0.0209564208984375	205.433132481331
0.960235595703125	0.02017822265625	205.455257481275
0.955810546875	0.0194122314453125	205.477382481219
0.951385498046875	0.01866455078125	205.499507481164
0.94696044921875	0.01793212890625	205.521632481108
0.942535400390625	0.0172119140625	205.543757481052
0.9381103515625	0.016510009765625	205.565882480996
0.933685302734375	0.015814208984375	205.58800748094
0.92926025390625	0.0151336669921875	205.610132480884
0.924835205078125	0.0144683837890625	205.632257480828
0.92041015625	0.0138153076171875	205.654382480773
0.915985107421875	0.0131744384765625	205.676507480717
0.91156005859375	0.012542724609375	205.698632480661
0.907135009765625	0.01192626953125	205.720757480605
0.9027099609375	0.01131591796875	205.742882480549
0.898284912109375	0.0107208251953125	205.765007480493
0.89385986328125	0.0101287841796875	205.787132480437
0.889434814453125	0.0095489501953125	205.809257480382
0.885009765625	0.0089813232421875	205.831382480326
0.880584716796875	0.0084228515625	205.85350748027
0.87615966796875	0.0078704833984375	205.875632480214
0.871734619140625	0.007330322265625	205.897757480158
0.8673095703125	0.00679931640625	205.919882480102
0.862884521484375	0.0062713623046875	205.942007480046
0.85845947265625	0.0057586669921875	205.964132479991
0.854034423828125	0.0052490234375	205.986257479935
0.849609375	0.00474945068359375	206.008382479879
0.845184326171875	0.00425750732421875	206.030507479823
0.84075927734375	0.00377227783203125	206.052632479767
0.836334228515625	0.00329559326171875	206.074757479711
0.8319091796875	0.0028253173828125	206.096882479655
0.827484130859375	0.0023638916015625	206.1190074796
0.82305908203125	0.00190704345703125	206.141132479544
0.818634033203125	0.00145751953125	206.163257479488
0.814208984375	0.001014404296875	206.185382479432
0.809783935546875	0.00057861328125	206.207507479376
0.80535888671875	0.00014837646484375	206.22963247932
0.800933837890625	-0.0002745361328125	206.251757479264
0.7965087890625	-0.0006915283203125	206.273882479209
0.792083740234375	-0.00110137939453125	206.296007479153
0.78765869140625	-0.0015057373046875	206.318132479097
0.783233642578125	-0.001904296875	206.340257479041
0.77880859375	-0.0022955322265625	206.362382478985
0.774383544921875	-0.002681884765625	206.384507478929
0.76995849609375	-0.0030621337890625	206.406632478873
0.765533447265625	-0.00343719482421875	206.428757478817
0.7611083984375	-0.0038067626953125	206.450882478762
0.756683349609375	-0.00416961669921875	206.473007478706
0.75225830078125	-0.0045281982421875	206.49513247865
0.747833251953125	-0.00488067626953125	206.517257478594
0.743408203125	-0.00522796630859375	206.539382478538
0.738983154296875	-0.00556732177734375	206.561507478482
0.73455810546875	-0.0059039306640625	206.583632478426
0.730133056640625	-0.0062353515625	206.605757478371
0.7257080078125	-0.006536865234375	206.627882478315
0.721282958984375	-0.0068572998046875	206.650007478259
0.71685791015625	-0.0071746826171875	206.672132478203
0.712432861328125	-0.0074859619140625	206.694257478147
0.7080078125	-0.0077911376953125	206.716382478091
0.703582763671875	-0.008087158203125	206.738507478035
0.69915771484375	-0.0083831787109375	206.76063247798
0.694732666015625	-0.0086761474609375	206.782757477924
0.6903076171875	-0.0089599609375	206.804882477868
0.685882568359375	-0.0092437744140625	206.827007477812
0.68145751953125	-0.009521484375	206.849132477756
0.677032470703125	-0.009796142578125	206.8712574777
0.672607421875	-0.010064697265625	206.893382477644
0.668182373046875	-0.0103271484375	206.915507477589
0.66375732421875	-0.010589599609375	206.937632477533
0.659332275390625	-0.0108489990234375	206.959757477477
0.6549072265625	-0.01109619140625	206.981882477421
0.650482177734375	-0.0113433837890625	207.004007477365
0.64605712890625	-0.011590576171875	207.026132477309
0.641632080078125	-0.0118316650390625	207.048257477253
0.63720703125	-0.0120697021484375	207.070382477198
0.632781982421875	-0.0123016357421875	207.092507477142
0.62835693359375	-0.012530517578125	207.114632477086
0.623931884765625	-0.0127593994140625	207.13675747703
0.6195068359375	-0.012982177734375	207.158882476974
0.615081787109375	-0.013201904296875	207.181007476918
0.61065673828125	-0.01341552734375	207.203132476862
0.606231689453125	-0.013629150390625	207.225257476807
0.601806640625	-0.013836669921875	207.247382476751
0.597381591796875	-0.0140411376953125	207.269507476695
0.59295654296875	-0.014239501953125	207.291632476639
0.588531494140625	-0.01444091796875	207.313757476583
0.5841064453125	-0.0146392822265625	207.335882476527
0.579681396484375	-0.0148406982421875	207.358007476471
0.57525634765625	-0.015032958984375	207.380132476415
0.570831298828125	-0.0152191162109375	207.40225747636
0.56640625	-0.0154052734375	207.424382476304
0.561981201171875	-0.01558837890625	207.446507476248
0.55755615234375	-0.0157623291015625	207.468632476192
0.553131103515625	-0.0159393310546875	207.490757476136
0.5487060546875	-0.0161102294921875	207.51288247608
0.544281005859375	-0.01627197265625	207.535007476024
0.53985595703125	-0.0164306640625	207.557132475969
0.535430908203125	-0.0166046142578125	207.579257475913
0.531005859375	-0.0167724609375	207.601382475857
0.526580810546875	-0.0169464111328125	207.623507475801
0.52215576171875	-0.017108154296875	207.645632475745
0.517730712890625	-0.0172576904296875	207.667757475689
0.5133056640625	-0.017413330078125	207.689882475633
0.508880615234375	-0.01756591796875	207.712007475578
0.50445556640625	-0.0177215576171875	207.734132475522
0.500030517578125	-0.0178741455078125	207.756257475466
0.49560546875	-0.0180206298828125	207.77838247541
0.491180419921875	-0.0181671142578125	207.800507475354
0.48675537109375	-0.0183135986328125	207.822632475298
0.482330322265625	-0.01845703125	207.844757475242
0.4779052734375	-0.0186004638671875	207.866882475187
0.473480224609375	-0.018743896484375	207.889007475131
0.46905517578125	-0.0188873291015625	207.911132475075
0.464630126953125	-0.0190277099609375	207.933257475019
0.460205078125	-0.0191619873046875	207.955382474963
0.455780029296875	-0.019293212890625	207.977507474907
0.45135498046875	-0.0194244384765625	207.999632474851
0.446929931640625	-0.0195526123046875	208.021757474796
0.4425048828125	-0.0196807861328125	208.04388247474
0.438079833984375	-0.019805908203125	208.066007474684
0.43365478515625	-0.0199310302734375	208.088132474628
0.429229736328125	-0.02005615234375	208.110257474572
0.4248046875	-0.0201751708984375	208.132382474516
0.420379638671875	-0.020294189453125	208.15450747446
0.41595458984375	-0.0204132080078125	208.176632474405
0.411529541015625	-0.0205322265625	208.198757474349
0.4071044921875	-0.020648193359375	208.220882474293
0.402679443359375	-0.0207672119140625	208.243007474237
0.39825439453125	-0.0208831787109375	208.265132474181
0.393829345703125	-0.0209991455078125	208.287257474125
0.389404296875	-0.021112060546875	208.309382474069
0.384979248046875	-0.0212249755859375	208.331507474014
0.38055419921875	-0.0213348388671875	208.353632473958
0.376129150390625	-0.0214447021484375	208.375757473902
0.3717041015625	-0.0215545654296875	208.397882473846
0.367279052734375	-0.021661376953125	208.42000747379
0.36285400390625	-0.021771240234375	208.442132473734
0.358428955078125	-0.0218780517578125	208.464257473678
0.35400390625	-0.02198486328125	208.486382473622
0.349578857421875	-0.022088623046875	208.508507473567
0.34515380859375	-0.0221923828125	208.530632473511
0.340728759765625	-0.0222991943359375	208.552757473455
0.3363037109375	-0.02239990234375	208.574882473399
0.331878662109375	-0.022503662109375	208.597007473343
0.32745361328125	-0.0226104736328125	208.619132473287
0.323028564453125	-0.022705078125	208.641257473231
0.318603515625	-0.022808837890625	208.663382473176
0.314178466796875	-0.0229095458984375	208.68550747312
0.30975341796875	-0.023016357421875	208.707632473064
0.305328369140625	-0.023114013671875	208.729757473008
0.3009033203125	-0.0232147216796875	208.751882472952
0.296478271484375	-0.0233123779296875	208.774007472896
0.29205322265625	-0.0234100341796875	208.79613247284
0.287628173828125	-0.023504638671875	208.818257472785
0.283203125	-0.023602294921875	208.840382472729
0.278778076171875	-0.023699951171875	208.862507472673
0.27435302734375	-0.023797607421875	208.884632472617
0.269927978515625	-0.023895263671875	208.906757472561
0.2655029296875	-0.023992919921875	208.928882472505
0.261077880859375	-0.0240875244140625	208.951007472449
0.25665283203125	-0.0241851806640625	208.973132472394
0.252227783203125	-0.0242767333984375	208.995257472338
0.247802734375	-0.0243682861328125	209.017382472282
0.243377685546875	-0.024462890625	209.039507472226
0.23895263671875	-0.0245574951171875	209.06163247217
0.234527587890625	-0.0246490478515625	209.083757472114
0.2301025390625	-0.02474365234375	209.105882472058
0.225677490234375	-0.0248382568359375	209.128007472003
0.22125244140625	-0.024932861328125	209.150132471947
0.216827392578125	-0.025018310546875	209.172257471891
0.21240234375	-0.025115966796875	209.194382471835
0.207977294921875	-0.0252044677734375	209.216507471779
0.20355224609375	-0.0252960205078125	209.238632471723
0.199127197265625	-0.0253875732421875	209.260757471667
0.1947021484375	-0.02547607421875	209.282882471612
0.190277099609375	-0.025567626953125	209.305007471556
0.18585205078125	-0.025665283203125	209.3271324715
0.181427001953125	-0.0257537841796875	209.349257471444
0.177001953125	-0.02584228515625	209.371382471388
0.172576904296875	-0.0259307861328125	209.393507471332
0.16815185546875	-0.026019287109375	209.415632471276
0.163726806640625	-0.02611083984375	209.43775747122
0.1593017578125	-0.026202392578125	209.459882471165
0.154876708984375	-0.0262908935546875	209.482007471109
0.15045166015625	-0.0263824462890625	209.504132471053
0.146026611328125	-0.026470947265625	209.526257470997
0.1416015625	-0.026556396484375	209.548382470941
0.137176513671875	-0.0266448974609375	209.570507470885
0.13275146484375	-0.0267303466796875	209.592632470829
0.128326416015625	-0.0268218994140625	209.614757470774
0.1239013671875	-0.026910400390625	209.636882470718
0.119476318359375	-0.0269989013671875	209.659007470662
0.11505126953125	-0.0270843505859375	209.681132470606
0.110626220703125	-0.0271759033203125	209.70325747055
0.106201171875	-0.0272613525390625	209.725382470494
0.101776123046875	-0.027349853515625	209.747507470438
0.09735107421875	-0.0274383544921875	209.769632470383
0.092926025390625	-0.02752685546875	209.791757470327
0.0885009765625	-0.0276123046875	209.813882470271
0.084075927734375	-0.0277008056640625	209.836007470215
0.07965087890625	-0.0277862548828125	209.858132470159
0.075225830078125	-0.027874755859375	209.880257470103
0.07080078125	-0.027960205078125	209.902382470047
0.066375732421875	-0.028045654296875	209.924507469992
0.06195068359375	-0.028131103515625	209.946632469936
0.057525634765625	-0.028216552734375	209.96875746988
0.0531005859375	-0.0283050537109375	209.990882469824
0.048675537109375	-0.0283935546875	210.013007469768
0.04425048828125	-0.02847900390625	210.035132469712
0.039825439453125	-0.0285675048828125	210.057257469656
0.035400390625	-0.0286529541015625	210.079382469601
0.030975341796875	-0.0287384033203125	210.101507469545
0.02655029296875	-0.028826904296875	210.123632469489
0.022125244140625	-0.028912353515625	210.145757469433
0.0177001953125	-0.028997802734375	210.167882469377
0.013275146484375	-0.0290802001953125	210.190007469321
0.00885009765625	-0.029168701171875	210.212132469265
0.004425048828125	-0.029254150390625	210.23425746921
0	-0.029345703125	210.256382469154
0.004425048828125	-0.028411865234375	210.278507469098
0.00885009765625	-0.027508544921875	210.300632469042
0.013275146484375	-0.026629638671875	210.322757468986
0.0177001953125	-0.025775146484375	210.34488246893
0.022125244140625	-0.024932861328125	210.367007468874
0.02655029296875	-0.02410888671875	210.389132468819
0.030975341796875	-0.0233062744140625	210.411257468763
0.035400390625	-0.022515869140625	210.433382468707
0.039825439453125	-0.02174072265625	210.455507468651
0.04425048828125	-0.020977783203125	210.477632468595
0.048675537109375	-0.020233154296875	210.499757468539
0.0531005859375	-0.0194976806640625	210.521882468483
0.057525634765625	-0.0187744140625	210.544007468427
0.06195068359375	-0.0180633544921875	210.566132468372
0.066375732421875	-0.0173675537109375	210.588257468316
0.07080078125	-0.0166839599609375	210.61038246826
0.075225830078125	-0.016009521484375	210.632507468204
0.07965087890625	-0.0153472900390625	210.654632468148
0.084075927734375	-0.0146942138671875	210.676757468092
0.0885009765625	-0.0140533447265625	210.698882468036
0.092926025390625	-0.0134185791015625	210.721007467981
0.09735107421875	-0.0127960205078125	210.743132467925
0.101776123046875	-0.0121826171875	210.765257467869
0.106201171875	-0.011578369140625	210.787382467813
0.110626220703125	-0.010980224609375	210.809507467757
0.11505126953125	-0.0103973388671875	210.831632467701
0.119476318359375	-0.009820556640625	210.853757467645
0.1239013671875	-0.0092529296875	210.87588246759
0.128326416015625	-0.0086883544921875	210.898007467534
0.13275146484375	-0.008135986328125	210.920132467478
0.137176513671875	-0.0075927734375	210.942257467422
0.1416015625	-0.0070526123046875	210.964382467366
0.146026611328125	-0.006524658203125	210.98650746731
0.15045166015625	-0.005999755859375	211.008632467254
0.154876708984375	-0.00548095703125	211.030757467199
0.1593017578125	-0.004976806640625	211.052882467143
0.163726806640625	-0.00447601318359375	211.075007467087
0.16815185546875	-0.00398040771484375	211.097132467031
0.172576904296875	-0.003492431640625	211.119257466975
0.177001953125	-0.00301177978515625	211.141382466919
0.181427001953125	-0.00254638671875	211.163507466863
0.18585205078125	-0.002076416015625	211.185632466808
0.190277099609375	-0.00161285400390625	211.207757466752
0.1947021484375	-0.00115509033203125	211.229882466696
0.199127197265625	-0.000704345703125	211.25200746664
0.20355224609375	-0.00025933837890625	211.274132466584
0.207977294921875	0.00018017578125	211.296257466528
0.21240234375	0.0006134033203125	211.318382466472
0.216827392578125	0.001041259765625	211.340507466417
0.22125244140625	0.00146453857421875	211.362632466361
0.225677490234375	0.0018817138671875	211.384757466305
0.2301025390625	0.0022943115234375	211.406882466249
0.234527587890625	0.00269989013671875	211.429007466193
0.23895263671875	0.0031005859375	211.451132466137
0.243377685546875	0.00349609375	211.473257466081
0.247802734375	0.00388702392578125	211.495382466025
0.252227783203125	0.0042724609375	211.51750746597
0.25665283203125	0.00465179443359375	211.539632465914
0.261077880859375	0.00502716064453125	211.561757465858
0.2655029296875	0.00539886474609375	211.583882465802
0.269927978515625	0.005765380859375	211.606007465746
0.27435302734375	0.00612548828125	211.62813246569
0.278778076171875	0.0064697265625	211.650257465634
0.283203125	0.0068206787109375	211.672382465579
0.287628173828125	0.0071685791015625	211.694507465523
0.29205322265625	0.0075103759765625	211.716632465467
0.296478271484375	0.007843017578125	211.738757465411
0.3009033203125	0.0081756591796875	211.760882465355
0.305328369140625	0.0085052490234375	211.783007465299
0.30975341796875	0.0088287353515625	211.805132465243
0.314178466796875	0.0091522216796875	211.827257465188
0.318603515625	0.0094635009765625	211.849382465132
0.323028564453125	0.0097747802734375	211.871507465076
0.32745361328125	0.0100799560546875	211.89363246502
0.331878662109375	0.0103790283203125	211.915757464964
0.3363037109375	0.0106781005859375	211.937882464908
0.340728759765625	0.010968017578125	211.960007464852
0.34515380859375	0.011260986328125	211.982132464797
0.349578857421875	0.011553955078125	212.004257464741
0.35400390625	0.0118377685546875	212.026382464685
0.358428955078125	0.01212158203125	212.048507464629
0.36285400390625	0.012396240234375	212.070632464573
0.367279052734375	0.012664794921875	212.092757464517
0.3717041015625	0.012933349609375	212.114882464461
0.376129150390625	0.0131988525390625	212.137007464406
0.38055419921875	0.013458251953125	212.15913246435
0.384979248046875	0.0137115478515625	212.181257464294
0.389404296875	0.0139617919921875	212.203382464238
0.393829345703125	0.0142059326171875	212.225507464182
0.39825439453125	0.014453125	212.247632464126
0.402679443359375	0.0146942138671875	212.26975746407
0.4071044921875	0.0149322509765625	212.291882464015
0.411529541015625	0.0151641845703125	212.314007463959
0.41595458984375	0.0153961181640625	212.336132463903
0.420379638671875	0.0156219482421875	212.358257463847
0.4248046875	0.0158447265625	212.380382463791
0.429229736328125	0.016064453125	212.402507463735
0.43365478515625	0.0162811279296875	212.424632463679
0.438079833984375	0.0164947509765625	212.446757463623
0.4425048828125	0.016705322265625	212.468882463568
0.446929931640625	0.0169097900390625	212.491007463512
0.45135498046875	0.0171173095703125	212.513132463456
0.455780029296875	0.0173126220703125	212.5352574634
0.460205078125	0.0175140380859375	212.557382463344
0.464630126953125	0.017706298828125	212.579507463288
0.46905517578125	0.017901611328125	212.601632463232
0.473480224609375	0.0180938720703125	212.623757463177
0.4779052734375	0.0182891845703125	212.645882463121
0.482330322265625	0.018475341796875	212.668007463065
0.48675537109375	0.018658447265625	212.690132463009
0.491180419921875	0.018841552734375	212.712257462953
0.49560546875	0.0190155029296875	212.734382462897
0.500030517578125	0.019189453125	212.756507462841
0.50445556640625	0.0193572998046875	212.778632462786
0.508880615234375	0.019525146484375	212.80075746273
0.5133056640625	0.019683837890625	212.822882462674
0.517730712890625	0.0198455810546875	212.845007462618
0.52215576171875	0.0200042724609375	212.867132462562
0.526580810546875	0.020172119140625	212.889257462506
0.531005859375	0.020343017578125	212.91138246245
0.535430908203125	0.0204986572265625	212.933507462395
0.53985595703125	0.02064208984375	212.955632462339
0.544281005859375	0.0207733154296875	212.977757462283
0.5487060546875	0.02091064453125	212.999882462227
0.553131103515625	0.0210693359375	213.022007462171
0.55755615234375	0.0212249755859375	213.044132462115
0.561981201171875	0.0213836669921875	213.066257462059
0.56640625	0.0215240478515625	213.088382462004
0.570831298828125	0.021661376953125	213.110507461948
0.57525634765625	0.0217926025390625	213.132632461892
0.579681396484375	0.021917724609375	213.154757461836
0.5841064453125	0.0220458984375	213.17688246178
0.588531494140625	0.02216796875	213.199007461724
0.59295654296875	0.0222900390625	213.221132461668
0.597381591796875	0.022412109375	213.243257461613
0.601806640625	0.0225311279296875	213.265382461557
0.606231689453125	0.0226470947265625	213.287507461501
0.61065673828125	0.022760009765625	213.309632461445
0.615081787109375	0.022869873046875	213.331757461389
0.6195068359375	0.0229766845703125	213.353882461333
0.623931884765625	0.023089599609375	213.376007461277
0.62835693359375	0.0231964111328125	213.398132461222
0.632781982421875	0.02330322265625	213.420257461166
0.63720703125	0.023406982421875	213.44238246111
0.641632080078125	0.0235015869140625	213.464507461054
0.64605712890625	0.0235992431640625	213.486632460998
0.650482177734375	0.02369384765625	213.508757460942
0.6549072265625	0.0237884521484375	213.530882460886
0.659332275390625	0.0238800048828125	213.55300746083
0.66375732421875	0.023968505859375	213.575132460775
0.668182373046875	0.0240570068359375	213.597257460719
0.672607421875	0.0241455078125	213.619382460663
0.677032470703125	0.0242279052734375	213.641507460607
0.68145751953125	0.0243133544921875	213.663632460551
0.685882568359375	0.024395751953125	213.685757460495
0.6903076171875	0.02447509765625	213.707882460439
0.694732666015625	0.0245513916015625	213.730007460384
0.69915771484375	0.024627685546875	213.752132460328
0.703582763671875	0.024700927734375	213.774257460272
0.7080078125	0.024774169921875	213.796382460216
0.712432861328125	0.024847412109375	213.81850746016
0.71685791015625	0.02491455078125	213.840632460104
0.721282958984375	0.0249847412109375	213.862757460048
0.7257080078125	0.0250457763671875	213.884882459993
0.730133056640625	0.025115966796875	213.907007459937
0.73455810546875	0.0251739501953125	213.929132459881
0.738983154296875	0.025238037109375	213.951257459825
0.743408203125	0.02529296875	213.973382459769
0.747833251953125	0.02535400390625	213.995507459713
0.75225830078125	0.0254119873046875	214.017632459657
0.756683349609375	0.0254669189453125	214.039757459602
0.7611083984375	0.02552490234375	214.061882459546
0.765533447265625	0.025579833984375	214.08400745949
0.76995849609375	0.0256317138671875	214.106132459434
0.774383544921875	0.0256805419921875	214.128257459378
0.77880859375	0.0257354736328125	214.150382459322
0.783233642578125	0.02578125	214.172507459266
0.78765869140625	0.0258331298828125	214.194632459211
0.792083740234375	0.025885009765625	214.216757459155
0.7965087890625	0.025927734375	214.238882459099
0.800933837890625	0.0259735107421875	214.261007459043
0.80535888671875	0.026019287109375	214.283132458987
0.809783935546875	0.02606201171875	214.305257458931
0.814208984375	0.026104736328125	214.327382458875
0.818634033203125	0.0261474609375	214.34950745882
0.82305908203125	0.026190185546875	214.371632458764
0.827484130859375	0.02623291015625	214.393757458708
0.8319091796875	0.0262725830078125	214.415882458652
0.836334228515625	0.0263153076171875	214.438007458596
0.84075927734375	0.02635498046875	214.46013245854
0.845184326171875	0.0263946533203125	214.482257458484
0.849609375	0.026434326171875	214.504382458428
0.854034423828125	0.026470947265625	214.526507458373
0.85845947265625	0.026507568359375	214.548632458317
0.862884521484375	0.026544189453125	214.570757458261
0.8673095703125	0.026580810546875	214.592882458205
0.871734619140625	0.026617431640625	214.615007458149
0.87615966796875	0.026654052734375	214.637132458093
0.880584716796875	0.026690673828125	214.659257458037
0.885009765625	0.026727294921875	214.681382457982
0.889434814453125	0.026763916015625	214.703507457926
0.89385986328125	0.026800537109375	214.72563245787
0.898284912109375	0.0268341064453125	214.747757457814
0.9027099609375	0.0268707275390625	214.769882457758
0.907135009765625	0.0269073486328125	214.792007457702
0.91156005859375	0.0269439697265625	214.814132457646
0.915985107421875	0.026983642578125	214.836257457591
0.92041015625	0.0270233154296875	214.858382457535
0.924835205078125	0.0270599365234375	214.880507457479
0.92926025390625	0.027099609375	214.902632457423
0.933685302734375	0.0271392822265625	214.924757457367
0.9381103515625	0.0271820068359375	214.946882457311
0.942535400390625	0.0272216796875	214.969007457255
0.94696044921875	0.0272613525390625	214.9911324572
0.951385498046875	0.0273040771484375	215.013257457144
0.955810546875	0.02734375	215.035382457088
0.960235595703125	0.027386474609375	215.057507457032
0.96466064453125	0.0274322509765625	215.079632456976
0.969085693359375	0.0274749755859375	215.10175745692
0.9735107421875	0.0275177001953125	215.123882456864
0.977935791015625	0.0275665283203125	215.146007456809
0.98236083984375	0.0276123046875	215.168132456753
0.986785888671875	0.0276611328125	215.190257456697
0.9912109375	0.0277099609375	215.212382456641
0.995635986328125	0.027764892578125	215.234507456585
1.00006103515625	0.0278167724609375	215.256632456529
0.995635986328125	0.0268524169921875	215.278757456473
0.9912109375	0.025927734375	215.300882456418
0.986785888671875	0.0250244140625	215.323007456362
0.98236083984375	0.0241485595703125	215.345132456306
0.977935791015625	0.0232940673828125	215.36725745625
0.9735107421875	0.0224578857421875	215.389382456194
0.969085693359375	0.02164306640625	215.411507456138
0.96466064453125	0.0208465576171875	215.433632456082
0.960235595703125	0.020068359375	215.455757456027
0.955810546875	0.01929931640625	215.477882455971
0.951385498046875	0.0185546875	215.500007455915
0.94696044921875	0.0178192138671875	215.522132455859
0.942535400390625	0.0171051025390625	215.544257455803
0.9381103515625	0.0163970947265625	215.566382455747
0.933685302734375	0.015704345703125	215.588507455691
0.92926025390625	0.01502685546875	215.610632455635
0.924835205078125	0.014361572265625	215.63275745558
0.92041015625	0.0137115478515625	215.654882455524
0.915985107421875	0.013067626953125	215.677007455468
0.91156005859375	0.01243896484375	215.699132455412
0.907135009765625	0.0118194580078125	215.721257455356
0.9027099609375	0.011212158203125	215.7433824553
0.898284912109375	0.0106170654296875	215.765507455244
0.89385986328125	0.010028076171875	215.787632455189
0.889434814453125	0.0094482421875	215.809757455133
0.885009765625	0.008880615234375	215.831882455077
0.880584716796875	0.0083221435546875	215.854007455021
0.87615966796875	0.00777587890625	215.876132454965
0.871734619140625	0.007232666015625	215.898257454909
0.8673095703125	0.0066986083984375	215.920382454853
0.862884521484375	0.0061767578125	215.942507454798
0.85845947265625	0.005657958984375	215.964632454742
0.854034423828125	0.0051513671875	215.986757454686
0.849609375	0.00465301513671875	216.00888245463
0.845184326171875	0.00416229248046875	216.031007454574
0.84075927734375	0.003677978515625	216.053132454518
0.836334228515625	0.00320159912109375	216.075257454462
0.8319091796875	0.00273162841796875	216.097382454407
0.827484130859375	0.00227142333984375	216.119507454351
0.82305908203125	0.0018145751953125	216.141632454295
0.818634033203125	0.00136566162109375	216.163757454239
0.814208984375	0.00092376708984375	216.185882454183
0.809783935546875	0.000488006591796875	216.208007454127
0.80535888671875	5.902099609375E-05	216.230132454071
0.800933837890625	-0.0003636474609375	216.252257454016
0.7965087890625	-0.00077911376953125	216.27438245396
0.792083740234375	-0.0011883544921875	216.296507453904
0.78765869140625	-0.00159149169921875	216.318632453848
0.783233642578125	-0.00198974609375	216.340757453792
0.77880859375	-0.00237945556640625	216.362882453736
0.774383544921875	-0.0027655029296875	216.38500745368
0.76995849609375	-0.00314483642578125	216.407132453625
0.765533447265625	-0.00351837158203125	216.429257453569
0.7611083984375	-0.0038873291015625	216.451382453513
0.756683349609375	-0.00424957275390625	216.473507453457
0.75225830078125	-0.00460662841796875	216.495632453401
0.747833251953125	-0.00495880126953125	216.517757453345
0.743408203125	-0.0053057861328125	216.539882453289
0.738983154296875	-0.00564300537109375	216.562007453233
0.73455810546875	-0.00597930908203125	216.584132453178
0.730133056640625	-0.006309814453125	216.606257453122
0.7257080078125	-0.006610107421875	216.628382453066
0.721282958984375	-0.0069305419921875	216.65050745301
0.71685791015625	-0.007244873046875	216.672632452954
0.712432861328125	-0.00755615234375	216.694757452898
0.7080078125	-0.007855224609375	216.716882452842
0.703582763671875	-0.0081573486328125	216.739007452787
0.69915771484375	-0.0084503173828125	216.761132452731
0.694732666015625	-0.008740234375	216.783257452675
0.6903076171875	-0.009027099609375	216.805382452619
0.685882568359375	-0.009307861328125	216.827507452563
0.68145751953125	-0.00958251953125	216.849632452507
0.677032470703125	-0.009857177734375	216.871757452451
0.672607421875	-0.010125732421875	216.893882452396
0.668182373046875	-0.01038818359375	216.91600745234
0.66375732421875	-0.0106475830078125	216.938132452284
0.659332275390625	-0.0109039306640625	216.960257452228
0.6549072265625	-0.011151123046875	216.982382452172
0.650482177734375	-0.0114013671875	217.004507452116
0.64605712890625	-0.0116455078125	217.02663245206
0.641632080078125	-0.011883544921875	217.048757452005
0.63720703125	-0.01212158203125	217.070882451949
0.632781982421875	-0.012353515625	217.093007451893
0.62835693359375	-0.012579345703125	217.115132451837
0.623931884765625	-0.0128082275390625	217.137257451781
0.6195068359375	-0.0130279541015625	217.159382451725
0.615081787109375	-0.0132476806640625	217.181507451669
0.61065673828125	-0.013458251953125	217.203632451614
0.606231689453125	-0.0136688232421875	217.225757451558
0.601806640625	-0.0138763427734375	217.247882451502
0.597381591796875	-0.014080810546875	217.270007451446
0.59295654296875	-0.0142913818359375	217.29213245139
0.588531494140625	-0.0144927978515625	217.314257451334
0.5841064453125	-0.0146881103515625	217.336382451278
0.579681396484375	-0.01488037109375	217.358507451223
0.57525634765625	-0.015069580078125	217.380632451167
0.570831298828125	-0.015252685546875	217.402757451111
0.56640625	-0.015435791015625	217.424882451055
0.561981201171875	-0.0156158447265625	217.447007450999
0.55755615234375	-0.01578369140625	217.469132450943
0.553131103515625	-0.015948486328125	217.491257450887
0.5487060546875	-0.0161285400390625	217.513382450832
0.544281005859375	-0.016302490234375	217.535507450776
0.53985595703125	-0.0164794921875	217.55763245072
0.535430908203125	-0.016650390625	217.579757450664
0.531005859375	-0.01680908203125	217.601882450608
0.526580810546875	-0.0169708251953125	217.624007450552
0.52215576171875	-0.0171295166015625	217.646132450496
0.517730712890625	-0.01728515625	217.66825745044
0.5133056640625	-0.0174407958984375	217.690382450385
0.508880615234375	-0.017596435546875	217.712507450329
0.50445556640625	-0.0177459716796875	217.734632450273
0.500030517578125	-0.0178985595703125	217.756757450217
0.49560546875	-0.0180450439453125	217.778882450161
0.491180419921875	-0.0181915283203125	217.801007450105
0.48675537109375	-0.0183380126953125	217.823132450049
0.482330322265625	-0.0184844970703125	217.845257449994
0.4779052734375	-0.0186279296875	217.867382449938
0.473480224609375	-0.0187652587890625	217.889507449882
0.46905517578125	-0.018902587890625	217.911632449826
0.464630126953125	-0.019036865234375	217.93375744977
0.460205078125	-0.0191741943359375	217.955882449714
0.455780029296875	-0.0193023681640625	217.978007449658
0.45135498046875	-0.01943359375	218.000132449603
0.446929931640625	-0.0195587158203125	218.022257449547
0.4425048828125	-0.0196868896484375	218.044382449491
0.438079833984375	-0.01981201171875	218.066507449435
0.43365478515625	-0.019940185546875	218.088632449379
0.429229736328125	-0.0200592041015625	218.110757449323
0.4248046875	-0.0201812744140625	218.132882449267
0.420379638671875	-0.02030029296875	218.155007449212
0.41595458984375	-0.020416259765625	218.177132449156
0.411529541015625	-0.020538330078125	218.1992574491
0.4071044921875	-0.0206512451171875	218.221382449044
0.402679443359375	-0.0207672119140625	218.243507448988
0.39825439453125	-0.0208831787109375	218.265632448932
0.393829345703125	-0.02099609375	218.287757448876
0.389404296875	-0.0211090087890625	218.309882448821
0.384979248046875	-0.021221923828125	218.332007448765
0.38055419921875	-0.0213348388671875	218.354132448709
0.376129150390625	-0.0214447021484375	218.376257448653
0.3717041015625	-0.0215545654296875	218.398382448597
0.367279052734375	-0.021661376953125	218.420507448541
0.36285400390625	-0.0217681884765625	218.442632448485
0.358428955078125	-0.0218719482421875	218.46475744843
0.35400390625	-0.0219818115234375	218.486882448374
0.349578857421875	-0.02208251953125	218.509007448318
0.34515380859375	-0.0221893310546875	218.531132448262
0.340728759765625	-0.0222900390625	218.553257448206
0.3363037109375	-0.0223968505859375	218.57538244815
0.331878662109375	-0.02249755859375	218.597507448094
0.32745361328125	-0.0225982666015625	218.619632448038
0.323028564453125	-0.022698974609375	218.641757447983
0.318603515625	-0.0227996826171875	218.663882447927
0.314178466796875	-0.0229034423828125	218.686007447871
0.30975341796875	-0.023004150390625	218.708132447815
0.305328369140625	-0.0231048583984375	218.730257447759
0.3009033203125	-0.0232025146484375	218.752382447703
0.296478271484375	-0.02330322265625	218.774507447647
0.29205322265625	-0.02340087890625	218.796632447592
0.287628173828125	-0.0234954833984375	218.818757447536
0.283203125	-0.023590087890625	218.84088244748
0.278778076171875	-0.023687744140625	218.863007447424
0.27435302734375	-0.0237823486328125	218.885132447368
0.269927978515625	-0.0238800048828125	218.907257447312
0.2655029296875	-0.023974609375	218.929382447256
0.261077880859375	-0.0240692138671875	218.951507447201
0.25665283203125	-0.024163818359375	218.973632447145
0.252227783203125	-0.0242584228515625	218.995757447089
0.247802734375	-0.02435302734375	219.017882447033
0.243377685546875	-0.024444580078125	219.040007446977
0.23895263671875	-0.0245391845703125	219.062132446921
0.234527587890625	-0.0246337890625	219.084257446865
0.2301025390625	-0.024725341796875	219.10638244681
0.225677490234375	-0.0248199462890625	219.128507446754
0.22125244140625	-0.02491455078125	219.150632446698
0.216827392578125	-0.025	219.172757446642
0.21240234375	-0.025091552734375	219.194882446586
0.207977294921875	-0.02518310546875	219.21700744653
0.20355224609375	-0.025274658203125	219.239132446474
0.199127197265625	-0.0253631591796875	219.261257446419
0.1947021484375	-0.02545166015625	219.283382446363
0.190277099609375	-0.025543212890625	219.305507446307
0.18585205078125	-0.025634765625	219.327632446251
0.181427001953125	-0.025726318359375	219.349757446195
0.177001953125	-0.02581787109375	219.371882446139
0.172576904296875	-0.025909423828125	219.394007446083
0.16815185546875	-0.025994873046875	219.416132446028
0.163726806640625	-0.02608642578125	219.438257445972
0.1593017578125	-0.026177978515625	219.460382445916
0.154876708984375	-0.026263427734375	219.48250744586
0.15045166015625	-0.0263519287109375	219.504632445804
0.146026611328125	-0.0264434814453125	219.526757445748
0.1416015625	-0.026531982421875	219.548882445692
0.137176513671875	-0.026617431640625	219.571007445636
0.13275146484375	-0.0267059326171875	219.593132445581
0.128326416015625	-0.02679443359375	219.615257445525
0.1239013671875	-0.0268829345703125	219.637382445469
0.119476318359375	-0.0269683837890625	219.659507445413
0.11505126953125	-0.027056884765625	219.681632445357
0.110626220703125	-0.027142333984375	219.703757445301
0.106201171875	-0.0272308349609375	219.725882445245
0.101776123046875	-0.0273193359375	219.74800744519
0.09735107421875	-0.0274078369140625	219.770132445134
0.092926025390625	-0.0274932861328125	219.792257445078
0.0885009765625	-0.0275787353515625	219.814382445022
0.084075927734375	-0.0276702880859375	219.836507444966
0.07965087890625	-0.0277557373046875	219.85863244491
0.075225830078125	-0.0278411865234375	219.880757444854
0.07080078125	-0.0279266357421875	219.902882444799
0.066375732421875	-0.0280120849609375	219.925007444743
0.06195068359375	-0.0280975341796875	219.947132444687
0.057525634765625	-0.0281829833984375	219.969257444631
0.0531005859375	-0.028271484375	219.991382444575
0.048675537109375	-0.02835693359375	220.013507444519
0.04425048828125	-0.0284454345703125	220.035632444463
0.039825439453125	-0.028533935546875	220.057757444408
0.035400390625	-0.0286163330078125	220.079882444352
0.030975341796875	-0.028704833984375	220.102007444296
0.02655029296875	-0.0287933349609375	220.12413244424
0.022125244140625	-0.028875732421875	220.146257444184
0.0177001953125	-0.0289642333984375	220.168382444128
0.013275146484375	-0.0290557861328125	220.190507444072
0.00885009765625	-0.0291412353515625	220.212632444017
0.004425048828125	-0.0292266845703125	220.234757443961
0	-0.029315185546875	220.256882443905
0.004425048828125	-0.02838134765625	220.279007443849
0.00885009765625	-0.02747802734375	220.301132443793
0.013275146484375	-0.0265960693359375	220.323257443737
