Potential applied (V)	WE(1).Current (A)	Time (s)
0.004425048828125	0.0005224609375	1628.42034688863
0.00885009765625	0.00058380126953125	1629.3053568864
0.013275146484375	0.00062744140625	1630.19036688417
0.0177001953125	0.00066009521484375	1631.07537688193
0.022125244140625	0.0006866455078125	1631.9603868797
0.02655029296875	0.0007073974609375	1632.84539687746
0.030975341796875	0.0007257080078125	1633.73040687523
0.035400390625	0.0007403564453125	1634.61541687299
0.039825439453125	0.00075439453125	1635.50042687076
0.04425048828125	0.00076507568359375	1636.38543686852
0.048675537109375	0.00077484130859375	1637.27044686629
0.0531005859375	0.00078369140625	1638.15545686405
0.057525634765625	0.000791015625	1639.04046686182
0.06195068359375	0.00079742431640625	1639.92547685959
0.066375732421875	0.00080413818359375	1640.81048685735
0.07080078125	0.0008087158203125	1641.69549685512
0.075225830078125	0.00081329345703125	1642.58050685288
0.07965087890625	0.00081573486328125	1643.46551685065
0.084075927734375	0.000819091796875	1644.35052684841
0.0885009765625	0.00082183837890625	1645.23553684618
0.092926025390625	0.0008245849609375	1646.12054684395
0.09735107421875	0.00082672119140625	1647.00555684171
0.101776123046875	0.00082794189453125	1647.89056683948
0.106201171875	0.0008294677734375	1648.77557683724
0.110626220703125	0.00082977294921875	1649.66058683501
0.11505126953125	0.00083099365234375	1650.54559683277
0.119476318359375	0.00082977294921875	1651.43060683054
0.1239013671875	0.00083038330078125	1652.3156168283
0.128326416015625	0.0008306884765625	1653.20062682607
0.13275146484375	0.0008306884765625	1654.08563682384
0.137176513671875	0.00083038330078125	1654.9706468216
0.1416015625	0.000830078125	1655.85565681937
0.146026611328125	0.000830078125	1656.74066681713
0.15045166015625	0.00082977294921875	1657.6256768149
0.154876708984375	0.00082916259765625	1658.51068681266
0.1593017578125	0.00082794189453125	1659.39569681043
0.163726806640625	0.00082763671875	1660.28070680819
0.16815185546875	0.00082733154296875	1661.16571680596
0.172576904296875	0.00082672119140625	1662.05072680373
0.177001953125	0.0008258056640625	1662.93573680149
0.181427001953125	0.00082550048828125	1663.82074679926
0.18585205078125	0.00082489013671875	1664.70575679702
0.190277099609375	0.00082427978515625	1665.59076679479
0.1947021484375	0.000823974609375	1666.47577679255
0.199127197265625	0.00082305908203125	1667.36078679032
0.20355224609375	0.00082275390625	1668.24579678808
0.207977294921875	0.0008221435546875	1669.13080678585
0.21240234375	0.0008221435546875	1670.01581678362
0.216827392578125	0.00082183837890625	1670.90082678138
0.22125244140625	0.00082183837890625	1671.78583677915
0.225677490234375	0.000821533203125	1672.67084677691
0.2301025390625	0.00082122802734375	1673.55585677468
0.234527587890625	0.00082061767578125	1674.44086677244
0.23895263671875	0.0008209228515625	1675.32587677021
0.243377685546875	0.0008209228515625	1676.21088676797
0.247802734375	0.0008209228515625	1677.09589676574
0.252227783203125	0.00082122802734375	1677.98090676351
0.25665283203125	0.00082183837890625	1678.86591676127
0.261077880859375	0.00082183837890625	1679.75092675904
0.2655029296875	0.00082244873046875	1680.6359367568
0.269927978515625	0.00082275390625	1681.52094675457
0.27435302734375	0.00082305908203125	1682.40595675233
0.278778076171875	0.00082366943359375	1683.2909667501
0.283203125	0.000823974609375	1684.17597674786
0.287628173828125	0.0008245849609375	1685.06098674563
0.29205322265625	0.00082489013671875	1685.9459967434
0.296478271484375	0.00082550048828125	1686.83100674116
0.3009033203125	0.00082611083984375	1687.71601673893
0.305328369140625	0.00082672119140625	1688.60102673669
0.30975341796875	0.00082733154296875	1689.48603673446
0.314178466796875	0.00082977294921875	1690.37104673222
0.318603515625	0.000828857421875	1691.25605672999
0.323028564453125	0.00082855224609375	1692.14106672775
0.32745361328125	0.00082855224609375	1693.02607672552
0.331878662109375	0.0008282470703125	1693.91108672329
0.3363037109375	0.0008282470703125	1694.79609672105
0.340728759765625	0.0008282470703125	1695.68110671882
0.34515380859375	0.00082763671875	1696.56611671658
0.349578857421875	0.0008270263671875	1697.45112671435
0.35400390625	0.00082550048828125	1698.33613671211
0.358428955078125	0.0008251953125	1699.22114670988
0.36285400390625	0.0008245849609375	1700.10615670764
0.367279052734375	0.00082366943359375	1700.99116670541
0.3717041015625	0.00082275390625	1701.87617670318
0.376129150390625	0.00082122802734375	1702.76118670094
0.38055419921875	0.00082000732421875	1703.64619669871
0.384979248046875	0.0008184814453125	1704.53120669647
0.389404296875	0.00081634521484375	1705.41621669424
0.393829345703125	0.000814208984375	1706.301226692
0.39825439453125	0.0008123779296875	1707.18623668977
0.402679443359375	0.0008111572265625	1708.07124668753
0.4071044921875	0.00080841064453125	1708.9562566853
0.411529541015625	0.000806884765625	1709.84126668307
0.41595458984375	0.0008050537109375	1710.72627668083
0.420379638671875	0.0008026123046875	1711.6112866786
0.4248046875	0.00080078125	1712.49629667636
0.429229736328125	0.00079925537109375	1713.38130667413
0.43365478515625	0.00079681396484375	1714.26631667189
0.438079833984375	0.00079498291015625	1715.15132666966
0.4425048828125	0.00079315185546875	1716.03633666742
0.446929931640625	0.0007916259765625	1716.92134666519
0.45135498046875	0.00078948974609375	1717.80635666296
0.455780029296875	0.0007879638671875	1718.69136666072
0.460205078125	0.00078643798828125	1719.57637665849
0.464630126953125	0.00078460693359375	1720.46138665625
0.46905517578125	0.00078277587890625	1721.34639665402
0.473480224609375	0.00078155517578125	1722.23140665178
0.4779052734375	0.00078033447265625	1723.11641664955
0.482330322265625	0.0007794189453125	1724.00142664731
0.48675537109375	0.0007781982421875	1724.88643664508
0.491180419921875	0.00077728271484375	1725.77144664285
0.49560546875	0.0007763671875	1726.65645664061
0.500030517578125	0.00077606201171875	1727.54146663838
0.50445556640625	0.000775146484375	1728.42647663614
0.508880615234375	0.0007745361328125	1729.31148663391
0.5133056640625	0.0007745361328125	1730.19649663167
0.517730712890625	0.00077392578125	1731.08150662944
0.52215576171875	0.00077392578125	1731.9665166272
0.526580810546875	0.00077362060546875	1732.85152662497
0.531005859375	0.00077392578125	1733.73653662274
0.535430908203125	0.00077423095703125	1734.6215466205
0.53985595703125	0.00077484130859375	1735.50655661827
0.544281005859375	0.00077545166015625	1736.39156661603
0.5487060546875	0.00077545166015625	1737.2765766138
0.553131103515625	0.0007763671875	1738.16158661156
0.55755615234375	0.000777587890625	1739.04659660933
0.561981201171875	0.00077911376953125	1739.9316066071
0.56640625	0.000780029296875	1740.81661660486
0.570831298828125	0.00078155517578125	1741.70162660263
0.57525634765625	0.0007830810546875	1742.58663660039
0.579681396484375	0.00078521728515625	1743.47164659816
0.5841064453125	0.0007867431640625	1744.35665659592
0.588531494140625	0.0007879638671875	1745.24166659369
0.59295654296875	0.00079010009765625	1746.12667659145
0.597381591796875	0.0007928466796875	1747.01168658922
0.601806640625	0.00079559326171875	1747.89669658698
0.606231689453125	0.00079864501953125	1748.78170658475
0.61065673828125	0.0008013916015625	1749.66671658252
0.615081787109375	0.000804443359375	1750.55172658028
0.6195068359375	0.00080810546875	1751.43673657805
0.623931884765625	0.000811767578125	1752.32174657581
0.62835693359375	0.00081756591796875	1753.20675657358
0.632781982421875	0.00082061767578125	1754.09176657134
0.63720703125	0.00082366943359375	1754.97677656911
0.641632080078125	0.0008282470703125	1755.86178656688
0.64605712890625	0.00083282470703125	1756.74679656464
0.650482177734375	0.00083709716796875	1757.63180656241
0.6549072265625	0.0008416748046875	1758.51681656017
0.659332275390625	0.0008465576171875	1759.40182655794
0.66375732421875	0.00085205078125	1760.2868365557
0.668182373046875	0.000858154296875	1761.17184655347
0.672607421875	0.00086334228515625	1762.05685655123
0.677032470703125	0.0008697509765625	1762.941866549
0.68145751953125	0.00087615966796875	1763.82687654677
0.685882568359375	0.00088287353515625	1764.71188654453
0.6903076171875	0.0008905029296875	1765.5968965423
0.694732666015625	0.00089752197265625	1766.48190654006
0.69915771484375	0.00090545654296875	1767.36691653783
0.703582763671875	0.0009124755859375	1768.25192653559
0.7080078125	0.00092193603515625	1769.13693653336
0.712432861328125	0.000931396484375	1770.02194653112
0.71685791015625	0.00094024658203125	1770.90695652889
0.721282958984375	0.00095062255859375	1771.79196652666
0.7257080078125	0.00096038818359375	1772.67697652442
0.730133056640625	0.0009716796875	1773.56198652219
0.73455810546875	0.0009832763671875	1774.44699651995
0.738983154296875	0.00099517822265625	1775.33200651772
0.743408203125	0.00100677490234375	1776.21701651548
0.747833251953125	0.0010198974609375	1777.10202651325
0.75225830078125	0.00103424072265625	1777.98703651101
0.756683349609375	0.0010498046875	1778.87204650878
0.7611083984375	0.0010650634765625	1779.75705650655
0.765533447265625	0.00108154296875	1780.64206650431
0.76995849609375	0.00109832763671875	1781.52707650208
0.774383544921875	0.00111602783203125	1782.41208649984
0.77880859375	0.00113494873046875	1783.29709649761
0.783233642578125	0.0011541748046875	1784.18210649537
0.78765869140625	0.00117523193359375	1785.06711649314
0.792083740234375	0.00119781494140625	1785.9521264909
0.7965087890625	0.00122100830078125	1786.83713648867
0.800933837890625	0.00124481201171875	1787.72214648644
0.80535888671875	0.001270751953125	1788.6071564842
0.809783935546875	0.001297607421875	1789.49216648197
0.814208984375	0.0013250732421875	1790.37717647973
0.818634033203125	0.0013543701171875	1791.2621864775
0.82305908203125	0.00138519287109375	1792.14719647526
0.827484130859375	0.00141754150390625	1793.03220647303
0.8319091796875	0.0014508056640625	1793.91721647079
0.836334228515625	0.0014862060546875	1794.80222646856
0.84075927734375	0.00152252197265625	1795.68723646633
0.845184326171875	0.00156158447265625	1796.57224646409
0.849609375	0.0016015625	1797.45725646186
0.854034423828125	0.00164276123046875	1798.34226645962
0.85845947265625	0.00168670654296875	1799.22727645739
0.862884521484375	0.00173126220703125	1800.11228645515
0.8673095703125	0.00177886962890625	1800.99729645292
0.871734619140625	0.00182830810546875	1801.88230645068
0.87615966796875	0.00187896728515625	1802.76731644845
0.880584716796875	0.00193267822265625	1803.65232644622
0.885009765625	0.00198760986328125	1804.53733644398
0.889434814453125	0.0020440673828125	1805.42234644175
0.89385986328125	0.002103271484375	1806.30735643951
0.898284912109375	0.00216461181640625	1807.19236643728
0.9027099609375	0.0022271728515625	1808.07737643504
0.907135009765625	0.00229248046875	1808.96238643281
0.91156005859375	0.00235992431640625	1809.84739643057
0.915985107421875	0.00242889404296875	1810.73240642834
0.92041015625	0.00250152587890625	1811.61741642611
0.924835205078125	0.00257476806640625	1812.50242642387
0.92926025390625	0.0026507568359375	1813.38743642164
0.933685302734375	0.00272857666015625	1814.2724464194
0.9381103515625	0.0028118896484375	1815.15745641717
0.942535400390625	0.00289276123046875	1816.04246641493
0.94696044921875	0.0029766845703125	1816.9274764127
0.951385498046875	0.003062744140625	1817.81248641046
0.955810546875	0.003150634765625	1818.69749640823
0.960235595703125	0.00324249267578125	1819.582506406
0.96466064453125	0.00333465576171875	1820.46751640376
0.969085693359375	0.0034307861328125	1821.35252640153
0.9735107421875	0.00352783203125	1822.23753639929
0.977935791015625	0.00362701416015625	1823.12254639706
0.98236083984375	0.0037298583984375	1824.00755639482
0.986785888671875	0.00383392333984375	1824.89256639259
0.9912109375	0.00394287109375	1825.77757639035
0.995635986328125	0.00405181884765625	1826.66258638812
1.00006103515625	0.00416534423828125	1827.54759638589
0.995635986328125	0.0035980224609375	1828.43260638365
0.9912109375	0.00315673828125	1829.31761638142
0.986785888671875	0.002786865234375	1830.20262637918
0.98236083984375	0.002464599609375	1831.08763637695
0.977935791015625	0.0021783447265625	1831.97264637471
0.9735107421875	0.00192108154296875	1832.85765637248
0.969085693359375	0.00168670654296875	1833.74266637024
0.96466064453125	0.00147247314453125	1834.62767636801
0.960235595703125	0.00127593994140625	1835.51268636578
0.955810546875	0.00109527587890625	1836.39769636354
0.951385498046875	0.00092987060546875	1837.28270636131
0.94696044921875	0.00077728271484375	1838.16771635907
0.942535400390625	0.000635986328125	1839.05272635684
0.9381103515625	0.000506591796875	1839.9377363546
0.933685302734375	0.000384979248046875	1840.82274635237
0.92926025390625	0.000275482177734375	1841.70775635013
0.924835205078125	0.000173919677734375	1842.5927663479
0.92041015625	8.0291748046875E-05	1843.47777634567
0.915985107421875	-6.0302734375E-06	1844.36278634343
0.91156005859375	-8.55712890625E-05	1845.2477963412
0.907135009765625	-0.000159088134765625	1846.13280633896
0.9027099609375	-0.000226898193359375	1847.01781633673
0.898284912109375	-0.00028961181640625	1847.90282633449
0.89385986328125	-0.0003468017578125	1848.78783633226
0.889434814453125	-0.0004000244140625	1849.67284633003
0.885009765625	-0.00044940185546875	1850.55785632779
0.880584716796875	-0.00049395751953125	1851.44286632556
0.87615966796875	-0.000535858154296875	1852.32787632332
0.871734619140625	-0.0005740966796875	1853.21288632109
0.8673095703125	-0.000609405517578125	1854.09789631885
0.862884521484375	-0.00064178466796875	1854.98290631662
0.85845947265625	-0.0006707763671875	1855.86791631438
0.854034423828125	-0.0006988525390625	1856.75292631215
0.849609375	-0.00072479248046875	1857.63793630991
0.845184326171875	-0.00074737548828125	1858.52294630768
0.84075927734375	-0.00076934814453125	1859.40795630545
0.836334228515625	-0.00078857421875	1860.29296630321
0.8319091796875	-0.00080718994140625	1861.17797630098
0.827484130859375	-0.00082366943359375	1862.06298629874
0.82305908203125	-0.00083984375	1862.94799629651
0.818634033203125	-0.00085357666015625	1863.83300629427
0.814208984375	-0.00086669921875	1864.71801629204
0.809783935546875	-0.00087860107421875	1865.60302628981
0.80535888671875	-0.00089019775390625	1866.48803628757
0.800933837890625	-0.00090057373046875	1867.37304628534
0.7965087890625	-0.00091033935546875	1868.2580562831
0.792083740234375	-0.0009185791015625	1869.14306628087
0.78765869140625	-0.0009259033203125	1870.02807627863
0.783233642578125	-0.0009326171875	1870.9130862764
0.77880859375	-0.0009381103515625	1871.79809627416
0.774383544921875	-0.00094329833984375	1872.68310627193
0.76995849609375	-0.00094757080078125	1873.5681162697
0.765533447265625	-0.000950927734375	1874.45312626746
0.7611083984375	-0.000953369140625	1875.33813626523
0.756683349609375	-0.00095550537109375	1876.22314626299
0.75225830078125	-0.00095703125	1877.10815626076
0.747833251953125	-0.000958251953125	1877.99316625852
0.743408203125	-0.0009588623046875	1878.87817625629
0.738983154296875	-0.00095733642578125	1879.76318625405
0.73455810546875	-0.00095855712890625	1880.64819625182
0.730133056640625	-0.00095916748046875	1881.53320624959
0.7257080078125	-0.0009576416015625	1882.41821624735
0.721282958984375	-0.00095489501953125	1883.30322624512
0.71685791015625	-0.00095367431640625	1884.18823624288
0.712432861328125	-0.000950927734375	1885.07324624065
0.7080078125	-0.0009490966796875	1885.95825623841
0.703582763671875	-0.0009466552734375	1886.84326623618
0.69915771484375	-0.00094390869140625	1887.72827623394
0.694732666015625	-0.000941162109375	1888.61328623171
0.6903076171875	-0.00093902587890625	1889.49829622948
0.685882568359375	-0.00093658447265625	1890.38330622724
0.68145751953125	-0.00093353271484375	1891.26831622501
0.677032470703125	-0.0009307861328125	1892.15332622277
0.672607421875	-0.000927734375	1893.03833622054
0.668182373046875	-0.0009246826171875	1893.9233462183
0.66375732421875	-0.0009222412109375	1894.80835621607
0.659332275390625	-0.000919189453125	1895.69336621383
0.6549072265625	-0.0009161376953125	1896.5783762116
0.650482177734375	-0.00091339111328125	1897.46338620937
0.64605712890625	-0.00091064453125	1898.34839620713
0.641632080078125	-0.00090789794921875	1899.2334062049
0.63720703125	-0.0009051513671875	1900.11841620266
0.632781982421875	-0.00090240478515625	1901.00342620043
0.62835693359375	-0.00089996337890625	1901.88843619819
0.623931884765625	-0.000899658203125	1902.77344619596
0.6195068359375	-0.00089569091796875	1903.65845619372
0.615081787109375	-0.00089263916015625	1904.54346619149
0.61065673828125	-0.00088958740234375	1905.42847618926
0.606231689453125	-0.00088653564453125	1906.31348618702
0.601806640625	-0.00088409423828125	1907.19849618479
0.597381591796875	-0.0008819580078125	1908.08350618255
0.59295654296875	-0.0008795166015625	1908.96851618032
0.588531494140625	-0.00087738037109375	1909.85352617808
0.5841064453125	-0.00087432861328125	1910.73853617585
0.579681396484375	-0.00087310791015625	1911.62354617361
0.57525634765625	-0.00087127685546875	1912.50855617138
0.570831298828125	-0.00086944580078125	1913.39356616915
0.56640625	-0.000867919921875	1914.27857616691
0.561981201171875	-0.00086639404296875	1915.16358616468
0.55755615234375	-0.0008648681640625	1916.04859616244
0.553131103515625	-0.00086334228515625	1916.93360616021
0.5487060546875	-0.0008624267578125	1917.81861615797
0.544281005859375	-0.000860595703125	1918.70362615574
0.53985595703125	-0.000859375	1919.5886361535
0.535430908203125	-0.00085845947265625	1920.47364615127
0.531005859375	-0.000858154296875	1921.35865614904
0.526580810546875	-0.0008575439453125	1922.2436661468
0.52215576171875	-0.00085662841796875	1923.12867614457
0.517730712890625	-0.00085601806640625	1924.01368614233
0.5133056640625	-0.000855712890625	1924.8986961401
0.508880615234375	-0.0008551025390625	1925.78370613786
0.50445556640625	-0.00085479736328125	1926.66871613563
0.500030517578125	-0.0008551025390625	1927.55372613339
0.49560546875	-0.00085479736328125	1928.43873613116
0.491180419921875	-0.0008551025390625	1929.32374612893
0.48675537109375	-0.00085540771484375	1930.20875612669
0.482330322265625	-0.000855712890625	1931.09376612446
0.4779052734375	-0.000855712890625	1931.97877612222
0.473480224609375	-0.00085601806640625	1932.86378611999
0.46905517578125	-0.00085693359375	1933.74879611775
0.464630126953125	-0.00085723876953125	1934.63380611552
0.460205078125	-0.00085784912109375	1935.51881611328
0.455780029296875	-0.0008587646484375	1936.40382611105
0.45135498046875	-0.0008599853515625	1937.28883610882
0.446929931640625	-0.00086029052734375	1938.17384610658
0.4425048828125	-0.00086181640625	1939.05885610435
0.438079833984375	-0.00086273193359375	1939.94386610211
0.43365478515625	-0.00086395263671875	1940.82887609988
0.429229736328125	-0.00086517333984375	1941.71388609764
0.4248046875	-0.00086700439453125	1942.59889609541
0.420379638671875	-0.0008685302734375	1943.48390609317
0.41595458984375	-0.0008697509765625	1944.36891609094
0.411529541015625	-0.00087188720703125	1945.25392608871
0.4071044921875	-0.00087371826171875	1946.13893608647
0.402679443359375	-0.00087493896484375	1947.02394608424
0.39825439453125	-0.00087677001953125	1947.908956082
0.393829345703125	-0.00087890625	1948.79396607977
0.389404296875	-0.000880126953125	1949.67897607753
0.384979248046875	-0.00088226318359375	1950.5639860753
0.38055419921875	-0.000885009765625	1951.44899607306
0.376129150390625	-0.00088775634765625	1952.33400607083
0.3717041015625	-0.0008905029296875	1953.2190160686
0.367279052734375	-0.0008929443359375	1954.10402606636
0.36285400390625	-0.0008953857421875	1954.98903606413
0.358428955078125	-0.0008978271484375	1955.87404606189
0.35400390625	-0.00090118408203125	1956.75905605966
0.349578857421875	-0.0009027099609375	1957.64406605742
0.34515380859375	-0.00090606689453125	1958.52907605519
0.340728759765625	-0.00090972900390625	1959.41408605296
0.3363037109375	-0.0009136962890625	1960.29909605072
0.331878662109375	-0.000916748046875	1961.18410604849
0.32745361328125	-0.00092071533203125	1962.06911604625
0.323028564453125	-0.000924072265625	1962.95412604402
0.318603515625	-0.000927734375	1963.83913604178
0.314178466796875	-0.00093170166015625	1964.72414603955
0.30975341796875	-0.00093719482421875	1965.60915603731
0.305328369140625	-0.00094024658203125	1966.49416603508
0.3009033203125	-0.00094390869140625	1967.37917603284
0.296478271484375	-0.00094757080078125	1968.26418603061
0.29205322265625	-0.00095123291015625	1969.14919602838
0.287628173828125	-0.000955810546875	1970.03420602614
0.283203125	-0.000960693359375	1970.91921602391
0.278778076171875	-0.00096466064453125	1971.80422602167
0.27435302734375	-0.00096893310546875	1972.68923601944
0.269927978515625	-0.0009735107421875	1973.5742460172
0.2655029296875	-0.0009783935546875	1974.45925601497
0.261077880859375	-0.00098297119140625	1975.34426601274
0.25665283203125	-0.00098724365234375	1976.2292760105
0.252227783203125	-0.00099151611328125	1977.11428600827
0.247802734375	-0.0009954833984375	1977.99929600603
0.243377685546875	-0.00100006103515625	1978.8843060038
0.23895263671875	-0.001004638671875	1979.76931600156
0.234527587890625	-0.0010089111328125	1980.65432599933
0.2301025390625	-0.00101318359375	1981.53933599709
0.225677490234375	-0.00101806640625	1982.42434599486
0.22125244140625	-0.00102294921875	1983.30935599263
0.216827392578125	-0.00102752685546875	1984.19436599039
0.21240234375	-0.00103240966796875	1985.07937598816
0.207977294921875	-0.00103668212890625	1985.96438598592
0.20355224609375	-0.001041259765625	1986.84939598369
0.199127197265625	-0.00104644775390625	1987.73440598145
0.1947021484375	-0.00105133056640625	1988.61941597922
0.190277099609375	-0.0010565185546875	1989.50442597698
0.18585205078125	-0.00106170654296875	1990.38943597475
0.181427001953125	-0.00106689453125	1991.27444597252
0.177001953125	-0.0010723876953125	1992.15945597028
0.172576904296875	-0.0010772705078125	1993.04446596805
0.16815185546875	-0.0010833740234375	1993.92947596581
0.163726806640625	-0.0010888671875	1994.81448596358
0.1593017578125	-0.001094970703125	1995.69949596134
0.154876708984375	-0.00110107421875	1996.58450595911
0.15045166015625	-0.00110687255859375	1997.46951595687
0.146026611328125	-0.00111358642578125	1998.35452595464
0.1416015625	-0.0011199951171875	1999.23953595241
0.137176513671875	-0.00112640380859375	2000.12454595017
0.13275146484375	-0.00113372802734375	2001.00955594794
0.128326416015625	-0.0011407470703125	2001.8945659457
0.1239013671875	-0.0011474609375	2002.77957594347
0.119476318359375	-0.00115478515625	2003.66458594123
0.11505126953125	-0.00116058349609375	2004.549595939
0.110626220703125	-0.00116790771484375	2005.43460593676
0.106201171875	-0.001175537109375	2006.31961593453
0.101776123046875	-0.00118316650390625	2007.2046259323
0.09735107421875	-0.0011907958984375	2008.08963593006
0.092926025390625	-0.0011981201171875	2008.97464592783
0.0885009765625	-0.0012060546875	2009.85965592559
0.084075927734375	-0.00121368408203125	2010.74466592336
0.07965087890625	-0.0012213134765625	2011.62967592112
0.075225830078125	-0.00122772216796875	2012.51468591889
0.07080078125	-0.0012353515625	2013.39969591665
0.066375732421875	-0.00124267578125	2014.28470591442
0.06195068359375	-0.00125	2015.16971591219
0.057525634765625	-0.0012567138671875	2016.05472590995
0.0531005859375	-0.0012646484375	2016.93973590772
0.048675537109375	-0.00127197265625	2017.82474590548
0.04425048828125	-0.00127899169921875	2018.70975590325
0.039825439453125	-0.00128662109375	2019.59476590101
0.035400390625	-0.0012939453125	2020.47977589878
0.030975341796875	-0.00130218505859375	2021.36478589654
0.02655029296875	-0.00131072998046875	2022.24979589431
0.022125244140625	-0.00131927490234375	2023.13480589208
0.0177001953125	-0.00132781982421875	2024.01981588984
0.013275146484375	-0.001336669921875	2024.90482588761
0.00885009765625	-0.00134613037109375	2025.78983588537
0.004425048828125	-0.00135589599609375	2026.67484588314
0	-0.00136627197265625	2027.5598558809
0.004425048828125	-0.0007659912109375	2028.44486587867
0.00885009765625	-0.00036163330078125	2029.32987587643
0.013275146484375	-7.8033447265625E-05	2030.2148858742
0.0177001953125	0.00012664794921875	2031.09989587197
0.022125244140625	0.0002779541015625	2031.98490586973
0.02655029296875	0.000390167236328125	2032.8699158675
0.030975341796875	0.000475372314453125	2033.75492586526
0.035400390625	0.000541839599609375	2034.63993586303
0.039825439453125	0.000593780517578125	2035.52494586079
0.04425048828125	0.00063330078125	2036.40995585856
0.048675537109375	0.00066741943359375	2037.29496585632
0.0531005859375	0.00069366455078125	2038.17997585409
0.057525634765625	0.00071441650390625	2039.06498585186
0.06195068359375	0.00073150634765625	2039.94999584962
0.066375732421875	0.0007452392578125	2040.83500584739
0.07080078125	0.0007568359375	2041.72001584515
0.075225830078125	0.0007666015625	2042.60502584292
0.07965087890625	0.00077301025390625	2043.49003584068
0.084075927734375	0.00077972412109375	2044.37504583845
0.0885009765625	0.000784912109375	2045.26005583621
0.092926025390625	0.00078948974609375	2046.14506583398
0.09735107421875	0.00079345703125	2047.03007583175
0.101776123046875	0.0007965087890625	2047.91508582951
0.106201171875	0.0007977294921875	2048.80009582728
0.110626220703125	0.000799560546875	2049.68510582504
0.11505126953125	0.00080047607421875	2050.57011582281
0.119476318359375	0.0008001708984375	2051.45512582057
0.1239013671875	0.00080078125	2052.34013581834
0.128326416015625	0.00080169677734375	2053.2251458161
0.13275146484375	0.00080169677734375	2054.11015581387
0.137176513671875	0.0008013916015625	2054.99516581164
0.1416015625	0.00080078125	2055.8801758094
0.146026611328125	0.00080078125	2056.76518580717
0.15045166015625	0.00080078125	2057.65019580493
0.154876708984375	0.00079986572265625	2058.5352058027
0.1593017578125	0.0007989501953125	2059.42021580046
0.163726806640625	0.00079864501953125	2060.30522579823
0.16815185546875	0.00079803466796875	2061.19023579599
0.172576904296875	0.00079742431640625	2062.07524579376
0.177001953125	0.00079681396484375	2062.96025579153
0.181427001953125	0.0007965087890625	2063.84526578929
0.18585205078125	0.0007958984375	2064.73027578706
0.190277099609375	0.0007952880859375	2065.61528578482
0.1947021484375	0.00079437255859375	2066.50029578259
0.199127197265625	0.0007940673828125	2067.38530578035
0.20355224609375	0.00079376220703125	2068.27031577812
0.207977294921875	0.00079345703125	2069.15532577589
0.21240234375	0.00079254150390625	2070.04033577365
0.216827392578125	0.00079254150390625	2070.92534577142
0.22125244140625	0.00079193115234375	2071.81035576918
0.225677490234375	0.0007916259765625	2072.69536576695
0.2301025390625	0.00079193115234375	2073.58037576471
0.234527587890625	0.00079132080078125	2074.46538576248
0.23895263671875	0.000791015625	2075.35039576024
0.243377685546875	0.00079193115234375	2076.23540575801
0.247802734375	0.0007916259765625	2077.12041575577
0.252227783203125	0.0007916259765625	2078.00542575354
0.25665283203125	0.000792236328125	2078.89043575131
0.261077880859375	0.0007928466796875	2079.77544574907
0.2655029296875	0.00079345703125	2080.66045574684
0.269927978515625	0.00079345703125	2081.5454657446
0.27435302734375	0.00079345703125	2082.43047574237
0.278778076171875	0.00079315185546875	2083.31548574013
0.283203125	0.00079345703125	2084.2004957379
0.287628173828125	0.000794677734375	2085.08550573567
0.29205322265625	0.0007952880859375	2085.97051573343
0.296478271484375	0.00079620361328125	2086.8555257312
0.3009033203125	0.0007965087890625	2087.74053572896
0.305328369140625	0.00079681396484375	2088.62554572673
0.30975341796875	0.00079742431640625	2089.51055572449
0.314178466796875	0.000799560546875	2090.39556572226
0.318603515625	0.0007989501953125	2091.28057572002
0.323028564453125	0.00079864501953125	2092.16558571779
0.32745361328125	0.0007989501953125	2093.05059571556
0.331878662109375	0.00079833984375	2093.93560571332
0.3363037109375	0.00079864501953125	2094.82061571109
0.340728759765625	0.00079864501953125	2095.70562570885
0.34515380859375	0.00079864501953125	2096.59063570662
0.349578857421875	0.00079864501953125	2097.47564570438
0.35400390625	0.000797119140625	2098.36065570215
0.358428955078125	0.00079833984375	2099.24566569991
0.36285400390625	0.0007977294921875	2100.13067569768
0.367279052734375	0.0007977294921875	2101.01568569545
0.3717041015625	0.000797119140625	2101.90069569321
0.376129150390625	0.0007965087890625	2102.78570569098
0.38055419921875	0.0007952880859375	2103.67071568874
0.384979248046875	0.000794677734375	2104.55572568651
0.389404296875	0.00079345703125	2105.44073568427
0.393829345703125	0.000792236328125	2106.32574568204
0.39825439453125	0.0007916259765625	2107.2107556798
0.402679443359375	0.0007904052734375	2108.09576567757
0.4071044921875	0.00078948974609375	2108.98077567534
0.411529541015625	0.0007879638671875	2109.8657856731
0.41595458984375	0.00078704833984375	2110.75079567087
0.420379638671875	0.00078582763671875	2111.63580566863
0.4248046875	0.00078460693359375	2112.5208156664
0.429229736328125	0.00078399658203125	2113.40582566416
0.43365478515625	0.00078277587890625	2114.29083566193
0.438079833984375	0.0007818603515625	2115.17584565969
0.4425048828125	0.0007806396484375	2116.06085565746
0.446929931640625	0.00077972412109375	2116.94586565523
0.45135498046875	0.0007781982421875	2117.83087565299
0.455780029296875	0.00077789306640625	2118.71588565076
0.460205078125	0.0007763671875	2119.60089564852
0.464630126953125	0.00077606201171875	2120.48590564629
0.46905517578125	0.0007745361328125	2121.37091564405
0.473480224609375	0.00077392578125	2122.25592564182
0.4779052734375	0.00077301025390625	2123.14093563958
0.482330322265625	0.00077239990234375	2124.02594563735
0.48675537109375	0.0007720947265625	2124.91095563512
0.491180419921875	0.000771484375	2125.79596563288
0.49560546875	0.0007708740234375	2126.68097563065
0.500030517578125	0.00077056884765625	2127.56598562841
0.50445556640625	0.00076995849609375	2128.45099562618
0.508880615234375	0.0007696533203125	2129.33600562394
0.5133056640625	0.00076995849609375	2130.22101562171
0.517730712890625	0.00076934814453125	2131.10602561947
0.52215576171875	0.00076995849609375	2131.99103561724
0.526580810546875	0.000770263671875	2132.87604561501
0.531005859375	0.000770263671875	2133.76105561277
0.535430908203125	0.00077117919921875	2134.64606561054
0.53985595703125	0.00077117919921875	2135.5310756083
0.544281005859375	0.0007720947265625	2136.41608560607
0.5487060546875	0.00077239990234375	2137.30109560383
0.553131103515625	0.0007733154296875	2138.1861056016
0.55755615234375	0.0007745361328125	2139.07111559936
0.561981201171875	0.00077606201171875	2139.95612559713
0.56640625	0.00077728271484375	2140.8411355949
0.570831298828125	0.0007794189453125	2141.72614559266
0.57525634765625	0.0007806396484375	2142.61115559043
0.579681396484375	0.00078277587890625	2143.49616558819
0.5841064453125	0.0007843017578125	2144.38117558596
0.588531494140625	0.00078582763671875	2145.26618558372
0.59295654296875	0.00078826904296875	2146.15119558149
0.597381591796875	0.000791015625	2147.03620557925
0.601806640625	0.00079345703125	2147.92121557702
0.606231689453125	0.000797119140625	2148.80622557479
0.61065673828125	0.00079986572265625	2149.69123557255
0.615081787109375	0.00080322265625	2150.57624557032
0.6195068359375	0.0008062744140625	2151.46125556808
0.623931884765625	0.00081024169921875	2152.34626556585
0.62835693359375	0.00081573486328125	2153.23127556361
0.632781982421875	0.000819091796875	2154.11628556138
0.63720703125	0.0008221435546875	2155.00129555914
0.641632080078125	0.00082672119140625	2155.88630555691
0.64605712890625	0.00083099365234375	2156.77131555468
0.650482177734375	0.0008355712890625	2157.65632555244
0.6549072265625	0.0008404541015625	2158.54133555021
0.659332275390625	0.0008453369140625	2159.42634554797
0.66375732421875	0.00085052490234375	2160.31135554574
0.668182373046875	0.00085601806640625	2161.1963655435
0.672607421875	0.00086181640625	2162.08137554127
0.677032470703125	0.00086761474609375	2162.96638553903
0.68145751953125	0.0008746337890625	2163.8513955368
0.685882568359375	0.00088104248046875	2164.73640553457
0.6903076171875	0.00088775634765625	2165.62141553233
0.694732666015625	0.00089508056640625	2166.5064255301
0.69915771484375	0.00090240478515625	2167.39143552786
0.703582763671875	0.00090972900390625	2168.27644552563
0.7080078125	0.00091796875	2169.16145552339
0.712432861328125	0.000926513671875	2170.04646552116
0.71685791015625	0.00093536376953125	2170.93147551892
0.721282958984375	0.0009442138671875	2171.81648551669
0.7257080078125	0.00095428466796875	2172.70149551446
0.730133056640625	0.00096466064453125	2173.58650551222
0.73455810546875	0.0009747314453125	2174.47151550999
0.738983154296875	0.0009857177734375	2175.35652550775
0.743408203125	0.00099639892578125	2176.24153550552
0.747833251953125	0.0010089111328125	2177.12654550328
0.75225830078125	0.00102142333984375	2178.01155550105
0.756683349609375	0.00103546142578125	2178.89656549882
0.7611083984375	0.00105010986328125	2179.78157549658
0.765533447265625	0.00106414794921875	2180.66658549435
0.76995849609375	0.00108001708984375	2181.55159549211
0.774383544921875	0.00109527587890625	2182.43660548988
0.77880859375	0.00111297607421875	2183.32161548764
0.783233642578125	0.0011297607421875	2184.20662548541
0.78765869140625	0.001148681640625	2185.09163548317
0.792083740234375	0.001168212890625	2185.97664548094
0.7965087890625	0.00118927001953125	2186.8616554787
0.800933837890625	0.00121063232421875	2187.74666547647
0.80535888671875	0.00123291015625	2188.63167547424
0.809783935546875	0.00125701904296875	2189.516685472
0.814208984375	0.00128143310546875	2190.40169546977
0.818634033203125	0.001307373046875	2191.28670546753
0.82305908203125	0.00133392333984375	2192.1717154653
0.827484130859375	0.00136199951171875	2193.05672546306
0.8319091796875	0.0013909912109375	2193.94173546083
0.836334228515625	0.0014208984375	2194.8267454586
0.84075927734375	0.00145263671875	2195.71175545636
0.845184326171875	0.00148529052734375	2196.59676545413
0.849609375	0.001519775390625	2197.48177545189
0.854034423828125	0.00155517578125	2198.36678544966
0.85845947265625	0.00159210205078125	2199.25179544742
0.862884521484375	0.0016290283203125	2200.13680544519
0.8673095703125	0.001668701171875	2201.02181544295
0.871734619140625	0.00170989990234375	2201.90682544072
0.87615966796875	0.0017523193359375	2202.79183543849
0.880584716796875	0.0017962646484375	2203.67684543625
0.885009765625	0.0018408203125	2204.56185543402
0.889434814453125	0.00188720703125	2205.44686543178
0.89385986328125	0.0019342041015625	2206.33187542955
0.898284912109375	0.00198333740234375	2207.21688542731
0.9027099609375	0.00203369140625	2208.10189542508
0.907135009765625	0.00208587646484375	2208.98690542284
0.91156005859375	0.0021392822265625	2209.87191542061
0.915985107421875	0.00219268798828125	2210.75692541838
0.92041015625	0.00224945068359375	2211.64193541614
0.924835205078125	0.0023077392578125	2212.52694541391
0.92926025390625	0.00236572265625	2213.41195541167
0.933685302734375	0.0024273681640625	2214.29696540944
0.9381103515625	0.00249237060546875	2215.1819754072
0.942535400390625	0.0025567626953125	2216.06698540497
0.94696044921875	0.00262359619140625	2216.95199540273
0.951385498046875	0.0026922607421875	2217.8370054005
0.955810546875	0.0027630615234375	2218.72201539827
0.960235595703125	0.0028375244140625	2219.60702539603
0.96466064453125	0.0029144287109375	2220.4920353938
0.969085693359375	0.00299530029296875	2221.37704539156
0.9735107421875	0.0030792236328125	2222.26205538933
0.977935791015625	0.0031658935546875	2223.14706538709
0.98236083984375	0.00325897216796875	2224.03207538486
0.986785888671875	0.00335418701171875	2224.91708538262
0.9912109375	0.0034552001953125	2225.80209538039
0.995635986328125	0.0035601806640625	2226.68710537816
1.00006103515625	0.00366973876953125	2227.57211537592
0.995635986328125	0.0031170654296875	2228.45712537369
0.9912109375	0.00269683837890625	2229.34213537145
0.986785888671875	0.002352294921875	2230.22714536922
0.98236083984375	0.00205596923828125	2231.11215536698
0.977935791015625	0.00179534912109375	2231.99716536475
0.9735107421875	0.00156402587890625	2232.88217536251
0.969085693359375	0.001353759765625	2233.76718536028
0.96466064453125	0.0011639404296875	2234.65219535805
0.960235595703125	0.0009912109375	2235.53720535581
0.955810546875	0.0008331298828125	2236.42221535358
0.951385498046875	0.0006890869140625	2237.30722535134
0.94696044921875	0.00055694580078125	2238.19223534911
0.942535400390625	0.0004368896484375	2239.07724534687
0.9381103515625	0.000326019287109375	2239.96225534464
0.933685302734375	0.000222503662109375	2240.8472653424
0.92926025390625	0.00012969970703125	2241.73227534017
0.924835205078125	4.41986083984375E-05	2242.61728533794
0.92041015625	-3.51654052734375E-05	2243.5022953357
0.915985107421875	-0.00010711669921875	2244.38730533347
0.91156005859375	-0.000173858642578125	2245.27231533123
0.907135009765625	-0.00023486328125	2246.157325329
0.9027099609375	-0.0002911376953125	2247.04233532676
0.898284912109375	-0.000342987060546875	2247.92734532453
0.89385986328125	-0.00039111328125	2248.81235532229
0.889434814453125	-0.0004354248046875	2249.69736532006
0.885009765625	-0.000475860595703125	2250.58237531783
0.880584716796875	-0.000513214111328125	2251.46738531559
0.87615966796875	-0.000547698974609375	2252.35239531336
0.871734619140625	-0.0005789794921875	2253.23740531112
0.8673095703125	-0.000608184814453125	2254.12241530889
0.862884521484375	-0.00063507080078125	2255.00742530665
0.85845947265625	-0.00065948486328125	2255.89243530442
0.854034423828125	-0.000682373046875	2256.77744530218
0.849609375	-0.000704345703125	2257.66245529995
0.845184326171875	-0.0007232666015625	2258.54746529772
0.84075927734375	-0.0007415771484375	2259.43247529548
0.836334228515625	-0.0007586669921875	2260.31748529325
0.8319091796875	-0.00077423095703125	2261.20249529101
0.827484130859375	-0.00078826904296875	2262.08750528878
0.82305908203125	-0.0008013916015625	2262.97251528654
0.818634033203125	-0.00081390380859375	2263.85752528431
0.814208984375	-0.00082489013671875	2264.74253528207
0.809783935546875	-0.00083587646484375	2265.62754527984
0.80535888671875	-0.00084503173828125	2266.51255527761
0.800933837890625	-0.0008544921875	2267.39756527537
0.7965087890625	-0.0008624267578125	2268.28257527314
0.792083740234375	-0.0008697509765625	2269.1675852709
0.78765869140625	-0.00087646484375	2270.05259526867
0.783233642578125	-0.000882568359375	2270.93760526643
0.77880859375	-0.00088775634765625	2271.8226152642
0.774383544921875	-0.0008929443359375	2272.70762526196
0.76995849609375	-0.00089752197265625	2273.59263525973
0.765533447265625	-0.00090057373046875	2274.4776452575
0.7611083984375	-0.00090362548828125	2275.36265525526
0.756683349609375	-0.00090606689453125	2276.24766525303
0.75225830078125	-0.00090789794921875	2277.13267525079
0.747833251953125	-0.00090911865234375	2278.01768524856
0.743408203125	-0.00091033935546875	2278.90269524632
0.738983154296875	-0.000909423828125	2279.78770524409
0.73455810546875	-0.00090972900390625	2280.67271524185
0.730133056640625	-0.0009100341796875	2281.55772523962
0.7257080078125	-0.000909423828125	2282.44273523739
0.721282958984375	-0.00090789794921875	2283.32774523515
0.71685791015625	-0.000906982421875	2284.21275523292
0.712432861328125	-0.00090484619140625	2285.09776523068
0.7080078125	-0.0009027099609375	2285.98277522845
0.703582763671875	-0.00090118408203125	2286.86778522621
0.69915771484375	-0.0008984375	2287.75279522398
0.694732666015625	-0.000897216796875	2288.63780522175
0.6903076171875	-0.0008953857421875	2289.52281521951
0.685882568359375	-0.0008935546875	2290.40782521728
0.68145751953125	-0.00089202880859375	2291.29283521504
0.677032470703125	-0.000889892578125	2292.17784521281
0.672607421875	-0.00088714599609375	2293.06285521057
0.668182373046875	-0.00088470458984375	2293.94786520834
0.66375732421875	-0.00088226318359375	2294.8328752061
0.659332275390625	-0.00088134765625	2295.71788520387
0.6549072265625	-0.00087860107421875	2296.60289520163
0.650482177734375	-0.00087554931640625	2297.4879051994
0.64605712890625	-0.00087371826171875	2298.37291519717
0.641632080078125	-0.0008709716796875	2299.25792519493
0.63720703125	-0.00086944580078125	2300.1429351927
0.632781982421875	-0.00086761474609375	2301.02794519046
0.62835693359375	-0.00086578369140625	2301.91295518823
0.623931884765625	-0.00086639404296875	2302.79796518599
0.6195068359375	-0.0008636474609375	2303.68297518376
0.615081787109375	-0.00086151123046875	2304.56798518153
0.61065673828125	-0.000859375	2305.45299517929
0.606231689453125	-0.0008575439453125	2306.33800517706
0.601806640625	-0.000855712890625	2307.22301517482
0.597381591796875	-0.00085479736328125	2308.10802517259
0.59295654296875	-0.00085296630859375	2308.99303517035
0.588531494140625	-0.00085174560546875	2309.87804516812
0.5841064453125	-0.00084930419921875	2310.76305516588
0.579681396484375	-0.000848388671875	2311.64806516365
0.57525634765625	-0.0008477783203125	2312.53307516142
0.570831298828125	-0.0008465576171875	2313.41808515918
0.56640625	-0.0008465576171875	2314.30309515695
0.561981201171875	-0.0008453369140625	2315.18810515471
0.55755615234375	-0.00084503173828125	2316.07311515248
0.553131103515625	-0.00084442138671875	2316.95812515024
0.5487060546875	-0.0008441162109375	2317.84313514801
0.544281005859375	-0.00084259033203125	2318.72814514577
0.53985595703125	-0.0008428955078125	2319.61315514354
0.535430908203125	-0.0008428955078125	2320.49816514131
0.531005859375	-0.00084320068359375	2321.38317513907
0.526580810546875	-0.0008428955078125	2322.26818513684
0.52215576171875	-0.00084320068359375	2323.1531951346
0.517730712890625	-0.000843505859375	2324.03820513237
0.5133056640625	-0.00084381103515625	2324.92321513013
0.508880615234375	-0.00084381103515625	2325.8082251279
0.50445556640625	-0.0008447265625	2326.69323512566
0.500030517578125	-0.00084503173828125	2327.57824512343
0.49560546875	-0.000845947265625	2328.4632551212
0.491180419921875	-0.0008465576171875	2329.34826511896
0.48675537109375	-0.00084808349609375	2330.23327511673
0.482330322265625	-0.000848388671875	2331.11828511449
0.4779052734375	-0.000849609375	2332.00329511226
0.473480224609375	-0.00085052490234375	2332.88830511002
0.46905517578125	-0.00085205078125	2333.77331510779
0.464630126953125	-0.0008526611328125	2334.65832510555
0.460205078125	-0.00085418701171875	2335.54333510332
0.455780029296875	-0.0008551025390625	2336.42834510109
0.45135498046875	-0.00085662841796875	2337.31335509885
0.446929931640625	-0.00085845947265625	2338.19836509662
0.4425048828125	-0.000859375	2339.08337509438
0.438079833984375	-0.00086090087890625	2339.96838509215
0.43365478515625	-0.00086273193359375	2340.85339508991
0.429229736328125	-0.00086456298828125	2341.73840508768
0.4248046875	-0.00086639404296875	2342.62341508544
0.420379638671875	-0.00086761474609375	2343.50842508321
0.41595458984375	-0.00086944580078125	2344.39343508098
0.411529541015625	-0.00087127685546875	2345.27844507874
0.4071044921875	-0.00087310791015625	2346.16345507651
0.402679443359375	-0.00087432861328125	2347.04846507427
0.39825439453125	-0.00087646484375	2347.93347507204
0.393829345703125	-0.00087890625	2348.8184850698
0.389404296875	-0.00088043212890625	2349.70349506757
0.384979248046875	-0.000882568359375	2350.58850506533
0.38055419921875	-0.00088470458984375	2351.4735150631
0.376129150390625	-0.000887451171875	2352.35852506087
0.3717041015625	-0.000889892578125	2353.24353505863
0.367279052734375	-0.000892333984375	2354.1285450564
0.36285400390625	-0.00089508056640625	2355.01355505416
0.358428955078125	-0.0008978271484375	2355.89856505193
0.35400390625	-0.00090057373046875	2356.78357504969
0.349578857421875	-0.000902099609375	2357.66858504746
0.34515380859375	-0.00090606689453125	2358.55359504522
0.340728759765625	-0.0009088134765625	2359.43860504299
0.3363037109375	-0.0009124755859375	2360.32361504076
0.331878662109375	-0.00091522216796875	2361.20862503852
0.32745361328125	-0.000919189453125	2362.09363503629
0.323028564453125	-0.00092254638671875	2362.97864503405
0.318603515625	-0.00092620849609375	2363.86365503182
0.314178466796875	-0.00092926025390625	2364.74866502958
0.30975341796875	-0.00093505859375	2365.63367502735
0.305328369140625	-0.0009375	2366.51868502511
0.3009033203125	-0.0009405517578125	2367.40369502288
0.296478271484375	-0.00094451904296875	2368.28870502065
0.29205322265625	-0.0009478759765625	2369.17371501841
0.287628173828125	-0.00095184326171875	2370.05872501618
0.283203125	-0.0009552001953125	2370.94373501394
0.278778076171875	-0.00095916748046875	2371.82874501171
0.27435302734375	-0.0009637451171875	2372.71375500947
0.269927978515625	-0.0009674072265625	2373.59876500724
0.2655029296875	-0.0009716796875	2374.483775005
0.261077880859375	-0.0009765625	2375.36878500277
0.25665283203125	-0.0009808349609375	2376.25379500054
0.252227783203125	-0.000985107421875	2377.1388049983
0.247802734375	-0.0009893798828125	2378.02381499607
0.243377685546875	-0.00099365234375	2378.90882499383
0.23895263671875	-0.00099822998046875	2379.7938349916
0.234527587890625	-0.0010028076171875	2380.67884498936
0.2301025390625	-0.00100616455078125	2381.56385498713
0.225677490234375	-0.0010107421875	2382.44886498489
0.22125244140625	-0.0010150146484375	2383.33387498266
0.216827392578125	-0.0010198974609375	2384.21888498043
0.21240234375	-0.00102447509765625	2385.10389497819
0.207977294921875	-0.001029052734375	2385.98890497596
0.20355224609375	-0.001033935546875	2386.87391497372
0.199127197265625	-0.00103851318359375	2387.75892497149
0.1947021484375	-0.0010430908203125	2388.64393496925
0.190277099609375	-0.001048583984375	2389.52894496702
0.18585205078125	-0.00105316162109375	2390.41395496478
0.181427001953125	-0.00105804443359375	2391.29896496255
0.177001953125	-0.00106292724609375	2392.18397496032
0.172576904296875	-0.001068115234375	2393.06898495808
0.16815185546875	-0.00107421875	2393.95399495585
0.163726806640625	-0.00107940673828125	2394.83900495361
0.1593017578125	-0.00108551025390625	2395.72401495138
0.154876708984375	-0.00109100341796875	2396.60902494914
0.15045166015625	-0.00109710693359375	2397.49403494691
0.146026611328125	-0.00110321044921875	2398.37904494468
0.1416015625	-0.001109619140625	2399.26405494244
0.137176513671875	-0.00111572265625	2400.14906494021
0.13275146484375	-0.001121826171875	2401.03407493797
0.128326416015625	-0.001129150390625	2401.91908493574
0.1239013671875	-0.0011358642578125	2402.8040949335
0.119476318359375	-0.0011431884765625	2403.68910493127
0.11505126953125	-0.001148681640625	2404.57411492903
0.110626220703125	-0.00115631103515625	2405.4591249268
0.106201171875	-0.00116424560546875	2406.34413492456
0.101776123046875	-0.00117156982421875	2407.22914492233
0.09735107421875	-0.00117950439453125	2408.1141549201
0.092926025390625	-0.00118682861328125	2408.99916491786
0.0885009765625	-0.00119415283203125	2409.88417491563
0.084075927734375	-0.0012017822265625	2410.76918491339
0.07965087890625	-0.0012091064453125	2411.65419491116
0.075225830078125	-0.0012164306640625	2412.53920490892
0.07080078125	-0.001224365234375	2413.42421490669
0.066375732421875	-0.0012322998046875	2414.30922490446
0.06195068359375	-0.00123992919921875	2415.19423490222
0.057525634765625	-0.00124786376953125	2416.07924489999
0.0531005859375	-0.00125579833984375	2416.96425489775
0.048675537109375	-0.0012640380859375	2417.84926489552
0.04425048828125	-0.00127166748046875	2418.73427489328
0.039825439453125	-0.00128082275390625	2419.61928489105
0.035400390625	-0.00128936767578125	2420.50429488881
0.030975341796875	-0.0012982177734375	2421.38930488658
0.02655029296875	-0.0013067626953125	2422.27431488435
0.022125244140625	-0.00131744384765625	2423.15932488211
0.0177001953125	-0.00132720947265625	2424.04433487988
0.013275146484375	-0.00133758544921875	2424.92934487764
0.00885009765625	-0.00134796142578125	2425.81435487541
0.004425048828125	-0.0013592529296875	2426.69936487317
0	-0.00137054443359375	2427.58437487094
0.004425048828125	-0.000772705078125	2428.4693848687
0.00885009765625	-0.0003690185546875	2429.35439486647
0.013275146484375	-8.502197265625E-05	2430.23940486424
0.0177001953125	0.000120452880859375	2431.124414862
0.022125244140625	0.000271881103515625	2432.00942485977
0.02655029296875	0.00038507080078125	2432.89443485753
0.030975341796875	0.000471038818359375	2433.7794448553
0.035400390625	0.00053814697265625	2434.66445485306
0.039825439453125	0.00059088134765625	2435.54946485083
0.04425048828125	0.00063140869140625	2436.43447484859
0.048675537109375	0.000665283203125	2437.31948484636
0.0531005859375	0.00069183349609375	2438.20449484413
0.057525634765625	0.00071258544921875	2439.08950484189
0.06195068359375	0.00072998046875	2439.97451483966
0.066375732421875	0.0007440185546875	2440.85952483742
0.07080078125	0.0007550048828125	2441.74453483519
0.075225830078125	0.0007647705078125	2442.62954483295
0.07965087890625	0.000771484375	2443.51455483072
0.084075927734375	0.0007781982421875	2444.39956482848
0.0885009765625	0.0007830810546875	2445.28457482625
0.092926025390625	0.00078704833984375	2446.16958482402
0.09735107421875	0.00079071044921875	2447.05459482178
0.101776123046875	0.0007928466796875	2447.93960481955
0.106201171875	0.00079498291015625	2448.82461481731
0.110626220703125	0.00079620361328125	2449.70962481508
0.11505126953125	0.000797119140625	2450.59463481284
0.119476318359375	0.00079620361328125	2451.47964481061
0.1239013671875	0.00079742431640625	2452.36465480837
0.128326416015625	0.00079742431640625	2453.24966480614
0.13275146484375	0.0007977294921875	2454.13467480391
0.137176513671875	0.000797119140625	2455.01968480167
0.1416015625	0.00079681396484375	2455.90469479944
0.146026611328125	0.00079620361328125	2456.7897047972
0.15045166015625	0.0007952880859375	2457.67471479497
0.154876708984375	0.000794677734375	2458.55972479273
0.1593017578125	0.00079254150390625	2459.4447347905
0.163726806640625	0.00079254150390625	2460.32974478826
0.16815185546875	0.00079193115234375	2461.21475478603
0.172576904296875	0.00079132080078125	2462.0997647838
0.177001953125	0.00079010009765625	2462.98477478156
0.181427001953125	0.00078948974609375	2463.86978477933
0.18585205078125	0.00078826904296875	2464.75479477709
0.190277099609375	0.00078826904296875	2465.63980477486
0.1947021484375	0.00078704833984375	2466.52481477262
0.199127197265625	0.0007867431640625	2467.40982477039
0.20355224609375	0.00078582763671875	2468.29483476815
0.207977294921875	0.000784912109375	2469.17984476592
0.21240234375	0.0007843017578125	2470.06485476369
0.216827392578125	0.00078338623046875	2470.94986476145
0.22125244140625	0.0007830810546875	2471.83487475922
0.225677490234375	0.000782470703125	2472.71988475698
0.2301025390625	0.000782470703125	2473.60489475475
0.234527587890625	0.00078155517578125	2474.48990475251
0.23895263671875	0.00078155517578125	2475.37491475028
0.243377685546875	0.00078155517578125	2476.25992474804
0.247802734375	0.00078155517578125	2477.14493474581
0.252227783203125	0.00078216552734375	2478.02994474358
0.25665283203125	0.00078216552734375	2478.91495474134
0.261077880859375	0.00078216552734375	2479.79996473911
0.2655029296875	0.0007818603515625	2480.68497473687
0.269927978515625	0.00078155517578125	2481.56998473464
0.27435302734375	0.00078125	2482.4549947324
0.278778076171875	0.00078155517578125	2483.34000473017
0.283203125	0.0007818603515625	2484.22501472793
0.287628173828125	0.000782470703125	2485.1100247257
0.29205322265625	0.00078277587890625	2485.99503472347
0.296478271484375	0.0007830810546875	2486.88004472123
0.3009033203125	0.00078338623046875	2487.765054719
0.305328369140625	0.00078338623046875	2488.65006471676
0.30975341796875	0.0007830810546875	2489.53507471453
0.314178466796875	0.00078460693359375	2490.42008471229
0.318603515625	0.0007843017578125	2491.30509471006
0.323028564453125	0.00078399658203125	2492.19010470782
0.32745361328125	0.00078399658203125	2493.07511470559
0.331878662109375	0.0007843017578125	2493.96012470336
0.3363037109375	0.0007843017578125	2494.84513470112
0.340728759765625	0.00078399658203125	2495.73014469889
0.34515380859375	0.0007843017578125	2496.61515469665
0.349578857421875	0.00078399658203125	2497.50016469442
0.35400390625	0.00078277587890625	2498.38517469218
0.358428955078125	0.00078338623046875	2499.27018468995
0.36285400390625	0.00078338623046875	2500.15519468771
0.367279052734375	0.0007830810546875	2501.04020468548
0.3717041015625	0.000782470703125	2501.92521468325
0.376129150390625	0.00078216552734375	2502.81022468101
0.38055419921875	0.00078155517578125	2503.69523467878
0.384979248046875	0.00078125	2504.58024467654
0.389404296875	0.00077972412109375	2505.46525467431
0.393829345703125	0.00077911376953125	2506.35026467207
0.39825439453125	0.00077850341796875	2507.23527466984
0.402679443359375	0.00077728271484375	2508.12028466761
0.4071044921875	0.00077606201171875	2509.00529466537
0.411529541015625	0.000775146484375	2509.89030466314
0.41595458984375	0.0007745361328125	2510.7753146609
0.420379638671875	0.00077362060546875	2511.66032465867
0.4248046875	0.0007720947265625	2512.54533465643
0.429229736328125	0.00077117919921875	2513.4303446542
0.43365478515625	0.000770263671875	2514.31535465196
0.438079833984375	0.0007696533203125	2515.20036464973
0.4425048828125	0.0007684326171875	2516.08537464749
0.446929931640625	0.000767822265625	2516.97038464526
0.45135498046875	0.00076751708984375	2517.85539464303
0.455780029296875	0.0007666015625	2518.74040464079
0.460205078125	0.00076507568359375	2519.62541463856
0.464630126953125	0.0007647705078125	2520.51042463632
0.46905517578125	0.0007635498046875	2521.39543463409
0.473480224609375	0.00076324462890625	2522.28044463185
0.4779052734375	0.00076263427734375	2523.16545462962
0.482330322265625	0.00076202392578125	2524.05046462739
0.48675537109375	0.0007611083984375	2524.93547462515
0.491180419921875	0.00076141357421875	2525.82048462292
0.49560546875	0.00076080322265625	2526.70549462068
0.500030517578125	0.00076080322265625	2527.59050461845
0.50445556640625	0.00076019287109375	2528.47551461621
0.508880615234375	0.00076019287109375	2529.36052461398
0.5133056640625	0.0007598876953125	2530.24553461174
0.517730712890625	0.0007598876953125	2531.13054460951
0.52215576171875	0.000760498046875	2532.01555460728
0.526580810546875	0.0007611083984375	2532.90056460504
0.531005859375	0.0007611083984375	2533.78557460281
0.535430908203125	0.00076171875	2534.67058460057
0.53985595703125	0.00076263427734375	2535.55559459834
0.544281005859375	0.00076324462890625	2536.4406045961
0.5487060546875	0.0007635498046875	2537.32561459387
0.553131103515625	0.0007647705078125	2538.21062459163
0.55755615234375	0.000765380859375	2539.0956345894
0.561981201171875	0.0007666015625	2539.98064458717
0.56640625	0.0007684326171875	2540.86565458493
0.570831298828125	0.00076995849609375	2541.7506645827
0.57525634765625	0.00077178955078125	2542.63567458046
0.579681396484375	0.00077392578125	2543.52068457823
0.5841064453125	0.00077545166015625	2544.40569457599
0.588531494140625	0.00077667236328125	2545.29070457376
0.59295654296875	0.0007794189453125	2546.17571457152
0.597381591796875	0.00078216552734375	2547.06072456929
0.601806640625	0.00078460693359375	2547.94573456706
0.606231689453125	0.00078704833984375	2548.83074456482
0.61065673828125	0.0007904052734375	2549.71575456259
0.615081787109375	0.00079315185546875	2550.60076456035
0.6195068359375	0.00079620361328125	2551.48577455812
0.623931884765625	0.00079986572265625	2552.37078455588
0.62835693359375	0.00080596923828125	2553.25579455365
0.632781982421875	0.00080841064453125	2554.14080455141
0.63720703125	0.000811767578125	2555.02581454918
0.641632080078125	0.0008160400390625	2555.91082454695
0.64605712890625	0.00082000732421875	2556.79583454471
0.650482177734375	0.00082489013671875	2557.68084454248
0.6549072265625	0.00082855224609375	2558.56585454024
0.659332275390625	0.00083343505859375	2559.45086453801
0.66375732421875	0.00083831787109375	2560.33587453577
0.668182373046875	0.000843505859375	2561.22088453354
0.672607421875	0.0008489990234375	2562.1058945313
0.677032470703125	0.0008544921875	2562.99090452907
0.68145751953125	0.000860595703125	2563.87591452684
0.685882568359375	0.00086639404296875	2564.7609245246
0.6903076171875	0.00087310791015625	2565.64593452237
0.694732666015625	0.00087982177734375	2566.53094452013
0.69915771484375	0.00088714599609375	2567.4159545179
0.703582763671875	0.00089324951171875	2568.30096451566
0.7080078125	0.00090087890625	2569.18597451343
0.712432861328125	0.00090911865234375	2570.07098451119
0.71685791015625	0.00091766357421875	2570.95599450896
0.721282958984375	0.000926513671875	2571.84100450673
0.7257080078125	0.0009356689453125	2572.72601450449
0.730133056640625	0.0009442138671875	2573.61102450226
0.73455810546875	0.00095458984375	2574.49603450002
0.738983154296875	0.00096466064453125	2575.38104449779
0.743408203125	0.00097442626953125	2576.26605449555
0.747833251953125	0.00098602294921875	2577.15106449332
0.75225830078125	0.0009979248046875	2578.03607449108
0.756683349609375	0.0010107421875	2578.92108448885
0.7611083984375	0.00102325439453125	2579.80609448662
0.765533447265625	0.00103729248046875	2580.69110448438
0.76995849609375	0.001051025390625	2581.57611448215
0.774383544921875	0.00106597900390625	2582.46112447991
0.77880859375	0.00108154296875	2583.34613447768
0.783233642578125	0.001097412109375	2584.23114447544
0.78765869140625	0.00111480712890625	2585.11615447321
0.792083740234375	0.00113250732421875	2586.00116447097
0.7965087890625	0.0011517333984375	2586.88617446874
0.800933837890625	0.001170654296875	2587.77118446651
0.80535888671875	0.00119140625	2588.65619446427
0.809783935546875	0.00121246337890625	2589.54120446204
0.814208984375	0.0012347412109375	2590.4262144598
0.818634033203125	0.00125885009765625	2591.31122445757
0.82305908203125	0.001282958984375	2592.19623445533
0.827484130859375	0.00130859375	2593.0812444531
0.8319091796875	0.0013348388671875	2593.96625445086
0.836334228515625	0.00136260986328125	2594.85126444863
0.84075927734375	0.00139129638671875	2595.7362744464
0.845184326171875	0.00142059326171875	2596.62128444416
0.849609375	0.00145172119140625	2597.50629444193
0.854034423828125	0.001484375	2598.39130443969
0.85845947265625	0.001517333984375	2599.27631443746
0.862884521484375	0.0015509033203125	2600.16132443522
0.8673095703125	0.0015863037109375	2601.04633443299
0.871734619140625	0.0016229248046875	2601.93134443075
0.87615966796875	0.0016607666015625	2602.81635442852
0.880584716796875	0.0016998291015625	2603.70136442629
0.885009765625	0.001739501953125	2604.58637442405
0.889434814453125	0.00178009033203125	2605.47138442182
0.89385986328125	0.00182281494140625	2606.35639441958
0.898284912109375	0.00186614990234375	2607.24140441735
0.9027099609375	0.00191070556640625	2608.12641441511
0.907135009765625	0.00195648193359375	2609.01142441288
0.91156005859375	0.002003173828125	2609.89643441064
0.915985107421875	0.00205108642578125	2610.78144440841
0.92041015625	0.00210052490234375	2611.66645440618
0.924835205078125	0.0021514892578125	2612.55146440394
0.92926025390625	0.002203369140625	2613.43647440171
0.933685302734375	0.0022564697265625	2614.32148439947
0.9381103515625	0.00231414794921875	2615.20649439724
0.942535400390625	0.002369384765625	2616.091504395
0.94696044921875	0.002427978515625	2616.97651439277
0.951385498046875	0.00248870849609375	2617.86152439054
0.955810546875	0.002552490234375	2618.7465343883
0.960235595703125	0.00261962890625	2619.63154438607
0.96466064453125	0.00268829345703125	2620.51655438383
0.969085693359375	0.0027618408203125	2621.4015643816
0.9735107421875	0.002838134765625	2622.28657437936
0.977935791015625	0.0029180908203125	2623.17158437713
0.98236083984375	0.00300384521484375	2624.05659437489
0.986785888671875	0.00309356689453125	2624.94160437266
0.9912109375	0.00318817138671875	2625.82661437042
0.995635986328125	0.00328857421875	2626.71162436819
1.00006103515625	0.0033929443359375	2627.59663436596
0.995635986328125	0.00284881591796875	2628.48164436372
0.9912109375	0.00244232177734375	2629.36665436149
0.986785888671875	0.00211181640625	2630.25166435925
0.98236083984375	0.00183074951171875	2631.13667435702
0.977935791015625	0.00158477783203125	2632.02168435478
0.9735107421875	0.0013690185546875	2632.90669435255
0.969085693359375	0.0011737060546875	2633.79170435032
0.96466064453125	0.00099761962890625	2634.67671434808
0.960235595703125	0.0008392333984375	2635.56172434585
0.955810546875	0.00069549560546875	2636.44673434361
0.951385498046875	0.00056427001953125	2637.33174434138
0.94696044921875	0.000445526123046875	2638.21675433914
0.942535400390625	0.000336761474609375	2639.10176433691
0.9381103515625	0.000237640380859375	2639.98677433467
0.933685302734375	0.00014556884765625	2640.87178433244
0.92926025390625	6.35986328125E-05	2641.75679433021
0.924835205078125	-1.1346435546875E-05	2642.64180432797
0.92041015625	-8.06884765625E-05	2643.52681432574
0.915985107421875	-0.00014337158203125	2644.4118243235
0.91156005859375	-0.000201751708984375	2645.29683432127
0.907135009765625	-0.000254974365234375	2646.18184431903
0.9027099609375	-0.00030401611328125	2647.0668543168
0.898284912109375	-0.0003487548828125	2647.95186431456
0.89385986328125	-0.000390869140625	2648.83687431233
0.889434814453125	-0.00042919921875	2649.7218843101
0.885009765625	-0.0004647216796875	2650.60689430786
0.880584716796875	-0.000496826171875	2651.49190430563
0.87615966796875	-0.000526336669921875	2652.37691430339
0.871734619140625	-0.0005537109375	2653.26192430116
0.8673095703125	-0.0005789794921875	2654.14693429892
0.862884521484375	-0.000602294921875	2655.03194429669
0.85845947265625	-0.00062255859375	2655.91695429445
0.854034423828125	-0.0006427001953125	2656.80196429222
0.849609375	-0.0006610107421875	2657.68697428999
0.845184326171875	-0.00067779541015625	2658.57198428775
0.84075927734375	-0.0006939697265625	2659.45699428552
0.836334228515625	-0.0007073974609375	2660.34200428328
0.8319091796875	-0.00072113037109375	2661.22701428105
0.827484130859375	-0.0007330322265625	2662.11202427881
0.82305908203125	-0.00074462890625	2662.99703427658
0.818634033203125	-0.00075469970703125	2663.88204427434
0.814208984375	-0.00076446533203125	2664.76705427211
0.809783935546875	-0.00077362060546875	2665.65206426988
0.80535888671875	-0.0007818603515625	2666.53707426764
0.800933837890625	-0.00078857421875	2667.42208426541
0.7965087890625	-0.0007965087890625	2668.30709426317
0.792083740234375	-0.00080322265625	2669.19210426094
0.78765869140625	-0.00080902099609375	2670.0771142587
0.783233642578125	-0.00081451416015625	2670.96212425647
0.77880859375	-0.00081878662109375	2671.84713425423
0.774383544921875	-0.00082366943359375	2672.732144252
0.76995849609375	-0.00082763671875	2673.61715424977
0.765533447265625	-0.00083160400390625	2674.50216424753
0.7611083984375	-0.0008343505859375	2675.3871742453
0.756683349609375	-0.0008367919921875	2676.27218424306
0.75225830078125	-0.0008392333984375	2677.15719424083
0.747833251953125	-0.000841064453125	2678.04220423859
0.743408203125	-0.00084259033203125	2678.92721423636
0.738983154296875	-0.00084197998046875	2679.81222423412
0.73455810546875	-0.000843505859375	2680.69723423189
0.730133056640625	-0.0008441162109375	2681.58224422966
0.7257080078125	-0.00084442138671875	2682.46725422742
0.721282958984375	-0.00084442138671875	2683.35226422519
0.71685791015625	-0.0008441162109375	2684.23727422295
0.712432861328125	-0.000843505859375	2685.12228422072
0.7080078125	-0.0008428955078125	2686.00729421848
0.703582763671875	-0.00084136962890625	2686.89230421625
0.69915771484375	-0.00083984375	2687.77731421401
0.694732666015625	-0.00083892822265625	2688.66232421178
0.6903076171875	-0.0008380126953125	2689.54733420955
0.685882568359375	-0.00083709716796875	2690.43234420731
0.68145751953125	-0.00083648681640625	2691.31735420508
0.677032470703125	-0.00083526611328125	2692.20236420284
0.672607421875	-0.00083465576171875	2693.08737420061
0.668182373046875	-0.00083465576171875	2693.97238419837
0.66375732421875	-0.00083343505859375	2694.85739419614
0.659332275390625	-0.00083160400390625	2695.7424041939
0.6549072265625	-0.00082977294921875	2696.62741419167
0.650482177734375	-0.000828857421875	2697.51242418944
0.64605712890625	-0.00082794189453125	2698.3974341872
0.641632080078125	-0.00082672119140625	2699.28244418497
0.63720703125	-0.0008251953125	2700.16745418273
0.632781982421875	-0.00082305908203125	2701.0524641805
0.62835693359375	-0.00082275390625	2701.93747417826
0.623931884765625	-0.00082427978515625	2702.82248417603
0.6195068359375	-0.00082183837890625	2703.70749417379
0.615081787109375	-0.0008209228515625	2704.59250417156
0.61065673828125	-0.00081939697265625	2705.47751416933
0.606231689453125	-0.00081817626953125	2706.36252416709
0.601806640625	-0.0008172607421875	2707.24753416486
0.597381591796875	-0.00081634521484375	2708.13254416262
0.59295654296875	-0.0008160400390625	2709.01755416039
0.588531494140625	-0.0008154296875	2709.90256415815
0.5841064453125	-0.0008135986328125	2710.78757415592
0.579681396484375	-0.0008135986328125	2711.67258415368
0.57525634765625	-0.0008135986328125	2712.55759415145
0.570831298828125	-0.00081390380859375	2713.44260414922
0.56640625	-0.00081390380859375	2714.32761414698
0.561981201171875	-0.0008135986328125	2715.21262414475
0.55755615234375	-0.0008135986328125	2716.09763414251
0.553131103515625	-0.00081390380859375	2716.98264414028
0.5487060546875	-0.00081451416015625	2717.86765413804
0.544281005859375	-0.00081390380859375	2718.75266413581
0.53985595703125	-0.00081451416015625	2719.63767413357
0.535430908203125	-0.0008148193359375	2720.52268413134
0.531005859375	-0.00081573486328125	2721.40769412911
0.526580810546875	-0.00081634521484375	2722.29270412687
0.52215576171875	-0.00081695556640625	2723.17771412464
0.517730712890625	-0.00081787109375	2724.0627241224
0.5133056640625	-0.000819091796875	2724.94773412017
0.508880615234375	-0.0008203125	2725.83274411793
0.50445556640625	-0.00082122802734375	2726.7177541157
0.500030517578125	-0.00082244873046875	2727.60276411347
0.49560546875	-0.00082427978515625	2728.48777411123
0.491180419921875	-0.00082489013671875	2729.372784109
0.48675537109375	-0.00082672119140625	2730.25779410676
0.482330322265625	-0.00082794189453125	2731.14280410453
0.4779052734375	-0.00082977294921875	2732.02781410229
0.473480224609375	-0.000831298828125	2732.91282410006
0.46905517578125	-0.00083251953125	2733.79783409782
0.464630126953125	-0.000833740234375	2734.68284409559
0.460205078125	-0.000836181640625	2735.56785409335
0.455780029296875	-0.00083770751953125	2736.45286409112
0.45135498046875	-0.00083953857421875	2737.33787408889
0.446929931640625	-0.0008416748046875	2738.22288408665
0.4425048828125	-0.00084320068359375	2739.10789408442
0.438079833984375	-0.0008447265625	2739.99290408218
0.43365478515625	-0.00084686279296875	2740.87791407995
0.429229736328125	-0.000848388671875	2741.76292407771
0.4248046875	-0.00085052490234375	2742.64793407548
0.420379638671875	-0.0008526611328125	2743.53294407325
0.41595458984375	-0.0008544921875	2744.41795407101
0.411529541015625	-0.00085662841796875	2745.30296406878
0.4071044921875	-0.00085845947265625	2746.18797406654
0.402679443359375	-0.000860595703125	2747.07298406431
0.39825439453125	-0.00086212158203125	2747.95799406207
0.393829345703125	-0.0008648681640625	2748.84300405984
0.389404296875	-0.0008660888671875	2749.7280140576
0.384979248046875	-0.00086822509765625	2750.61302405537
0.38055419921875	-0.00087066650390625	2751.49803405314
0.376129150390625	-0.00087310791015625	2752.3830440509
0.3717041015625	-0.000875244140625	2753.26805404867
0.367279052734375	-0.0008770751953125	2754.15306404643
0.36285400390625	-0.00087982177734375	2755.0380740442
0.358428955078125	-0.0008819580078125	2755.92308404196
0.35400390625	-0.0008843994140625	2756.80809403973
0.349578857421875	-0.0008856201171875	2757.69310403749
0.34515380859375	-0.000888671875	2758.57811403526
0.340728759765625	-0.00089202880859375	2759.46312403303
0.3363037109375	-0.00089447021484375	2760.34813403079
0.331878662109375	-0.00089752197265625	2761.23314402856
0.32745361328125	-0.00090087890625	2762.11815402632
0.323028564453125	-0.00090362548828125	2763.00316402409
0.318603515625	-0.000906982421875	2763.88817402185
0.314178466796875	-0.00090972900390625	2764.77318401962
0.30975341796875	-0.0009149169921875	2765.65819401738
0.305328369140625	-0.00091796875	2766.54320401515
0.3009033203125	-0.00092041015625	2767.42821401292
0.296478271484375	-0.00092376708984375	2768.31322401068
0.29205322265625	-0.00092681884765625	2769.19823400845
0.287628173828125	-0.00093017578125	2770.08324400621
0.283203125	-0.00093414306640625	2770.96825400398
0.278778076171875	-0.00093780517578125	2771.85326400174
0.27435302734375	-0.000941162109375	2772.73827399951
0.269927978515625	-0.00094512939453125	2773.62328399727
0.2655029296875	-0.00094879150390625	2774.50829399504
0.261077880859375	-0.0009527587890625	2775.39330399281
0.25665283203125	-0.0009564208984375	2776.27831399057
0.252227783203125	-0.00096038818359375	2777.16332398834
0.247802734375	-0.00096466064453125	2778.0483339861
0.243377685546875	-0.0009686279296875	2778.93334398387
0.23895263671875	-0.00097259521484375	2779.81835398163
0.234527587890625	-0.0009771728515625	2780.7033639794
0.2301025390625	-0.000980224609375	2781.58837397716
0.225677490234375	-0.0009844970703125	2782.47338397493
0.22125244140625	-0.00098876953125	2783.3583939727
0.216827392578125	-0.00099334716796875	2784.24340397046
0.21240234375	-0.00099761962890625	2785.12841396823
0.207977294921875	-0.00100189208984375	2786.01342396599
0.20355224609375	-0.00100616455078125	2786.89843396376
0.199127197265625	-0.0010107421875	2787.78344396152
0.1947021484375	-0.0010150146484375	2788.66845395929
0.190277099609375	-0.0010198974609375	2789.55346395705
0.18585205078125	-0.0010247802734375	2790.43847395482
0.181427001953125	-0.0010302734375	2791.32348395259
0.177001953125	-0.00103515625	2792.20849395035
0.172576904296875	-0.0010400390625	2793.09350394812
0.16815185546875	-0.001044921875	2793.97851394588
0.163726806640625	-0.001051025390625	2794.86352394365
0.1593017578125	-0.00105712890625	2795.74853394141
0.154876708984375	-0.00106231689453125	2796.63354393918
0.15045166015625	-0.00106842041015625	2797.51855393694
0.146026611328125	-0.00107421875	2798.40356393471
0.1416015625	-0.00108123779296875	2799.28857393248
0.137176513671875	-0.00108795166015625	2800.17358393024
0.13275146484375	-0.00109405517578125	2801.05859392801
0.128326416015625	-0.0011004638671875	2801.94360392577
0.1239013671875	-0.0011077880859375	2802.82861392354
0.119476318359375	-0.00111480712890625	2803.7136239213
0.11505126953125	-0.00112091064453125	2804.59863391907
0.110626220703125	-0.0011285400390625	2805.48364391683
0.106201171875	-0.0011358642578125	2806.3686539146
0.101776123046875	-0.00114410400390625	2807.25366391237
0.09735107421875	-0.0011517333984375	2808.13867391013
0.092926025390625	-0.00115936279296875	2809.0236839079
0.0885009765625	-0.00116729736328125	2809.90869390566
0.084075927734375	-0.00117523193359375	2810.79370390343
0.07965087890625	-0.00118377685546875	2811.67871390119
0.075225830078125	-0.00119110107421875	2812.56372389896
0.07080078125	-0.0011993408203125	2813.44873389672
0.066375732421875	-0.001207275390625	2814.33374389449
0.06195068359375	-0.00121612548828125	2815.21875389226
0.057525634765625	-0.00122467041015625	2816.10376389002
0.0531005859375	-0.001234130859375	2816.98877388779
0.048675537109375	-0.00124267578125	2817.87378388555
0.04425048828125	-0.00125244140625	2818.75879388332
0.039825439453125	-0.00126190185546875	2819.64380388108
0.035400390625	-0.0012713623046875	2820.52881387885
0.030975341796875	-0.00128082275390625	2821.41382387661
0.02655029296875	-0.0012921142578125	2822.29883387438
0.022125244140625	-0.00130279541015625	2823.18384387215
0.0177001953125	-0.0013140869140625	2824.06885386991
0.013275146484375	-0.00132537841796875	2824.95386386768
0.00885009765625	-0.001336669921875	2825.83887386544
0.004425048828125	-0.00134918212890625	2826.72388386321
0	-0.00136199951171875	2827.60889386097
0.004425048828125	-0.00076416015625	2828.49390385874
0.00885009765625	-0.00036090087890625	2829.3789138565
0.013275146484375	-7.7545166015625E-05	2830.26392385427
