Potential applied (V)	WE(1).Current (A)	Time (s)
0.004425048828125	-0.00085174560546875	2832.73005384804
0.00885009765625	-0.000371246337890625	2833.17255884693
0.013275146484375	1.0870361328125E-05	2833.61506384581
0.0177001953125	0.00032037353515625	2834.05756884469
0.022125244140625	0.000572509765625	2834.50007384358
0.02655029296875	0.00078338623046875	2834.94257884246
0.030975341796875	0.0009552001953125	2835.38508384134
0.035400390625	0.00109954833984375	2835.82758884022
0.039825439453125	0.0012213134765625	2836.27009383911
0.04425048828125	0.001324462890625	2836.71259883799
0.048675537109375	0.00141021728515625	2837.15510383687
0.0531005859375	0.00148284912109375	2837.59760883575
0.057525634765625	0.00154327392578125	2838.04011383464
0.06195068359375	0.00159393310546875	2838.48261883352
0.066375732421875	0.00163604736328125	2838.9251238324
0.07080078125	0.00167083740234375	2839.36762883129
0.075225830078125	0.001700439453125	2839.81013383017
0.07965087890625	0.0017236328125	2840.25263882905
0.084075927734375	0.00174407958984375	2840.69514382793
0.0885009765625	0.00176025390625	2841.13764882682
0.092926025390625	0.0017730712890625	2841.5801538257
0.09735107421875	0.0017840576171875	2842.02265882458
0.101776123046875	0.00179229736328125	2842.46516382347
0.106201171875	0.00179840087890625	2842.90766882235
0.110626220703125	0.001802978515625	2843.35017382123
0.11505126953125	0.00180572509765625	2843.79267882011
0.119476318359375	0.00180572509765625	2844.235183819
0.1239013671875	0.00180694580078125	2844.67768881788
0.128326416015625	0.00180694580078125	2845.12019381676
0.13275146484375	0.00180633544921875	2845.56269881564
0.137176513671875	0.00180511474609375	2846.00520381453
0.1416015625	0.0018023681640625	2846.44770881341
0.146026611328125	0.00180023193359375	2846.89021381229
0.15045166015625	0.0017974853515625	2847.33271881118
0.154876708984375	0.00179443359375	2847.77522381006
0.1593017578125	0.00179046630859375	2848.21772880894
0.163726806640625	0.001787109375	2848.66023380782
0.16815185546875	0.001783447265625	2849.10273880671
0.172576904296875	0.00178009033203125	2849.54524380559
0.177001953125	0.0017767333984375	2849.98774880447
0.181427001953125	0.00177215576171875	2850.43025380336
0.18585205078125	0.00176727294921875	2850.87275880224
0.190277099609375	0.001763916015625	2851.31526380112
0.1947021484375	0.00175994873046875	2851.7577688
0.199127197265625	0.0017559814453125	2852.20027379889
0.20355224609375	0.00175262451171875	2852.64277879777
0.207977294921875	0.00174896240234375	2853.08528379665
0.21240234375	0.00174560546875	2853.52778879553
0.216827392578125	0.00174346923828125	2853.97029379442
0.22125244140625	0.00174102783203125	2854.4127987933
0.225677490234375	0.00173828125	2854.85530379218
0.2301025390625	0.00173858642578125	2855.29780879107
0.234527587890625	0.0017352294921875	2855.74031378995
0.23895263671875	0.00173248291015625	2856.18281878883
0.243377685546875	0.001728515625	2856.62532378771
0.247802734375	0.0017254638671875	2857.0678287866
0.252227783203125	0.00173095703125	2857.51033378548
0.25665283203125	0.0017193603515625	2857.95283878436
0.261077880859375	0.00171905517578125	2858.39534378325
0.2655029296875	0.00171844482421875	2858.83784878213
0.269927978515625	0.00171661376953125	2859.28035378101
0.27435302734375	0.00171478271484375	2859.72285877989
0.278778076171875	0.001712646484375	2860.16536377878
0.283203125	0.00171142578125	2860.60786877766
0.287628173828125	0.0017108154296875	2861.05037377654
0.29205322265625	0.0017095947265625	2861.49287877543
0.296478271484375	0.00170806884765625	2861.93538377431
0.3009033203125	0.00170806884765625	2862.37788877319
0.305328369140625	0.00170654296875	2862.82039377207
0.30975341796875	0.0017059326171875	2863.26289877096
0.314178466796875	0.00170806884765625	2863.70540376984
0.318603515625	0.00170745849609375	2864.14790876872
0.323028564453125	0.00170654296875	2864.5904137676
0.32745361328125	0.00170623779296875	2865.03291876649
0.331878662109375	0.00170562744140625	2865.47542376537
0.3363037109375	0.00170623779296875	2865.91792876425
0.340728759765625	0.0017059326171875	2866.36043376314
0.34515380859375	0.001705322265625	2866.80293876202
0.349578857421875	0.001705322265625	2867.2454437609
0.35400390625	0.00170318603515625	2867.68794875978
0.358428955078125	0.00170379638671875	2868.13045375867
0.36285400390625	0.0017041015625	2868.57295875755
0.367279052734375	0.00170379638671875	2869.01546375643
0.3717041015625	0.0017034912109375	2869.45796875532
0.376129150390625	0.00170257568359375	2869.9004737542
0.38055419921875	0.0017022705078125	2870.34297875308
0.384979248046875	0.0017022705078125	2870.78548375196
0.389404296875	0.0017010498046875	2871.22798875085
0.393829345703125	0.00169921875	2871.67049374973
0.39825439453125	0.00169891357421875	2872.11299874861
0.402679443359375	0.00169708251953125	2872.55550374749
0.4071044921875	0.0016961669921875	2872.99800874638
0.411529541015625	0.00169525146484375	2873.44051374526
0.41595458984375	0.00169464111328125	2873.88301874414
0.420379638671875	0.00169281005859375	2874.32552374303
0.4248046875	0.0016912841796875	2874.76802874191
0.429229736328125	0.001690673828125	2875.21053374079
0.43365478515625	0.0016888427734375	2875.65303873967
0.438079833984375	0.00168792724609375	2876.09554373856
0.4425048828125	0.0016864013671875	2876.53804873744
0.446929931640625	0.00168548583984375	2876.98055373632
0.45135498046875	0.00168426513671875	2877.4230587352
0.455780029296875	0.001683349609375	2877.86556373409
0.460205078125	0.00168182373046875	2878.30806873297
0.464630126953125	0.001680908203125	2878.75057373185
0.46905517578125	0.00167877197265625	2879.19307873074
0.473480224609375	0.0016778564453125	2879.63558372962
0.4779052734375	0.00167724609375	2880.0780887285
0.482330322265625	0.00167572021484375	2880.52059372738
0.48675537109375	0.0016754150390625	2880.96309872627
0.491180419921875	0.00167388916015625	2881.40560372515
0.49560546875	0.0016729736328125	2881.84810872403
0.500030517578125	0.001671142578125	2882.29061372292
0.50445556640625	0.001669921875	2882.7331187218
0.508880615234375	0.00166839599609375	2883.17562372068
0.5133056640625	0.00166748046875	2883.61812871956
0.517730712890625	0.00166595458984375	2884.06063371845
0.52215576171875	0.0016650390625	2884.50313871733
0.526580810546875	0.0016644287109375	2884.94564371621
0.531005859375	0.001663818359375	2885.3881487151
0.535430908203125	0.00166351318359375	2885.83065371398
0.53985595703125	0.00166259765625	2886.27315871286
0.544281005859375	0.00166229248046875	2886.71566371174
0.5487060546875	0.001661376953125	2887.15816871063
0.553131103515625	0.00166168212890625	2887.60067370951
0.55755615234375	0.00166168212890625	2888.04317870839
0.561981201171875	0.00166229248046875	2888.48568370727
0.56640625	0.0016632080078125	2888.92818870616
0.570831298828125	0.00166412353515625	2889.37069370504
0.57525634765625	0.00166595458984375	2889.81319870392
0.579681396484375	0.0016668701171875	2890.25570370281
0.5841064453125	0.00166839599609375	2890.69820870169
0.588531494140625	0.001668701171875	2891.14071370057
0.59295654296875	0.001671142578125	2891.58321869945
0.597381591796875	0.00167388916015625	2892.02572369834
0.601806640625	0.00167724609375	2892.46822869722
0.606231689453125	0.0016796875	2892.9107336961
0.61065673828125	0.0016827392578125	2893.35323869499
0.615081787109375	0.0016864013671875	2893.79574369387
0.6195068359375	0.0016900634765625	2894.23824869275
0.623931884765625	0.00169342041015625	2894.68075369163
0.62835693359375	0.00170166015625	2895.12325869052
0.632781982421875	0.001705322265625	2895.5657636894
0.63720703125	0.0017095947265625	2896.00826868828
0.641632080078125	0.0017138671875	2896.45077368716
0.64605712890625	0.0017193603515625	2896.89327868605
0.650482177734375	0.0017242431640625	2897.33578368493
0.6549072265625	0.00173004150390625	2897.77828868381
0.659332275390625	0.00173614501953125	2898.2207936827
0.66375732421875	0.0017431640625	2898.66329868158
0.668182373046875	0.0017498779296875	2899.10580368046
0.672607421875	0.001756591796875	2899.54830867934
0.677032470703125	0.00176422119140625	2899.99081367823
0.68145751953125	0.0017718505859375	2900.43331867711
0.685882568359375	0.00178009033203125	2900.87582367599
0.6903076171875	0.00178863525390625	2901.31832867488
0.694732666015625	0.00179718017578125	2901.76083367376
0.69915771484375	0.00180572509765625	2902.20333867264
0.703582763671875	0.001815185546875	2902.64584367152
0.7080078125	0.00182525634765625	2903.08834867041
0.712432861328125	0.0018353271484375	2903.53085366929
0.71685791015625	0.00184600830078125	2903.97335866817
0.721282958984375	0.00185821533203125	2904.41586366705
0.7257080078125	0.00186920166015625	2904.85836866594
0.730133056640625	0.00188140869140625	2905.30087366482
0.73455810546875	0.00189422607421875	2905.7433786637
0.738983154296875	0.00190673828125	2906.18588366259
0.743408203125	0.0019183349609375	2906.62838866147
0.747833251953125	0.001932373046875	2907.07089366035
0.75225830078125	0.00194732666015625	2907.51339865923
0.756683349609375	0.00196258544921875	2907.95590365812
0.7611083984375	0.00197906494140625	2908.398408657
0.765533447265625	0.00199554443359375	2908.84091365588
0.76995849609375	0.002012939453125	2909.28341865477
0.774383544921875	0.00203033447265625	2909.72592365365
0.77880859375	0.00204864501953125	2910.16842865253
0.783233642578125	0.00206756591796875	2910.61093365141
0.78765869140625	0.0020880126953125	2911.0534386503
0.792083740234375	0.00210845947265625	2911.49594364918
0.7965087890625	0.0021307373046875	2911.93844864806
0.800933837890625	0.00215423583984375	2912.38095364694
0.80535888671875	0.00217803955078125	2912.82345864583
0.809783935546875	0.0022027587890625	2913.26596364471
0.814208984375	0.0022296142578125	2913.70846864359
0.818634033203125	0.002257080078125	2914.15097364248
0.82305908203125	0.00228485107421875	2914.59347864136
0.827484130859375	0.0023138427734375	2915.03598364024
0.8319091796875	0.0023443603515625	2915.47848863912
0.836334228515625	0.00237640380859375	2915.92099363801
0.84075927734375	0.00240966796875	2916.36349863689
0.845184326171875	0.00244384765625	2916.80600363577
0.849609375	0.0024786376953125	2917.24850863466
0.854034423828125	0.0025164794921875	2917.69101363354
0.85845947265625	0.00255523681640625	2918.13351863242
0.862884521484375	0.0025933837890625	2918.5760236313
0.8673095703125	0.00263397216796875	2919.01852863019
0.871734619140625	0.0026763916015625	2919.46103362907
0.87615966796875	0.002720947265625	2919.90353862795
0.880584716796875	0.00276641845703125	2920.34604362684
0.885009765625	0.0028118896484375	2920.78854862572
0.889434814453125	0.002860107421875	2921.2310536246
0.89385986328125	0.002908935546875	2921.67355862348
0.898284912109375	0.0029595947265625	2922.11606362237
0.9027099609375	0.00301025390625	2922.55856862125
0.907135009765625	0.003062744140625	2923.00107362013
0.91156005859375	0.0031170654296875	2923.44357861901
0.915985107421875	0.00317352294921875	2923.8860836179
0.92041015625	0.00322845458984375	2924.32858861678
0.924835205078125	0.00328582763671875	2924.77109361566
0.92926025390625	0.0033441162109375	2925.21359861455
0.933685302734375	0.00340362548828125	2925.65610361343
0.9381103515625	0.0034674072265625	2926.09860861231
0.942535400390625	0.0035296630859375	2926.54111361119
0.94696044921875	0.00359283447265625	2926.98361861008
0.951385498046875	0.0036572265625	2927.42612360896
0.955810546875	0.00372344970703125	2927.86862860784
0.960235595703125	0.0037921142578125	2928.31113360672
0.96466064453125	0.00386077880859375	2928.75363860561
0.969085693359375	0.00393280029296875	2929.19614360449
0.9735107421875	0.00400604248046875	2929.63864860337
0.977935791015625	0.00408050537109375	2930.08115360226
0.98236083984375	0.0041583251953125	2930.52365860114
0.986785888671875	0.004239501953125	2930.96616360002
0.9912109375	0.004326171875	2931.4086685989
0.995635986328125	0.00441558837890625	2931.85117359779
1.00006103515625	0.00451080322265625	2932.29367859667
0.995635986328125	0.003831787109375	2932.73618359555
0.9912109375	0.00328216552734375	2933.17868859444
0.986785888671875	0.0028173828125	2933.62119359332
0.98236083984375	0.00241302490234375	2934.0636985922
0.977935791015625	0.0020556640625	2934.50620359108
0.9735107421875	0.0017376708984375	2934.94870858997
0.969085693359375	0.0014495849609375	2935.39121358885
0.96466064453125	0.0011883544921875	2935.83371858773
0.960235595703125	0.00094970703125	2936.27622358662
0.955810546875	0.00073211669921875	2936.7187285855
0.951385498046875	0.00053253173828125	2937.16123358438
0.94696044921875	0.00034912109375	2937.60373858326
0.942535400390625	0.0001807861328125	2938.04624358215
0.9381103515625	2.60772705078125E-05	2938.48874858103
0.933685302734375	-0.00011932373046875	2938.93125357991
0.92926025390625	-0.000250030517578125	2939.37375857879
0.924835205078125	-0.00037030029296875	2939.81626357768
0.92041015625	-0.000481597900390625	2940.25876857656
0.915985107421875	-0.000583953857421875	2940.70127357544
0.91156005859375	-0.000678436279296875	2941.14377857433
0.907135009765625	-0.00076568603515625	2941.58628357321
0.9027099609375	-0.000845947265625	2942.02878857209
0.898284912109375	-0.00092041015625	2942.47129357097
0.89385986328125	-0.00098907470703125	2942.91379856986
0.889434814453125	-0.00105224609375	2943.35630356874
0.885009765625	-0.0011102294921875	2943.79880856762
0.880584716796875	-0.0011639404296875	2944.24131356651
0.87615966796875	-0.00121368408203125	2944.68381856539
0.871734619140625	-0.00125823974609375	2945.12632356427
0.8673095703125	-0.0013006591796875	2945.56882856315
0.862884521484375	-0.0013385009765625	2946.01133356204
0.85845947265625	-0.00137359619140625	2946.45383856092
0.854034423828125	-0.00140533447265625	2946.8963435598
0.849609375	-0.001435546875	2947.33884855868
0.845184326171875	-0.00146209716796875	2947.78135355757
0.84075927734375	-0.00148712158203125	2948.22385855645
0.836334228515625	-0.00150970458984375	2948.66636355533
0.8319091796875	-0.00153106689453125	2949.10886855422
0.827484130859375	-0.0015496826171875	2949.5513735531
0.82305908203125	-0.0015673828125	2949.99387855198
0.818634033203125	-0.00158294677734375	2950.43638355086
0.814208984375	-0.0015972900390625	2950.87888854975
0.809783935546875	-0.00160980224609375	2951.32139354863
0.80535888671875	-0.001622314453125	2951.76389854751
0.800933837890625	-0.00163299560546875	2952.2064035464
0.7965087890625	-0.0016424560546875	2952.64890854528
0.792083740234375	-0.001651611328125	2953.09141354416
0.78765869140625	-0.00165985107421875	2953.53391854304
0.783233642578125	-0.0016668701171875	2953.97642354193
0.77880859375	-0.00167266845703125	2954.41892854081
0.774383544921875	-0.00167877197265625	2954.86143353969
0.76995849609375	-0.0016845703125	2955.30393853857
0.765533447265625	-0.00168914794921875	2955.74644353746
0.7611083984375	-0.001693115234375	2956.18894853634
0.756683349609375	-0.00169647216796875	2956.63145353522
0.75225830078125	-0.00169921875	2957.07395853411
0.747833251953125	-0.00170135498046875	2957.51646353299
0.743408203125	-0.00170379638671875	2957.95896853187
0.738983154296875	-0.0017041015625	2958.40147353075
0.73455810546875	-0.00170562744140625	2958.84397852964
0.730133056640625	-0.00170684814453125	2959.28648352852
0.7257080078125	-0.001707763671875	2959.7289885274
0.721282958984375	-0.00170806884765625	2960.17149352629
0.71685791015625	-0.0017083740234375	2960.61399852517
0.712432861328125	-0.001707763671875	2961.05650352405
0.7080078125	-0.001707763671875	2961.49900852293
0.703582763671875	-0.00170684814453125	2961.94151352182
0.69915771484375	-0.00170440673828125	2962.3840185207
0.694732666015625	-0.0017041015625	2962.82652351958
0.6903076171875	-0.00170318603515625	2963.26902851846
0.685882568359375	-0.00170196533203125	2963.71153351735
0.68145751953125	-0.00170013427734375	2964.15403851623
0.677032470703125	-0.00169830322265625	2964.59654351511
0.672607421875	-0.00169708251953125	2965.039048514
0.668182373046875	-0.001695556640625	2965.48155351288
0.66375732421875	-0.0016949462890625	2965.92405851176
0.659332275390625	-0.00169281005859375	2966.36656351064
0.6549072265625	-0.00169097900390625	2966.80906850953
0.650482177734375	-0.001689453125	2967.25157350841
0.64605712890625	-0.00168731689453125	2967.69407850729
0.641632080078125	-0.0016864013671875	2968.13658350618
0.63720703125	-0.00168548583984375	2968.57908850506
0.632781982421875	-0.00168426513671875	2969.02159350394
0.62835693359375	-0.0016827392578125	2969.46409850282
0.623931884765625	-0.00168487548828125	2969.90660350171
0.6195068359375	-0.00168304443359375	2970.34910850059
0.615081787109375	-0.00168212890625	2970.79161349947
0.61065673828125	-0.00168060302734375	2971.23411849836
0.606231689453125	-0.0016790771484375	2971.67662349724
0.601806640625	-0.00167816162109375	2972.11912849612
0.597381591796875	-0.0016778564453125	2972.561633495
0.59295654296875	-0.00167694091796875	2973.00413849389
0.588531494140625	-0.00167724609375	2973.44664349277
0.5841064453125	-0.001676025390625	2973.88914849165
0.579681396484375	-0.0016766357421875	2974.33165349053
0.57525634765625	-0.0016778564453125	2974.77415848942
0.570831298828125	-0.00167816162109375	2975.2166634883
0.56640625	-0.00167999267578125	2975.65916848718
0.561981201171875	-0.00168060302734375	2976.10167348607
0.55755615234375	-0.0016827392578125	2976.54417848495
0.553131103515625	-0.0016845703125	2976.98668348383
0.5487060546875	-0.00168548583984375	2977.42918848271
0.544281005859375	-0.00168670654296875	2977.8716934816
0.53985595703125	-0.00168914794921875	2978.31419848048
0.535430908203125	-0.00169158935546875	2978.75670347936
0.531005859375	-0.0016943359375	2979.19920847825
0.526580810546875	-0.00169647216796875	2979.64171347713
0.52215576171875	-0.00169891357421875	2980.08421847601
0.517730712890625	-0.00170196533203125	2980.52672347489
0.5133056640625	-0.00170440673828125	2980.96922847378
0.508880615234375	-0.001707763671875	2981.41173347266
0.50445556640625	-0.00171112060546875	2981.85423847154
0.500030517578125	-0.00171417236328125	2982.29674347042
0.49560546875	-0.00171722412109375	2982.73924846931
0.491180419921875	-0.00172088623046875	2983.18175346819
0.48675537109375	-0.001724853515625	2983.62425846707
0.482330322265625	-0.001728515625	2984.06676346596
0.4779052734375	-0.001732177734375	2984.50926846484
0.473480224609375	-0.00173583984375	2984.95177346372
0.46905517578125	-0.00173980712890625	2985.3942784626
0.464630126953125	-0.00174346923828125	2985.83678346149
0.460205078125	-0.0017474365234375	2986.27928846037
0.455780029296875	-0.001751708984375	2986.72179345925
0.45135498046875	-0.00175628662109375	2987.16429845813
0.446929931640625	-0.00176116943359375	2987.60680345702
0.4425048828125	-0.00176483154296875	2988.0493084559
0.438079833984375	-0.00176910400390625	2988.49181345478
0.43365478515625	-0.00177337646484375	2988.93431845367
0.429229736328125	-0.0017779541015625	2989.37682345255
0.4248046875	-0.0017822265625	2989.81932845143
0.420379638671875	-0.001787109375	2990.26183345031
0.41595458984375	-0.0017913818359375	2990.7043384492
0.411529541015625	-0.001795654296875	2991.14684344808
0.4071044921875	-0.00179962158203125	2991.58934844696
0.402679443359375	-0.00180419921875	2992.03185344585
0.39825439453125	-0.00180877685546875	2992.47435844473
0.393829345703125	-0.0018133544921875	2992.91686344361
0.389404296875	-0.00181732177734375	2993.35936844249
0.384979248046875	-0.00182159423828125	2993.80187344138
0.38055419921875	-0.001826171875	2994.24437844026
0.376129150390625	-0.00183135986328125	2994.68688343914
0.3717041015625	-0.0018365478515625	2995.12938843803
0.367279052734375	-0.0018408203125	2995.57189343691
0.36285400390625	-0.0018463134765625	2996.01439843579
0.358428955078125	-0.00185089111328125	2996.45690343467
0.35400390625	-0.00185577392578125	2996.89940843356
0.349578857421875	-0.0018597412109375	2997.34191343244
0.34515380859375	-0.00186492919921875	2997.78441843132
0.340728759765625	-0.00187042236328125	2998.2269234302
0.3363037109375	-0.0018756103515625	2998.66942842909
0.331878662109375	-0.001881103515625	2999.11193342797
0.32745361328125	-0.00188751220703125	2999.55443842685
0.323028564453125	-0.00189361572265625	2999.99694342574
0.318603515625	-0.00189910888671875	3000.43944842462
0.314178466796875	-0.00190521240234375	3000.8819534235
0.30975341796875	-0.00191314697265625	3001.32445842238
0.305328369140625	-0.00191864013671875	3001.76696342127
0.3009033203125	-0.00192474365234375	3002.20946842015
0.296478271484375	-0.00193115234375	3002.65197341903
0.29205322265625	-0.0019366455078125	3003.09447841792
0.287628173828125	-0.00194366455078125	3003.5369834168
0.283203125	-0.0019500732421875	3003.97948841568
0.278778076171875	-0.001956787109375	3004.42199341456
0.27435302734375	-0.0019635009765625	3004.86449841345
0.269927978515625	-0.00197021484375	3005.30700341233
0.2655029296875	-0.00197723388671875	3005.74950841121
0.261077880859375	-0.0019842529296875	3006.19201341009
0.25665283203125	-0.001990966796875	3006.63451840898
0.252227783203125	-0.00199798583984375	3007.07702340786
0.247802734375	-0.00200592041015625	3007.51952840674
0.243377685546875	-0.00201324462890625	3007.96203340563
0.23895263671875	-0.00202117919921875	3008.40453840451
0.234527587890625	-0.00202850341796875	3008.84704340339
0.2301025390625	-0.00203460693359375	3009.28954840227
0.225677490234375	-0.002042236328125	3009.73205340116
0.22125244140625	-0.002049560546875	3010.17455840004
0.216827392578125	-0.00205718994140625	3010.61706339892
0.21240234375	-0.00206573486328125	3011.05956839781
0.207977294921875	-0.00207366943359375	3011.50207339669
0.20355224609375	-0.002081298828125	3011.94457839557
0.199127197265625	-0.00208984375	3012.38708339445
0.1947021484375	-0.00209808349609375	3012.82958839334
0.190277099609375	-0.0021063232421875	3013.27209339222
0.18585205078125	-0.00211395263671875	3013.7145983911
0.181427001953125	-0.00212249755859375	3014.15710338998
0.177001953125	-0.0021307373046875	3014.59960838887
0.172576904296875	-0.00214019775390625	3015.04211338775
0.16815185546875	-0.0021490478515625	3015.48461838663
0.163726806640625	-0.00215911865234375	3015.92712338552
0.1593017578125	-0.00216796875	3016.3696283844
0.154876708984375	-0.00217681884765625	3016.81213338328
0.15045166015625	-0.0021868896484375	3017.25463838216
0.146026611328125	-0.00219696044921875	3017.69714338105
0.1416015625	-0.0022076416015625	3018.13964837993
0.137176513671875	-0.00221832275390625	3018.58215337881
0.13275146484375	-0.00222930908203125	3019.0246583777
0.128326416015625	-0.0022406005859375	3019.46716337658
0.1239013671875	-0.00225128173828125	3019.90966837546
0.119476318359375	-0.00226348876953125	3020.35217337434
0.11505126953125	-0.0022735595703125	3020.79467837323
0.110626220703125	-0.002286376953125	3021.23718337211
0.106201171875	-0.00229827880859375	3021.67968837099
0.101776123046875	-0.00231170654296875	3022.12219336987
0.09735107421875	-0.00232421875	3022.56469836876
0.092926025390625	-0.002337646484375	3023.00720336764
0.0885009765625	-0.00235107421875	3023.44970836652
0.084075927734375	-0.00236419677734375	3023.89221336541
0.07965087890625	-0.00237823486328125	3024.33471836429
0.075225830078125	-0.00239105224609375	3024.77722336317
0.07080078125	-0.002406005859375	3025.21972836205
0.066375732421875	-0.00242034912109375	3025.66223336094
0.06195068359375	-0.002435302734375	3026.10473835982
0.057525634765625	-0.002449951171875	3026.5472433587
0.0531005859375	-0.0024652099609375	3026.98974835759
0.048675537109375	-0.00248046875	3027.43225335647
0.04425048828125	-0.00249542236328125	3027.87475835535
0.039825439453125	-0.00251068115234375	3028.31726335423
0.035400390625	-0.00252655029296875	3028.75976835312
0.030975341796875	-0.0025433349609375	3029.202273352
0.02655029296875	-0.0025592041015625	3029.64477835088
0.022125244140625	-0.0025762939453125	3030.08728334977
0.0177001953125	-0.0025933837890625	3030.52978834865
0.013275146484375	-0.00261077880859375	3030.97229334753
0.00885009765625	-0.0026287841796875	3031.41479834641
0.004425048828125	-0.00264739990234375	3031.8573033453
0	-0.00266632080078125	3032.29980834418
0.004425048828125	-0.00192352294921875	3032.74231334306
0.00885009765625	-0.00132965087890625	3033.18481834194
0.013275146484375	-0.0008447265625	3033.62732334083
0.0177001953125	-0.000442840576171875	3034.06982833971
0.022125244140625	-0.000107421875	3034.51233333859
0.02655029296875	0.0001751708984375	3034.95483833748
0.030975341796875	0.000413421630859375	3035.39734333636
0.035400390625	0.00061676025390625	3035.83984833524
0.039825439453125	0.0007879638671875	3036.28235333412
0.04425048828125	0.0009344482421875	3036.72485833301
0.048675537109375	0.001060791015625	3037.16736333189
0.0531005859375	0.0011663818359375	3037.60986833077
0.057525634765625	0.00125579833984375	3038.05237332965
0.06195068359375	0.00133270263671875	3038.49487832854
0.066375732421875	0.00139923095703125	3038.93738332742
0.07080078125	0.0014569091796875	3039.3798883263
0.075225830078125	0.00150634765625	3039.82239332519
0.07965087890625	0.0015472412109375	3040.26489832407
0.084075927734375	0.00158233642578125	3040.70740332295
0.0885009765625	0.001612548828125	3041.14990832183
0.092926025390625	0.00163818359375	3041.59241332072
0.09735107421875	0.00165924072265625	3042.0349183196
0.101776123046875	0.00167724609375	3042.47742331848
0.106201171875	0.00169189453125	3042.91992831737
0.110626220703125	0.00170440673828125	3043.36243331625
0.11505126953125	0.0017138671875	3043.80493831513
0.119476318359375	0.001719970703125	3044.24744331401
0.1239013671875	0.00172637939453125	3044.6899483129
0.128326416015625	0.00173126220703125	3045.13245331178
0.13275146484375	0.0017352294921875	3045.57495831066
0.137176513671875	0.0017376708984375	3046.01746330955
0.1416015625	0.0017388916015625	3046.45996830843
0.146026611328125	0.001739501953125	3046.90247330731
0.15045166015625	0.00173919677734375	3047.34497830619
0.154876708984375	0.0017388916015625	3047.78748330508
0.1593017578125	0.00173736572265625	3048.22998830396
0.163726806640625	0.0017364501953125	3048.67249330284
0.16815185546875	0.00173431396484375	3049.11499830172
0.172576904296875	0.00173248291015625	3049.55750330061
0.177001953125	0.00173004150390625	3050.00000829949
0.181427001953125	0.001727294921875	3050.44251329837
0.18585205078125	0.00172454833984375	3050.88501829726
0.190277099609375	0.00172210693359375	3051.32752329614
0.1947021484375	0.00171966552734375	3051.77002829502
0.199127197265625	0.00171630859375	3052.2125332939
0.20355224609375	0.0017132568359375	3052.65503829279
0.207977294921875	0.00171051025390625	3053.09754329167
0.21240234375	0.001707763671875	3053.54004829055
0.216827392578125	0.00170501708984375	3053.98255328944
0.22125244140625	0.00170166015625	3054.42505828832
0.225677490234375	0.0016986083984375	3054.8675632872
0.2301025390625	0.00169586181640625	3055.31006828608
0.234527587890625	0.00169189453125	3055.75257328497
0.23895263671875	0.00169036865234375	3056.19507828385
0.243377685546875	0.00168853759765625	3056.63758328273
0.247802734375	0.00168670654296875	3057.08008828161
0.252227783203125	0.0016851806640625	3057.5225932805
0.25665283203125	0.00168487548828125	3057.96509827938
0.261077880859375	0.00168304443359375	3058.40760327826
0.2655029296875	0.00168060302734375	3058.85010827715
0.269927978515625	0.0016778564453125	3059.29261327603
0.27435302734375	0.0016754150390625	3059.73511827491
0.278778076171875	0.00167388916015625	3060.17762327379
0.283203125	0.00167144775390625	3060.62012827268
0.287628173828125	0.001671142578125	3061.06263327156
0.29205322265625	0.0016705322265625	3061.50513827044
0.296478271484375	0.00166961669921875	3061.94764326933
0.3009033203125	0.00166839599609375	3062.39014826821
0.305328369140625	0.0016668701171875	3062.83265326709
0.30975341796875	0.0016656494140625	3063.27515826597
0.314178466796875	0.00166717529296875	3063.71766326486
0.318603515625	0.00166534423828125	3064.16016826374
0.323028564453125	0.00166473388671875	3064.60267326262
0.32745361328125	0.0016632080078125	3065.0451782615
0.331878662109375	0.00166259765625	3065.48768326039
0.3363037109375	0.00166168212890625	3065.93018825927
0.340728759765625	0.00166046142578125	3066.37269325815
0.34515380859375	0.0016595458984375	3066.81519825704
0.349578857421875	0.00165924072265625	3067.25770325592
0.35400390625	0.00165679931640625	3067.7002082548
0.358428955078125	0.0016571044921875	3068.14271325368
0.36285400390625	0.00165679931640625	3068.58521825257
0.367279052734375	0.0016558837890625	3069.02772325145
0.3717041015625	0.0016558837890625	3069.47022825033
0.376129150390625	0.00165435791015625	3069.91273324922
0.38055419921875	0.0016534423828125	3070.3552382481
0.384979248046875	0.00165191650390625	3070.79774324698
0.389404296875	0.00165069580078125	3071.24024824586
0.393829345703125	0.00164764404296875	3071.68275324475
0.39825439453125	0.00164642333984375	3072.12525824363
0.402679443359375	0.00164520263671875	3072.56776324251
0.4071044921875	0.00164276123046875	3073.01026824139
0.411529541015625	0.00164031982421875	3073.45277324028
0.41595458984375	0.00163818359375	3073.89527823916
0.420379638671875	0.0016357421875	3074.33778323804
0.4248046875	0.00163360595703125	3074.78028823693
0.429229736328125	0.00163177490234375	3075.22279323581
0.43365478515625	0.0016290283203125	3075.66529823469
0.438079833984375	0.00162689208984375	3076.10780323357
0.4425048828125	0.001624755859375	3076.55030823246
0.446929931640625	0.00162261962890625	3076.99281323134
0.45135498046875	0.0016204833984375	3077.43531823022
0.455780029296875	0.0016180419921875	3077.87782322911
0.460205078125	0.0016162109375	3078.32032822799
0.464630126953125	0.00161468505859375	3078.76283322687
0.46905517578125	0.00161224365234375	3079.20533822575
0.473480224609375	0.00161102294921875	3079.64784322464
0.4779052734375	0.00160888671875	3080.09034822352
0.482330322265625	0.0016070556640625	3080.5328532224
0.48675537109375	0.00160614013671875	3080.97535822129
0.491180419921875	0.00160430908203125	3081.41786322017
0.49560546875	0.00160308837890625	3081.86036821905
0.500030517578125	0.0016015625	3082.30287321793
0.50445556640625	0.00160064697265625	3082.74537821682
0.508880615234375	0.00159912109375	3083.1878832157
0.5133056640625	0.001597900390625	3083.63038821458
0.517730712890625	0.0015960693359375	3084.07289321346
0.52215576171875	0.001595458984375	3084.51539821235
0.526580810546875	0.001595458984375	3084.95790321123
0.531005859375	0.00159454345703125	3085.40040821011
0.535430908203125	0.00159454345703125	3085.842913209
0.53985595703125	0.0015936279296875	3086.28541820788
0.544281005859375	0.00159393310546875	3086.72792320676
0.5487060546875	0.001593017578125	3087.17042820564
0.553131103515625	0.001593017578125	3087.61293320453
0.55755615234375	0.00159332275390625	3088.05543820341
0.561981201171875	0.00159454345703125	3088.49794320229
0.56640625	0.00159454345703125	3088.94044820118
0.570831298828125	0.00159576416015625	3089.38295320006
0.57525634765625	0.0015972900390625	3089.82545819894
0.579681396484375	0.00159881591796875	3090.26796319782
0.5841064453125	0.00160003662109375	3090.71046819671
0.588531494140625	0.001600341796875	3091.15297319559
0.59295654296875	0.00160247802734375	3091.59547819447
0.597381591796875	0.001605224609375	3092.03798319335
0.601806640625	0.0016082763671875	3092.48048819224
0.606231689453125	0.00161102294921875	3092.92299319112
0.61065673828125	0.00161376953125	3093.36549819
0.615081787109375	0.00161773681640625	3093.80800318889
0.6195068359375	0.00162078857421875	3094.25050818777
0.623931884765625	0.001624755859375	3094.69301318665
0.62835693359375	0.00163238525390625	3095.13551818553
0.632781982421875	0.00163543701171875	3095.57802318442
0.63720703125	0.001639404296875	3096.0205281833
0.641632080078125	0.0016436767578125	3096.46303318218
0.64605712890625	0.00164825439453125	3096.90553818106
0.650482177734375	0.00165313720703125	3097.34804317995
0.6549072265625	0.0016583251953125	3097.79054817883
0.659332275390625	0.0016644287109375	3098.23305317771
0.66375732421875	0.00167022705078125	3098.6755581766
0.668182373046875	0.0016766357421875	3099.11806317548
0.672607421875	0.0016827392578125	3099.56056817436
0.677032470703125	0.00169036865234375	3100.00307317324
0.68145751953125	0.0016973876953125	3100.44557817213
0.685882568359375	0.0017047119140625	3100.88808317101
0.6903076171875	0.00171234130859375	3101.33058816989
0.694732666015625	0.0017205810546875	3101.77309316878
0.69915771484375	0.0017291259765625	3102.21559816766
0.703582763671875	0.001737060546875	3102.65810316654
0.7080078125	0.0017462158203125	3103.10060816542
0.712432861328125	0.00175628662109375	3103.54311316431
0.71685791015625	0.00176666259765625	3103.98561816319
0.721282958984375	0.00177703857421875	3104.42812316207
0.7257080078125	0.0017877197265625	3104.87062816096
0.730133056640625	0.0017987060546875	3105.31313315984
0.73455810546875	0.001810302734375	3105.75563815872
0.738983154296875	0.00182220458984375	3106.1981431576
0.743408203125	0.0018328857421875	3106.64064815649
0.747833251953125	0.00184722900390625	3107.08315315537
0.75225830078125	0.0018609619140625	3107.52565815425
0.756683349609375	0.001875	3107.96816315313
0.7611083984375	0.0018896484375	3108.41066815202
0.765533447265625	0.00190521240234375	3108.8531731509
0.76995849609375	0.00192138671875	3109.29567814978
0.774383544921875	0.00193756103515625	3109.73818314867
0.77880859375	0.00195556640625	3110.18068814755
0.783233642578125	0.0019732666015625	3110.62319314643
0.78765869140625	0.0019915771484375	3111.06569814531
0.792083740234375	0.00201202392578125	3111.5082031442
0.7965087890625	0.00203338623046875	3111.95070814308
0.800933837890625	0.00205413818359375	3112.39321314196
0.80535888671875	0.00207672119140625	3112.83571814085
0.809783935546875	0.00210113525390625	3113.27822313973
0.814208984375	0.002125244140625	3113.72072813861
0.818634033203125	0.00215087890625	3114.16323313749
0.82305908203125	0.00217742919921875	3114.60573813638
0.827484130859375	0.00220428466796875	3115.04824313526
0.8319091796875	0.00223297119140625	3115.49074813414
0.836334228515625	0.00226348876953125	3115.93325313302
0.84075927734375	0.00229461669921875	3116.37575813191
0.845184326171875	0.0023272705078125	3116.81826313079
0.849609375	0.00235931396484375	3117.26076812967
0.854034423828125	0.00239532470703125	3117.70327312856
0.85845947265625	0.0024310302734375	3118.14577812744
0.862884521484375	0.00246795654296875	3118.58828312632
0.8673095703125	0.00250701904296875	3119.0307881252
0.871734619140625	0.002547607421875	3119.47329312409
0.87615966796875	0.002589111328125	3119.91579812297
0.880584716796875	0.00263153076171875	3120.35830312185
0.885009765625	0.0026751708984375	3120.80080812074
0.889434814453125	0.00272064208984375	3121.24331311962
0.89385986328125	0.00276763916015625	3121.6858181185
0.898284912109375	0.00281463623046875	3122.12832311738
0.9027099609375	0.0028631591796875	3122.57082811627
0.907135009765625	0.0029132080078125	3123.01333311515
0.91156005859375	0.0029644775390625	3123.45583811403
0.915985107421875	0.00301666259765625	3123.89834311291
0.92041015625	0.003070068359375	3124.3408481118
0.924835205078125	0.00312530517578125	3124.78335311068
0.92926025390625	0.00318115234375	3125.22585810956
0.933685302734375	0.0032379150390625	3125.66836310845
0.9381103515625	0.00329864501953125	3126.11086810733
0.942535400390625	0.00335723876953125	3126.55337310621
0.94696044921875	0.00341796875	3126.99587810509
0.951385498046875	0.00347930908203125	3127.43838310398
0.955810546875	0.00354278564453125	3127.88088810286
0.960235595703125	0.0036077880859375	3128.32339310174
0.96466064453125	0.00367584228515625	3128.76589810063
0.969085693359375	0.0037451171875	3129.20840309951
0.9735107421875	0.003817138671875	3129.65090809839
0.977935791015625	0.0038916015625	3130.09341309727
0.98236083984375	0.003970947265625	3130.53591809616
0.986785888671875	0.00405303955078125	3130.97842309504
0.9912109375	0.004140625	3131.42092809392
0.995635986328125	0.00423187255859375	3131.8634330928
1.00006103515625	0.0043280029296875	3132.30593809169
0.995635986328125	0.00365447998046875	3132.74844309057
0.9912109375	0.003111572265625	3133.19094808945
0.986785888671875	0.0026544189453125	3133.63345308834
0.98236083984375	0.00225860595703125	3134.07595808722
0.977935791015625	0.00191009521484375	3134.5184630861
0.9735107421875	0.0016009521484375	3134.96096808498
0.969085693359375	0.00132049560546875	3135.40347308387
0.96466064453125	0.001068115234375	3135.84597808275
0.960235595703125	0.00083770751953125	3136.28848308163
0.955810546875	0.0006280517578125	3136.73098808052
0.951385498046875	0.000435943603515625	3137.1734930794
0.94696044921875	0.00026019287109375	3137.61599807828
0.942535400390625	9.9212646484375E-05	3138.05850307716
0.9381103515625	-4.91943359375E-05	3138.50100807605
0.933685302734375	-0.000186920166015625	3138.94351307493
0.92926025390625	-0.00031134033203125	3139.38601807381
0.924835205078125	-0.000425628662109375	3139.8285230727
0.92041015625	-0.00053106689453125	3140.27102807158
0.915985107421875	-0.000627471923828125	3140.71353307046
0.91156005859375	-0.000716552734375	3141.15603806934
0.907135009765625	-0.00079833984375	3141.59854306823
0.9027099609375	-0.00087371826171875	3142.04104806711
0.898284912109375	-0.00094329833984375	3142.48355306599
0.89385986328125	-0.001007080078125	3142.92605806487
0.889434814453125	-0.00106597900390625	3143.36856306376
0.885009765625	-0.0011199951171875	3143.81106806264
0.880584716796875	-0.00117034912109375	3144.25357306152
0.87615966796875	-0.00121612548828125	3144.69607806041
0.871734619140625	-0.0012579345703125	3145.13858305929
0.8673095703125	-0.00129669189453125	3145.58108805817
0.862884521484375	-0.00133209228515625	3146.02359305705
0.85845947265625	-0.0013641357421875	3146.46609805594
0.854034423828125	-0.00139404296875	3146.90860305482
0.849609375	-0.00142120361328125	3147.3511080537
0.845184326171875	-0.00144622802734375	3147.79361305258
0.84075927734375	-0.0014691162109375	3148.23611805147
0.836334228515625	-0.0014898681640625	3148.67862305035
0.8319091796875	-0.00150909423828125	3149.12112804923
0.827484130859375	-0.00152679443359375	3149.56363304812
0.82305908203125	-0.00154266357421875	3150.006138047
0.818634033203125	-0.0015570068359375	3150.44864304588
0.814208984375	-0.00157012939453125	3150.89114804476
0.809783935546875	-0.00158172607421875	3151.33365304365
0.80535888671875	-0.001593017578125	3151.77615804253
0.800933837890625	-0.0016033935546875	3152.21866304141
0.7965087890625	-0.001612548828125	3152.6611680403
0.792083740234375	-0.00162078857421875	3153.10367303918
0.78765869140625	-0.00162841796875	3153.54617803806
0.783233642578125	-0.00163543701171875	3153.98868303694
0.77880859375	-0.00164031982421875	3154.43118803583
0.774383544921875	-0.0016461181640625	3154.87369303471
0.76995849609375	-0.0016510009765625	3155.31619803359
0.765533447265625	-0.0016552734375	3155.75870303248
0.7611083984375	-0.001658935546875	3156.20120803136
0.756683349609375	-0.00166259765625	3156.64371303024
0.75225830078125	-0.0016650390625	3157.08621802912
0.747833251953125	-0.00166778564453125	3157.52872302801
0.743408203125	-0.0016693115234375	3157.97122802689
0.738983154296875	-0.00166900634765625	3158.41373302577
0.73455810546875	-0.001671142578125	3158.85623802465
0.730133056640625	-0.00167205810546875	3159.29874302354
0.7257080078125	-0.001673583984375	3159.74124802242
0.721282958984375	-0.00167388916015625	3160.1837530213
0.71685791015625	-0.0016741943359375	3160.62625802019
0.712432861328125	-0.0016741943359375	3161.06876301907
0.7080078125	-0.0016748046875	3161.51126801795
0.703582763671875	-0.00167510986328125	3161.95377301683
0.69915771484375	-0.00167327880859375	3162.39627801572
0.694732666015625	-0.00167266845703125	3162.8387830146
0.6903076171875	-0.001671142578125	3163.28128801348
0.685882568359375	-0.0016705322265625	3163.72379301237
0.68145751953125	-0.00167022705078125	3164.16629801125
0.677032470703125	-0.001669921875	3164.60880301013
0.672607421875	-0.00166839599609375	3165.05130800901
0.668182373046875	-0.00166656494140625	3165.4938130079
0.66375732421875	-0.0016650390625	3165.93631800678
0.659332275390625	-0.001663818359375	3166.37882300566
0.6549072265625	-0.0016632080078125	3166.82132800454
0.650482177734375	-0.00166229248046875	3167.26383300343
0.64605712890625	-0.00166046142578125	3167.70633800231
0.641632080078125	-0.00166015625	3168.14884300119
0.63720703125	-0.0016595458984375	3168.59134800008
0.632781982421875	-0.00165802001953125	3169.03385299896
0.62835693359375	-0.0016571044921875	3169.47635799784
0.623931884765625	-0.00165985107421875	3169.91886299672
0.6195068359375	-0.00165863037109375	3170.36136799561
0.615081787109375	-0.00165740966796875	3170.80387299449
0.61065673828125	-0.001656494140625	3171.24637799337
0.606231689453125	-0.00165618896484375	3171.68888299226
0.601806640625	-0.001656494140625	3172.13138799114
0.597381591796875	-0.00165618896484375	3172.57389299002
0.59295654296875	-0.00165618896484375	3173.0163979889
0.588531494140625	-0.0016571044921875	3173.45890298779
0.5841064453125	-0.00165618896484375	3173.90140798667
0.579681396484375	-0.00165740966796875	3174.34391298555
0.57525634765625	-0.001658935546875	3174.78641798443
0.570831298828125	-0.00166015625	3175.22892298332
0.56640625	-0.0016619873046875	3175.6714279822
0.561981201171875	-0.00166351318359375	3176.11393298108
0.55755615234375	-0.00166534423828125	3176.55643797997
0.553131103515625	-0.0016668701171875	3176.99894297885
0.5487060546875	-0.0016693115234375	3177.44144797773
0.544281005859375	-0.00167022705078125	3177.88395297661
0.53985595703125	-0.00167327880859375	3178.3264579755
0.535430908203125	-0.00167572021484375	3178.76896297438
0.531005859375	-0.001678466796875	3179.21146797326
0.526580810546875	-0.00168121337890625	3179.65397297215
0.52215576171875	-0.00168426513671875	3180.09647797103
0.517730712890625	-0.0016876220703125	3180.53898296991
0.5133056640625	-0.0016900634765625	3180.98148796879
0.508880615234375	-0.0016937255859375	3181.42399296768
0.50445556640625	-0.00169647216796875	3181.86649796656
0.500030517578125	-0.001700439453125	3182.30900296544
0.49560546875	-0.00170440673828125	3182.75150796432
0.491180419921875	-0.00170745849609375	3183.19401296321
0.48675537109375	-0.00171142578125	3183.63651796209
0.482330322265625	-0.00171539306640625	3184.07902296097
0.4779052734375	-0.0017193603515625	3184.52152795986
0.473480224609375	-0.0017236328125	3184.96403295874
0.46905517578125	-0.00172760009765625	3185.40653795762
0.464630126953125	-0.00173095703125	3185.8490429565
0.460205078125	-0.00173583984375	3186.29154795539
0.455780029296875	-0.00173980712890625	3186.73405295427
0.45135498046875	-0.001744384765625	3187.17655795315
0.446929931640625	-0.00174896240234375	3187.61906295204
0.4425048828125	-0.0017535400390625	3188.06156795092
0.438079833984375	-0.00175811767578125	3188.5040729498
0.43365478515625	-0.0017626953125	3188.94657794868
0.429229736328125	-0.0017669677734375	3189.38908294757
0.4248046875	-0.0017718505859375	3189.83158794645
0.420379638671875	-0.001776123046875	3190.27409294533
0.41595458984375	-0.0017803955078125	3190.71659794422
0.411529541015625	-0.00178497314453125	3191.1591029431
0.4071044921875	-0.00178924560546875	3191.60160794198
0.402679443359375	-0.00179443359375	3192.04411294086
0.39825439453125	-0.0017987060546875	3192.48661793975
0.393829345703125	-0.001802978515625	3192.92912293863
0.389404296875	-0.001806640625	3193.37162793751
0.384979248046875	-0.0018115234375	3193.81413293639
0.38055419921875	-0.00181610107421875	3194.25663793528
0.376129150390625	-0.00182159423828125	3194.69914293416
0.3717041015625	-0.00182647705078125	3195.14164793304
0.367279052734375	-0.0018310546875	3195.58415293193
0.36285400390625	-0.0018359375	3196.02665793081
0.358428955078125	-0.00184112548828125	3196.46916292969
0.35400390625	-0.001845703125	3196.91166792857
0.349578857421875	-0.001849365234375	3197.35417292746
0.34515380859375	-0.00185516357421875	3197.79667792634
0.340728759765625	-0.00186004638671875	3198.23918292522
0.3363037109375	-0.0018658447265625	3198.68168792411
0.331878662109375	-0.00187103271484375	3199.12419292299
0.32745361328125	-0.00187652587890625	3199.56669792187
0.323028564453125	-0.0018829345703125	3200.00920292075
0.318603515625	-0.001888427734375	3200.45170791964
0.314178466796875	-0.0018939208984375	3200.89421291852
0.30975341796875	-0.0019024658203125	3201.3367179174
0.305328369140625	-0.0019085693359375	3201.77922291628
0.3009033203125	-0.0019140625	3202.22172791517
0.296478271484375	-0.001920166015625	3202.66423291405
0.29205322265625	-0.00192626953125	3203.10673791293
0.287628173828125	-0.001932373046875	3203.54924291182
0.283203125	-0.0019390869140625	3203.9917479107
0.278778076171875	-0.00194549560546875	3204.43425290958
0.27435302734375	-0.001951904296875	3204.87675790846
0.269927978515625	-0.0019586181640625	3205.31926290735
0.2655029296875	-0.00196563720703125	3205.76176790623
0.261077880859375	-0.00197265625	3206.20427290511
0.25665283203125	-0.00197967529296875	3206.64677790399
0.252227783203125	-0.00198699951171875	3207.08928290288
0.247802734375	-0.00199432373046875	3207.53178790176
0.243377685546875	-0.00200164794921875	3207.97429290064
0.23895263671875	-0.00200897216796875	3208.41679789953
0.234527587890625	-0.0020166015625	3208.85930289841
0.2301025390625	-0.00202301025390625	3209.30180789729
0.225677490234375	-0.0020306396484375	3209.74431289617
0.22125244140625	-0.00203826904296875	3210.18681789506
0.216827392578125	-0.0020458984375	3210.62932289394
0.21240234375	-0.00205352783203125	3211.07182789282
0.207977294921875	-0.00206146240234375	3211.51433289171
0.20355224609375	-0.00206939697265625	3211.95683789059
0.199127197265625	-0.00207733154296875	3212.39934288947
0.1947021484375	-0.0020855712890625	3212.84184788835
0.190277099609375	-0.0020941162109375	3213.28435288724
0.18585205078125	-0.00210235595703125	3213.72685788612
0.181427001953125	-0.002110595703125	3214.169362885
0.177001953125	-0.002119140625	3214.61186788389
0.172576904296875	-0.0021282958984375	3215.05437288277
0.16815185546875	-0.00213714599609375	3215.49687788165
0.163726806640625	-0.00214691162109375	3215.93938288053
0.1593017578125	-0.00215606689453125	3216.38188787942
0.154876708984375	-0.00216522216796875	3216.8243928783
0.15045166015625	-0.00217498779296875	3217.26689787718
0.146026611328125	-0.00218505859375	3217.70940287606
0.1416015625	-0.0021954345703125	3218.15190787495
0.137176513671875	-0.00220611572265625	3218.59441287383
0.13275146484375	-0.00221771240234375	3219.03691787271
0.128326416015625	-0.0022283935546875	3219.4794228716
0.1239013671875	-0.00223968505859375	3219.92192787048
0.119476318359375	-0.0022509765625	3220.36443286936
0.11505126953125	-0.00226165771484375	3220.80693786824
0.110626220703125	-0.00227447509765625	3221.24944286713
0.106201171875	-0.0022869873046875	3221.69194786601
0.101776123046875	-0.0022998046875	3222.13445286489
0.09735107421875	-0.00231292724609375	3222.57695786378
0.092926025390625	-0.00232635498046875	3223.01946286266
0.0885009765625	-0.00233978271484375	3223.46196786154
0.084075927734375	-0.00235260009765625	3223.90447286042
0.07965087890625	-0.002366943359375	3224.34697785931
0.075225830078125	-0.0023809814453125	3224.78948285819
0.07080078125	-0.00239532470703125	3225.23198785707
0.066375732421875	-0.00240966796875	3225.67449285595
0.06195068359375	-0.00242431640625	3226.11699785484
0.057525634765625	-0.0024395751953125	3226.55950285372
0.0531005859375	-0.002454833984375	3227.0020078526
0.048675537109375	-0.00246978759765625	3227.44451285149
0.04425048828125	-0.0024859619140625	3227.88701785037
0.039825439453125	-0.002501220703125	3228.32952284925
0.035400390625	-0.00251739501953125	3228.77202784813
0.030975341796875	-0.0025341796875	3229.21453284702
0.02655029296875	-0.00255096435546875	3229.6570378459
0.022125244140625	-0.00256805419921875	3230.09954284478
0.0177001953125	-0.00258544921875	3230.54204784367
0.013275146484375	-0.00260406494140625	3230.98455284255
0.00885009765625	-0.0026220703125	3231.42705784143
0.004425048828125	-0.0026416015625	3231.86956284031
0	-0.0026611328125	3232.3120678392
0.004425048828125	-0.00191802978515625	3232.75457283808
0.00885009765625	-0.0013250732421875	3233.19707783696
0.013275146484375	-0.0008392333984375	3233.63958283584
0.0177001953125	-0.00043743896484375	3234.08208783473
0.022125244140625	-0.0001015625	3234.52459283361
0.02655029296875	0.000180908203125	3234.96709783249
0.030975341796875	0.0004197998046875	3235.40960283138
0.035400390625	0.00062255859375	3235.85210783026
0.039825439453125	0.00079376220703125	3236.29461282914
0.04425048828125	0.00093963623046875	3236.73711782802
0.048675537109375	0.00106658935546875	3237.17962282691
0.0531005859375	0.0011724853515625	3237.62212782579
0.057525634765625	0.00126190185546875	3238.06463282467
0.06195068359375	0.001337890625	3238.50713782356
0.066375732421875	0.00140289306640625	3238.94964282244
0.07080078125	0.00146026611328125	3239.39214782132
0.075225830078125	0.001510009765625	3239.8346528202
0.07965087890625	0.001551513671875	3240.27715781909
0.084075927734375	0.00158721923828125	3240.71966281797
0.0885009765625	0.001617431640625	3241.16216781685
0.092926025390625	0.00164337158203125	3241.60467281573
0.09735107421875	0.0016644287109375	3242.04717781462
0.101776123046875	0.0016827392578125	3242.4896828135
0.106201171875	0.00169708251953125	3242.93218781238
0.110626220703125	0.00170928955078125	3243.37469281127
0.11505126953125	0.00171875	3243.81719781015
0.119476318359375	0.00172454833984375	3244.25970280903
0.1239013671875	0.00173095703125	3244.70220780791
0.128326416015625	0.00173553466796875	3245.1447128068
0.13275146484375	0.001739501953125	3245.58721780568
0.137176513671875	0.00174163818359375	3246.02972280456
0.1416015625	0.0017431640625	3246.47222780345
0.146026611328125	0.0017437744140625	3246.91473280233
0.15045166015625	0.00174346923828125	3247.35723780121
0.154876708984375	0.001741943359375	3247.79974280009
0.1593017578125	0.0017401123046875	3248.24224779898
0.163726806640625	0.00173858642578125	3248.68475279786
0.16815185546875	0.00173583984375	3249.12725779674
0.172576904296875	0.0017340087890625	3249.56976279563
0.177001953125	0.0017315673828125	3250.01226779451
0.181427001953125	0.0017291259765625	3250.45477279339
0.18585205078125	0.0017254638671875	3250.89727779227
0.190277099609375	0.00172271728515625	3251.33978279116
0.1947021484375	0.00171966552734375	3251.78228779004
0.199127197265625	0.00171630859375	3252.22479278892
0.20355224609375	0.0017132568359375	3252.6672977878
0.207977294921875	0.00170989990234375	3253.10980278669
0.21240234375	0.0017071533203125	3253.55230778557
0.216827392578125	0.0017041015625	3253.99481278445
0.22125244140625	0.0017010498046875	3254.43731778334
0.225677490234375	0.0016973876953125	3254.87982278222
0.2301025390625	0.00169403076171875	3255.3223277811
0.234527587890625	0.0016900634765625	3255.76483277998
0.23895263671875	0.0016876220703125	3256.20733777887
0.243377685546875	0.0016851806640625	3256.64984277775
0.247802734375	0.00168212890625	3257.09234777663
0.252227783203125	0.0016802978515625	3257.53485277551
0.25665283203125	0.00167816162109375	3257.9773577744
0.261077880859375	0.0016766357421875	3258.41986277328
0.2655029296875	0.00167633056640625	3258.86236777216
0.269927978515625	0.00167510986328125	3259.30487277105
0.27435302734375	0.0016717529296875	3259.74737776993
0.278778076171875	0.00166900634765625	3260.18988276881
0.283203125	0.001666259765625	3260.63238776769
0.287628173828125	0.0016644287109375	3261.07489276658
0.29205322265625	0.00166229248046875	3261.51739776546
0.296478271484375	0.001661376953125	3261.95990276434
0.3009033203125	0.00166015625	3262.40240776323
0.305328369140625	0.00165985107421875	3262.84491276211
0.30975341796875	0.0016583251953125	3263.28741776099
0.314178466796875	0.0016595458984375	3263.72992275987
0.318603515625	0.00165771484375	3264.17242775876
0.323028564453125	0.0016552734375	3264.61493275764
0.32745361328125	0.001654052734375	3265.05743775652
0.331878662109375	0.00165313720703125	3265.49994275541
0.3363037109375	0.00165191650390625	3265.94244775429
0.340728759765625	0.00165069580078125	3266.38495275317
0.34515380859375	0.0016497802734375	3266.82745775205
0.349578857421875	0.00164886474609375	3267.26996275094
0.35400390625	0.0016461181640625	3267.71246774982
0.358428955078125	0.00164581298828125	3268.1549727487
0.36285400390625	0.00164520263671875	3268.59747774758
0.367279052734375	0.00164398193359375	3269.03998274647
0.3717041015625	0.00164276123046875	3269.48248774535
0.376129150390625	0.0016412353515625	3269.92499274423
0.38055419921875	0.00164031982421875	3270.36749774312
0.384979248046875	0.00163909912109375	3270.810002742
0.389404296875	0.00163726806640625	3271.25250774088
0.393829345703125	0.00163421630859375	3271.69501273976
0.39825439453125	0.0016326904296875	3272.13751773865
0.402679443359375	0.001630859375	3272.58002273753
0.4071044921875	0.0016290283203125	3273.02252773641
0.411529541015625	0.00162689208984375	3273.4650327353
0.41595458984375	0.0016253662109375	3273.90753773418
0.420379638671875	0.00162261962890625	3274.35004273306
0.4248046875	0.001619873046875	3274.79254773194
0.429229736328125	0.00161834716796875	3275.23505273083
0.43365478515625	0.0016156005859375	3275.67755772971
0.438079833984375	0.0016131591796875	3276.12006272859
0.4425048828125	0.00161102294921875	3276.56256772747
0.446929931640625	0.00160888671875	3277.00507272636
0.45135498046875	0.0016064453125	3277.44757772524
0.455780029296875	0.00160430908203125	3277.89008272412
0.460205078125	0.001602783203125	3278.33258772301
0.464630126953125	0.00160064697265625	3278.77509272189
0.46905517578125	0.00159820556640625	3279.21759772077
0.473480224609375	0.00159698486328125	3279.66010271965
0.4779052734375	0.00159515380859375	3280.10260771854
0.482330322265625	0.00159393310546875	3280.54511271742
0.48675537109375	0.0015924072265625	3280.9876177163
0.491180419921875	0.001590576171875	3281.43012271519
0.49560546875	0.00158935546875	3281.87262771407
0.500030517578125	0.00158782958984375	3282.31513271295
0.50445556640625	0.0015869140625	3282.75763771183
0.508880615234375	0.001585693359375	3283.20014271072
0.5133056640625	0.00158477783203125	3283.6426477096
0.517730712890625	0.001583251953125	3284.08515270848
0.52215576171875	0.0015826416015625	3284.52765770736
0.526580810546875	0.00158203125	3284.97016270625
0.531005859375	0.00158203125	3285.41266770513
0.535430908203125	0.00158111572265625	3285.85517270401
0.53985595703125	0.001580810546875	3286.2976777029
0.544281005859375	0.001580810546875	3286.74018270178
0.5487060546875	0.00157989501953125	3287.18268770066
0.553131103515625	0.0015802001953125	3287.62519269954
0.55755615234375	0.00158050537109375	3288.06769769843
0.561981201171875	0.001580810546875	3288.51020269731
0.56640625	0.0015814208984375	3288.95270769619
0.570831298828125	0.001583251953125	3289.39521269508
0.57525634765625	0.00158416748046875	3289.83771769396
0.579681396484375	0.00158538818359375	3290.28022269284
0.5841064453125	0.00158660888671875	3290.72272769172
0.588531494140625	0.00158660888671875	3291.16523269061
0.59295654296875	0.00158935546875	3291.60773768949
0.597381591796875	0.001591796875	3292.05024268837
0.601806640625	0.00159423828125	3292.49274768725
0.606231689453125	0.00159698486328125	3292.93525268614
0.61065673828125	0.00160003662109375	3293.37775768502
0.615081787109375	0.0016033935546875	3293.8202626839
0.6195068359375	0.0016070556640625	3294.26276768279
0.623931884765625	0.001610107421875	3294.70527268167
0.62835693359375	0.00161712646484375	3295.14777768055
0.632781982421875	0.0016204833984375	3295.59028267943
0.63720703125	0.00162445068359375	3296.03278767832
0.641632080078125	0.0016290283203125	3296.4752926772
0.64605712890625	0.00163330078125	3296.91779767608
0.650482177734375	0.00163787841796875	3297.36030267497
0.6549072265625	0.00164337158203125	3297.80280767385
0.659332275390625	0.0016485595703125	3298.24531267273
0.66375732421875	0.00165435791015625	3298.68781767161
0.668182373046875	0.00166015625	3299.1303226705
0.672607421875	0.00166656494140625	3299.57282766938
0.677032470703125	0.0016729736328125	3300.01533266826
0.68145751953125	0.00167999267578125	3300.45783766715
0.685882568359375	0.00168701171875	3300.90034266603
0.6903076171875	0.0016949462890625	3301.34284766491
0.694732666015625	0.001702880859375	3301.78535266379
0.69915771484375	0.0017108154296875	3302.22785766268
0.703582763671875	0.00171844482421875	3302.67036266156
0.7080078125	0.00172698974609375	3303.11286766044
0.712432861328125	0.00173675537109375	3303.55537265932
0.71685791015625	0.00174591064453125	3303.99787765821
0.721282958984375	0.00175537109375	3304.44038265709
0.7257080078125	0.001766357421875	3304.88288765597
0.730133056640625	0.00177764892578125	3305.32539265486
0.73455810546875	0.001788330078125	3305.76789765374
0.738983154296875	0.0017999267578125	3306.21040265262
0.743408203125	0.001810302734375	3306.6529076515
0.747833251953125	0.00182342529296875	3307.09541265039
0.75225830078125	0.00183624267578125	3307.53791764927
0.756683349609375	0.00184967041015625	3307.98042264815
0.7611083984375	0.00186431884765625	3308.42292764704
0.765533447265625	0.00187896728515625	3308.86543264592
0.76995849609375	0.00189422607421875	3309.3079376448
0.774383544921875	0.001910400390625	3309.75044264368
0.77880859375	0.00192718505859375	3310.19294764257
0.783233642578125	0.0019439697265625	3310.63545264145
0.78765869140625	0.00196197509765625	3311.07795764033
0.792083740234375	0.001981201171875	3311.52046263921
0.7965087890625	0.002000732421875	3311.9629676381
0.800933837890625	0.002021484375	3312.40547263698
0.80535888671875	0.0020428466796875	3312.84797763586
0.809783935546875	0.0020654296875	3313.29048263475
0.814208984375	0.002088623046875	3313.73298763363
0.818634033203125	0.00211334228515625	3314.17549263251
0.82305908203125	0.0021380615234375	3314.61799763139
0.827484130859375	0.0021649169921875	3315.06050263028
0.8319091796875	0.0021917724609375	3315.50300762916
0.836334228515625	0.002220458984375	3315.94551262804
0.84075927734375	0.00225067138671875	3316.38801762692
0.845184326171875	0.0022821044921875	3316.83052262581
0.849609375	0.00231353759765625	3317.27302762469
0.854034423828125	0.0023468017578125	3317.71553262357
0.85845947265625	0.00238189697265625	3318.15803762246
0.862884521484375	0.00241668701171875	3318.60054262134
0.8673095703125	0.00245452880859375	3319.04304762022
0.871734619140625	0.00249237060546875	3319.4855526191
0.87615966796875	0.00253204345703125	3319.92805761799
0.880584716796875	0.0025726318359375	3320.37056261687
0.885009765625	0.00261444091796875	3320.81306761575
0.889434814453125	0.00265777587890625	3321.25557261464
0.89385986328125	0.00270233154296875	3321.69807761352
0.898284912109375	0.00274810791015625	3322.1405826124
0.9027099609375	0.002794189453125	3322.58308761128
0.907135009765625	0.002841796875	3323.02559261017
0.91156005859375	0.00289093017578125	3323.46809760905
0.915985107421875	0.00294097900390625	3323.91060260793
0.92041015625	0.00299163818359375	3324.35310760682
0.924835205078125	0.00304443359375	3324.7956126057
0.92926025390625	0.0030975341796875	3325.23811760458
0.933685302734375	0.00315216064453125	3325.68062260346
0.9381103515625	0.00320953369140625	3326.12312760235
0.942535400390625	0.00326629638671875	3326.56563260123
0.94696044921875	0.00332366943359375	3327.00813760011
0.951385498046875	0.003382568359375	3327.45064259899
0.955810546875	0.0034442138671875	3327.89314759788
0.960235595703125	0.00350738525390625	3328.33565259676
0.96466064453125	0.003572998046875	3328.77815759564
0.969085693359375	0.0036395263671875	3329.22066259453
0.9735107421875	0.003709716796875	3329.66316759341
0.977935791015625	0.00378173828125	3330.10567259229
0.98236083984375	0.00386016845703125	3330.54817759117
0.986785888671875	0.0039410400390625	3330.99068259006
0.9912109375	0.0040277099609375	3331.43318758894
0.995635986328125	0.004117431640625	3331.87569258782
1.00006103515625	0.00421417236328125	3332.31819758671
0.995635986328125	0.00354461669921875	3332.76070258559
0.9912109375	0.00300567626953125	3333.20320758447
0.986785888671875	0.00255462646484375	3333.64571258335
0.98236083984375	0.00216461181640625	3334.08821758224
0.977935791015625	0.00182098388671875	3334.53072258112
0.9735107421875	0.0015179443359375	3334.97322758
0.969085693359375	0.001243896484375	3335.41573257888
0.96466064453125	0.0009967041015625	3335.85823757777
0.960235595703125	0.0007720947265625	3336.30074257665
0.955810546875	0.00056732177734375	3336.74324757553
0.951385498046875	0.00038067626953125	3337.18575257442
0.94696044921875	0.00020941162109375	3337.6282575733
0.942535400390625	5.3314208984375E-05	3338.07076257218
0.9381103515625	-8.9996337890625E-05	3338.51326757106
0.933685302734375	-0.000223602294921875	3338.95577256995
0.92926025390625	-0.000343597412109375	3339.39827756883
0.924835205078125	-0.000453277587890625	3339.84078256771
0.92041015625	-0.000554534912109375	3340.2832875666
0.915985107421875	-0.000647552490234375	3340.72579256548
0.91156005859375	-0.00073272705078125	3341.16829756436
0.907135009765625	-0.00081085205078125	3341.61080256324
0.9027099609375	-0.0008831787109375	3342.05330756213
0.898284912109375	-0.0009490966796875	3342.49581256101
0.89385986328125	-0.00101043701171875	3342.93831755989
0.889434814453125	-0.0010662841796875	3343.38082255877
0.885009765625	-0.0011181640625	3343.82332755766
0.880584716796875	-0.001165771484375	3344.26583255654
0.87615966796875	-0.00120941162109375	3344.70833755542
0.871734619140625	-0.0012493896484375	3345.15084255431
0.8673095703125	-0.00128631591796875	3345.59334755319
0.862884521484375	-0.0013201904296875	3346.03585255207
0.85845947265625	-0.00135040283203125	3346.47835755095
0.854034423828125	-0.00137908935546875	3346.92086254984
0.849609375	-0.00140472412109375	3347.36336754872
0.845184326171875	-0.00142852783203125	3347.8058725476
0.84075927734375	-0.00145050048828125	3348.24837754649
0.836334228515625	-0.00147064208984375	3348.69088254537
0.8319091796875	-0.00148895263671875	3349.13338754425
0.827484130859375	-0.00150482177734375	3349.57589254313
0.82305908203125	-0.00152099609375	3350.01839754202
0.818634033203125	-0.001534423828125	3350.4609025409
0.814208984375	-0.00154693603515625	3350.90340753978
0.809783935546875	-0.0015582275390625	3351.34591253866
0.80535888671875	-0.00156890869140625	3351.78841753755
0.800933837890625	-0.00157867431640625	3352.23092253643
0.7965087890625	-0.0015875244140625	3352.67342753531
0.792083740234375	-0.00159515380859375	3353.1159325342
0.78765869140625	-0.00160247802734375	3353.55843753308
0.783233642578125	-0.00160888671875	3354.00094253196
0.77880859375	-0.001614990234375	3354.44344753084
0.774383544921875	-0.0016204833984375	3354.88595252973
0.76995849609375	-0.00162506103515625	3355.32845752861
0.765533447265625	-0.00162933349609375	3355.77096252749
0.7611083984375	-0.00163330078125	3356.21346752638
0.756683349609375	-0.00163665771484375	3356.65597252526
0.75225830078125	-0.0016400146484375	3357.09847752414
0.747833251953125	-0.001641845703125	3357.54098252302
0.743408203125	-0.0016436767578125	3357.98348752191
0.738983154296875	-0.0016436767578125	3358.42599252079
0.73455810546875	-0.0016455078125	3358.86849751967
0.730133056640625	-0.00164642333984375	3359.31100251856
0.7257080078125	-0.00164764404296875	3359.75350751744
0.721282958984375	-0.00164794921875	3360.19601251632
0.71685791015625	-0.0016485595703125	3360.6385175152
0.712432861328125	-0.001649169921875	3361.08102251409
0.7080078125	-0.0016497802734375	3361.52352751297
0.703582763671875	-0.001649169921875	3361.96603251185
0.69915771484375	-0.00164794921875	3362.40853751073
0.694732666015625	-0.001646728515625	3362.85104250962
0.6903076171875	-0.0016461181640625	3363.2935475085
0.685882568359375	-0.00164581298828125	3363.73605250738
0.68145751953125	-0.0016455078125	3364.17855750627
0.677032470703125	-0.00164520263671875	3364.62106250515
0.672607421875	-0.0016448974609375	3365.06356750403
0.668182373046875	-0.00164337158203125	3365.50607250291
0.66375732421875	-0.0016424560546875	3365.9485775018
0.659332275390625	-0.0016412353515625	3366.39108250068
0.6549072265625	-0.0016400146484375	3366.83358749956
0.650482177734375	-0.001639404296875	3367.27609249844
0.64605712890625	-0.0016387939453125	3367.71859749733
0.641632080078125	-0.00163818359375	3368.16110249621
0.63720703125	-0.00163787841796875	3368.60360749509
0.632781982421875	-0.00163726806640625	3369.04611249398
0.62835693359375	-0.00163604736328125	3369.48861749286
0.623931884765625	-0.0016387939453125	3369.93112249174
0.6195068359375	-0.00163726806640625	3370.37362749062
0.615081787109375	-0.00163665771484375	3370.81613248951
0.61065673828125	-0.0016363525390625	3371.25863748839
0.606231689453125	-0.0016357421875	3371.70114248727
0.601806640625	-0.0016357421875	3372.14364748616
0.597381591796875	-0.00163665771484375	3372.58615248504
0.59295654296875	-0.00163726806640625	3373.02865748392
0.588531494140625	-0.00163787841796875	3373.4711624828
0.5841064453125	-0.001636962890625	3373.91366748169
0.579681396484375	-0.00163818359375	3374.35617248057
0.57525634765625	-0.00163970947265625	3374.79867747945
0.570831298828125	-0.001641845703125	3375.24118247834
0.56640625	-0.00164337158203125	3375.68368747722
0.561981201171875	-0.00164520263671875	3376.1261924761
0.55755615234375	-0.00164703369140625	3376.56869747498
0.553131103515625	-0.0016485595703125	3377.01120247387
0.5487060546875	-0.00165130615234375	3377.45370747275
0.544281005859375	-0.00165252685546875	3377.89621247163
0.53985595703125	-0.00165496826171875	3378.33871747051
0.535430908203125	-0.00165802001953125	3378.7812224694
0.531005859375	-0.0016607666015625	3379.22372746828
0.526580810546875	-0.001663818359375	3379.66623246716
0.52215576171875	-0.00166717529296875	3380.10873746605
0.517730712890625	-0.001669921875	3380.55124246493
0.5133056640625	-0.0016729736328125	3380.99374746381
0.508880615234375	-0.0016766357421875	3381.43625246269
0.50445556640625	-0.00167999267578125	3381.87875746158
0.500030517578125	-0.0016839599609375	3382.32126246046
0.49560546875	-0.0016876220703125	3382.76376745934
0.491180419921875	-0.0016912841796875	3383.20627245823
0.48675537109375	-0.001695556640625	3383.64877745711
0.482330322265625	-0.00169952392578125	3384.09128245599
0.4779052734375	-0.0017041015625	3384.53378745487
0.473480224609375	-0.001707763671875	3384.97629245376
0.46905517578125	-0.0017120361328125	3385.41879745264
0.464630126953125	-0.00171600341796875	3385.86130245152
0.460205078125	-0.001719970703125	3386.3038074504
0.455780029296875	-0.00172454833984375	3386.74631244929
0.45135498046875	-0.0017291259765625	3387.18881744817
0.446929931640625	-0.00173370361328125	3387.63132244705
0.4425048828125	-0.00173797607421875	3388.07382744594
0.438079833984375	-0.00174224853515625	3388.51633244482
0.43365478515625	-0.00174713134765625	3388.9588374437
0.429229736328125	-0.001751708984375	3389.40134244258
0.4248046875	-0.00175628662109375	3389.84384744147
0.420379638671875	-0.0017608642578125	3390.28635244035
0.41595458984375	-0.00176483154296875	3390.72885743923
0.411529541015625	-0.00177032470703125	3391.17136243812
0.4071044921875	-0.0017742919921875	3391.613867437
0.402679443359375	-0.00177886962890625	3392.05637243588
0.39825439453125	-0.001783447265625	3392.49887743476
0.393829345703125	-0.00178802490234375	3392.94138243365
0.389404296875	-0.00179168701171875	3393.38388743253
0.384979248046875	-0.00179656982421875	3393.82639243141
0.38055419921875	-0.0018011474609375	3394.26889743029
0.376129150390625	-0.00180572509765625	3394.71140242918
0.3717041015625	-0.00181060791015625	3395.15390742806
0.367279052734375	-0.001815185546875	3395.59641242694
0.36285400390625	-0.0018206787109375	3396.03891742583
0.358428955078125	-0.0018255615234375	3396.48142242471
0.35400390625	-0.0018304443359375	3396.92392742359
0.349578857421875	-0.00183349609375	3397.36643242247
0.34515380859375	-0.001839599609375	3397.80893742136
0.340728759765625	-0.001844482421875	3398.25144242024
0.3363037109375	-0.0018499755859375	3398.69394741912
0.331878662109375	-0.00185577392578125	3399.13645241801
0.32745361328125	-0.00186065673828125	3399.57895741689
0.323028564453125	-0.001866455078125	3400.02146241577
0.318603515625	-0.00187225341796875	3400.46396741465
0.314178466796875	-0.00187774658203125	3400.90647241354
0.30975341796875	-0.00188629150390625	3401.34897741242
0.305328369140625	-0.0018914794921875	3401.7914824113
0.3009033203125	-0.0018896484375	3402.23398741018
0.296478271484375	-0.001900634765625	3402.67649240907
0.29205322265625	-0.00190704345703125	3403.11899740795
0.287628173828125	-0.00191436767578125	3403.56150240683
0.283203125	-0.00192138671875	3404.00400740572
0.278778076171875	-0.001927490234375	3404.4465124046
0.27435302734375	-0.001934814453125	3404.88901740348
0.269927978515625	-0.00194183349609375	3405.33152240236
0.2655029296875	-0.00194854736328125	3405.77402740125
0.261077880859375	-0.00195556640625	3406.21653240013
0.25665283203125	-0.00196258544921875	3406.65903739901
0.252227783203125	-0.00196929931640625	3407.1015423979
0.247802734375	-0.00197723388671875	3407.54404739678
0.243377685546875	-0.0019842529296875	3407.98655239566
0.23895263671875	-0.00199188232421875	3408.42905739454
0.234527587890625	-0.00199920654296875	3408.87156239343
0.2301025390625	-0.0020050048828125	3409.31406739231
0.225677490234375	-0.00201324462890625	3409.75657239119
0.22125244140625	-0.00202056884765625	3410.19907739008
0.216827392578125	-0.00202789306640625	3410.64158238896
0.21240234375	-0.00203582763671875	3411.08408738784
0.207977294921875	-0.00204315185546875	3411.52659238672
0.20355224609375	-0.0020513916015625	3411.96909738561
0.199127197265625	-0.0020599365234375	3412.41160238449
0.1947021484375	-0.0020672607421875	3412.85410738337
0.190277099609375	-0.0020758056640625	3413.29661238225
0.18585205078125	-0.0020843505859375	3413.73911738114
0.181427001953125	-0.00209228515625	3414.18162238002
0.177001953125	-0.00210205078125	3414.6241273789
0.172576904296875	-0.002110595703125	3415.06663237779
0.16815185546875	-0.0021197509765625	3415.50913737667
0.163726806640625	-0.00212921142578125	3415.95164237555
0.1593017578125	-0.00213897705078125	3416.39414737443
0.154876708984375	-0.0021484375	3416.83665237332
0.15045166015625	-0.002158203125	3417.2791573722
0.146026611328125	-0.00216827392578125	3417.72166237108
0.1416015625	-0.002178955078125	3418.16416736997
0.137176513671875	-0.00219024658203125	3418.60667236885
0.13275146484375	-0.002200927734375	3419.04917736773
0.128326416015625	-0.0022119140625	3419.49168236661
0.1239013671875	-0.00222320556640625	3419.9341873655
0.119476318359375	-0.00223480224609375	3420.37669236438
0.11505126953125	-0.0022454833984375	3420.81919736326
0.110626220703125	-0.00225799560546875	3421.26170236214
0.106201171875	-0.00227081298828125	3421.70420736103
0.101776123046875	-0.0022833251953125	3422.14671235991
0.09735107421875	-0.00229644775390625	3422.58921735879
0.092926025390625	-0.00230987548828125	3423.03172235768
0.0885009765625	-0.0023236083984375	3423.47422735656
0.084075927734375	-0.0023370361328125	3423.91673235544
0.07965087890625	-0.00235107421875	3424.35923735432
0.075225830078125	-0.002364501953125	3424.80174235321
0.07080078125	-0.00237884521484375	3425.24424735209
0.066375732421875	-0.00239410400390625	3425.68675235097
0.06195068359375	-0.0024090576171875	3426.12925734985
0.057525634765625	-0.00242431640625	3426.57176234874
0.0531005859375	-0.00243988037109375	3427.01426734762
0.048675537109375	-0.0024554443359375	3427.4567723465
0.04425048828125	-0.0024713134765625	3427.89927734539
0.039825439453125	-0.00248779296875	3428.34178234427
0.035400390625	-0.00250457763671875	3428.78428734315
0.030975341796875	-0.0025213623046875	3429.22679234203
0.02655029296875	-0.0025384521484375	3429.66929734092
0.022125244140625	-0.0025555419921875	3430.1118023398
0.0177001953125	-0.00257354736328125	3430.55430733868
0.013275146484375	-0.0025927734375	3430.99681233757
0.00885009765625	-0.002611083984375	3431.43931733645
0.004425048828125	-0.002630615234375	3431.88182233533
0	-0.00265106201171875	3432.32432733421
0.004425048828125	-0.00190948486328125	3432.7668323331
0.00885009765625	-0.0013165283203125	3433.20933733198
0.013275146484375	-0.0008319091796875	3433.65184233086
