Potential applied (V)	WE(1).Current (A)	Time (s)
0.004425048828125	-0.0054107666015625	128.574449675381
0.00885009765625	-0.004830322265625	128.618699675269
0.013275146484375	-0.0042706298828125	128.662949675157
0.0177001953125	-0.0037298583984375	128.707199675046
0.022125244140625	-0.00320404052734375	128.751449674934
0.02655029296875	-0.00269256591796875	128.795699674822
0.030975341796875	-0.00220428466796875	128.83994967471
0.035400390625	-0.00171844482421875	128.884199674599
0.039825439453125	-0.0012457275390625	128.928449674487
0.04425048828125	-0.00078369140625	128.972699674375
0.048675537109375	-0.000332916259765625	129.016949674264
0.0531005859375	0.000107147216796875	129.061199674152
0.057525634765625	0.000537109375	129.10544967404
0.06195068359375	0.00095703125	129.149699673928
0.066375732421875	0.00136810302734375	129.193949673817
0.07080078125	0.00176910400390625	129.238199673705
0.075225830078125	0.0021612548828125	129.282449673593
0.07965087890625	0.0025439453125	129.326699673481
0.084075927734375	0.00291900634765625	129.37094967337
0.0885009765625	0.00328582763671875	129.415199673258
0.092926025390625	0.00364501953125	129.459449673146
0.09735107421875	0.00399627685546875	129.503699673035
0.101776123046875	0.00433929443359375	129.547949672923
0.106201171875	0.00467437744140625	129.592199672811
0.110626220703125	0.00500213623046875	129.636449672699
0.11505126953125	0.0053216552734375	129.680699672588
0.119476318359375	0.0056329345703125	129.724949672476
0.1239013671875	0.00593841552734375	129.769199672364
0.128326416015625	0.0062371826171875	129.813449672253
0.13275146484375	0.0065216064453125	129.857699672141
0.137176513671875	0.006805419921875	129.901949672029
0.1416015625	0.0070831298828125	129.946199671917
0.146026611328125	0.0073516845703125	129.990449671806
0.15045166015625	0.0076171875	130.034699671694
0.154876708984375	0.00787353515625	130.078949671582
0.1593017578125	0.0081268310546875	130.123199671471
0.163726806640625	0.008380126953125	130.167449671359
0.16815185546875	0.0086212158203125	130.211699671247
0.172576904296875	0.0088592529296875	130.255949671135
0.177001953125	0.0090911865234375	130.300199671024
0.181427001953125	0.0093170166015625	130.344449670912
0.18585205078125	0.00953369140625	130.3886996708
0.190277099609375	0.0097503662109375	130.432949670688
0.1947021484375	0.0099578857421875	130.477199670577
0.199127197265625	0.010162353515625	130.521449670465
0.20355224609375	0.0103607177734375	130.565699670353
0.207977294921875	0.010552978515625	130.609949670242
0.21240234375	0.0107421875	130.65419967013
0.216827392578125	0.01092529296875	130.698449670018
0.22125244140625	0.011102294921875	130.742699669906
0.225677490234375	0.0112762451171875	130.786949669795
0.2301025390625	0.011444091796875	130.831199669683
0.234527587890625	0.01160888671875	130.875449669571
0.23895263671875	0.011767578125	130.91969966946
0.243377685546875	0.01192626953125	130.963949669348
0.247802734375	0.012078857421875	131.008199669236
0.252227783203125	0.0122314453125	131.052449669124
0.25665283203125	0.0123748779296875	131.096699669013
0.261077880859375	0.012518310546875	131.140949668901
0.2655029296875	0.012652587890625	131.185199668789
0.269927978515625	0.0127899169921875	131.229449668677
0.27435302734375	0.012921142578125	131.273699668566
0.278778076171875	0.013043212890625	131.317949668454
0.283203125	0.013165283203125	131.362199668342
0.287628173828125	0.01328125	131.406449668231
0.29205322265625	0.0133941650390625	131.450699668119
0.296478271484375	0.0135009765625	131.494949668007
0.3009033203125	0.0136077880859375	131.539199667895
0.305328369140625	0.0137237548828125	131.583449667784
0.30975341796875	0.01383056640625	131.627699667672
0.314178466796875	0.0139373779296875	131.67194966756
0.318603515625	0.0140289306640625	131.716199667449
0.323028564453125	0.0141082763671875	131.760449667337
0.32745361328125	0.0141815185546875	131.804699667225
0.331878662109375	0.0142791748046875	131.848949667113
0.3363037109375	0.0143707275390625	131.893199667002
0.340728759765625	0.0144683837890625	131.93744966689
0.34515380859375	0.014544677734375	131.981699666778
0.349578857421875	0.014617919921875	132.025949666667
0.35400390625	0.01468505859375	132.070199666555
0.358428955078125	0.0147552490234375	132.114449666443
0.36285400390625	0.0148193359375	132.158699666331
0.367279052734375	0.0148834228515625	132.20294966622
0.3717041015625	0.0149444580078125	132.247199666108
0.376129150390625	0.0150054931640625	132.291449665996
0.38055419921875	0.0150604248046875	132.335699665884
0.384979248046875	0.015118408203125	132.379949665773
0.389404296875	0.0151702880859375	132.424199665661
0.393829345703125	0.01522216796875	132.468449665549
0.39825439453125	0.01527099609375	132.512699665438
0.402679443359375	0.01531982421875	132.556949665326
0.4071044921875	0.0153656005859375	132.601199665214
0.411529541015625	0.0154083251953125	132.645449665102
0.41595458984375	0.0154510498046875	132.689699664991
0.420379638671875	0.01549072265625	132.733949664879
0.4248046875	0.015533447265625	132.778199664767
0.429229736328125	0.015570068359375	132.822449664656
0.43365478515625	0.0156036376953125	132.866699664544
0.438079833984375	0.01563720703125	132.910949664432
0.4425048828125	0.0156707763671875	132.95519966432
0.446929931640625	0.0157012939453125	132.999449664209
0.45135498046875	0.01573486328125	133.043699664097
0.455780029296875	0.0157623291015625	133.087949663985
0.460205078125	0.015789794921875	133.132199663874
0.464630126953125	0.0158172607421875	133.176449663762
0.46905517578125	0.015838623046875	133.22069966365
0.473480224609375	0.015863037109375	133.264949663538
0.4779052734375	0.015887451171875	133.309199663427
0.482330322265625	0.0159088134765625	133.353449663315
0.48675537109375	0.0159332275390625	133.397699663203
0.491180419921875	0.01595458984375	133.441949663091
0.49560546875	0.015972900390625	133.48619966298
0.500030517578125	0.0159912109375	133.530449662868
0.50445556640625	0.0160064697265625	133.574699662756
0.508880615234375	0.016021728515625	133.618949662645
0.5133056640625	0.0160369873046875	133.663199662533
0.517730712890625	0.0160491943359375	133.707449662421
0.52215576171875	0.016064453125	133.751699662309
0.526580810546875	0.01607666015625	133.795949662198
0.531005859375	0.0160858154296875	133.840199662086
0.535430908203125	0.016094970703125	133.884449661974
0.53985595703125	0.0161041259765625	133.928699661863
0.544281005859375	0.0161102294921875	133.972949661751
0.5487060546875	0.0161163330078125	134.017199661639
0.553131103515625	0.01612548828125	134.061449661527
0.55755615234375	0.0161285400390625	134.105699661416
0.561981201171875	0.0161346435546875	134.149949661304
0.56640625	0.0161346435546875	134.194199661192
0.570831298828125	0.0161376953125	134.23844966108
0.57525634765625	0.0161376953125	134.282699660969
0.579681396484375	0.0161407470703125	134.326949660857
0.5841064453125	0.0161407470703125	134.371199660745
0.588531494140625	0.0161376953125	134.415449660634
0.59295654296875	0.0161376953125	134.459699660522
0.597381591796875	0.0161346435546875	134.50394966041
0.601806640625	0.016131591796875	134.548199660298
0.606231689453125	0.0161285400390625	134.592449660187
0.61065673828125	0.01612548828125	134.636699660075
0.615081787109375	0.016119384765625	134.680949659963
0.6195068359375	0.01611328125	134.725199659852
0.623931884765625	0.016107177734375	134.76944965974
0.62835693359375	0.016107177734375	134.813699659628
0.632781982421875	0.0160980224609375	134.857949659516
0.63720703125	0.0160919189453125	134.902199659405
0.641632080078125	0.016082763671875	134.946449659293
0.64605712890625	0.0160736083984375	134.990699659181
0.650482177734375	0.016064453125	135.03494965907
0.6549072265625	0.0160552978515625	135.079199658958
0.659332275390625	0.016046142578125	135.123449658846
0.66375732421875	0.0160369873046875	135.167699658734
0.668182373046875	0.01602783203125	135.211949658623
0.672607421875	0.016015625	135.256199658511
0.677032470703125	0.0160064697265625	135.300449658399
0.68145751953125	0.0159942626953125	135.344699658287
0.685882568359375	0.015985107421875	135.388949658176
0.6903076171875	0.015972900390625	135.433199658064
0.694732666015625	0.015960693359375	135.477449657952
0.69915771484375	0.015948486328125	135.521699657841
0.703582763671875	0.015936279296875	135.565949657729
0.7080078125	0.015924072265625	135.610199657617
0.712432861328125	0.0159149169921875	135.654449657505
0.71685791015625	0.01590576171875	135.698699657394
0.721282958984375	0.0158935546875	135.742949657282
0.7257080078125	0.015887451171875	135.78719965717
0.730133056640625	0.015875244140625	135.831449657059
0.73455810546875	0.0158660888671875	135.875699656947
0.738983154296875	0.01585693359375	135.919949656835
0.743408203125	0.0158477783203125	135.964199656723
0.747833251953125	0.015838623046875	136.008449656612
0.75225830078125	0.0158294677734375	136.0526996565
0.756683349609375	0.0158203125	136.096949656388
0.7611083984375	0.015814208984375	136.141199656277
0.765533447265625	0.01580810546875	136.185449656165
0.76995849609375	0.015802001953125	136.229699656053
0.774383544921875	0.0157989501953125	136.273949655941
0.77880859375	0.0157928466796875	136.31819965583
0.783233642578125	0.015789794921875	136.362449655718
0.78765869140625	0.0157867431640625	136.406699655606
0.792083740234375	0.01578369140625	136.450949655494
0.7965087890625	0.01578369140625	136.495199655383
0.800933837890625	0.0157806396484375	136.539449655271
0.80535888671875	0.0157806396484375	136.583699655159
0.809783935546875	0.0157806396484375	136.627949655048
0.814208984375	0.0157867431640625	136.672199654936
0.818634033203125	0.015789794921875	136.716449654824
0.82305908203125	0.0157958984375	136.760699654712
0.827484130859375	0.0157989501953125	136.804949654601
0.8319091796875	0.01580810546875	136.849199654489
0.836334228515625	0.0158172607421875	136.893449654377
0.84075927734375	0.015826416015625	136.937699654266
0.845184326171875	0.0158355712890625	136.981949654154
0.849609375	0.0158477783203125	137.026199654042
0.854034423828125	0.0158599853515625	137.07044965393
0.85845947265625	0.015875244140625	137.114699653819
0.862884521484375	0.015887451171875	137.158949653707
0.8673095703125	0.01590576171875	137.203199653595
0.871734619140625	0.015924072265625	137.247449653483
0.87615966796875	0.0159423828125	137.291699653372
0.880584716796875	0.0159637451171875	137.33594965326
0.885009765625	0.0159881591796875	137.380199653148
0.889434814453125	0.016009521484375	137.424449653037
0.89385986328125	0.0160369873046875	137.468699652925
0.898284912109375	0.016064453125	137.512949652813
0.9027099609375	0.0160919189453125	137.557199652701
0.907135009765625	0.0161224365234375	137.60144965259
0.91156005859375	0.016156005859375	137.645699652478
0.915985107421875	0.0161895751953125	137.689949652366
0.92041015625	0.0162261962890625	137.734199652255
0.924835205078125	0.016265869140625	137.778449652143
0.92926025390625	0.016302490234375	137.822699652031
0.933685302734375	0.0163421630859375	137.866949651919
0.9381103515625	0.0163909912109375	137.911199651808
0.942535400390625	0.016436767578125	137.955449651696
0.94696044921875	0.0164825439453125	137.999699651584
0.951385498046875	0.016534423828125	138.043949651473
0.955810546875	0.0165863037109375	138.088199651361
0.960235595703125	0.0166412353515625	138.132449651249
0.96466064453125	0.0166961669921875	138.176699651137
0.969085693359375	0.016754150390625	138.220949651026
0.9735107421875	0.016815185546875	138.265199650914
0.977935791015625	0.016876220703125	138.309449650802
0.98236083984375	0.0169403076171875	138.35369965069
0.986785888671875	0.0170074462890625	138.397949650579
0.9912109375	0.01707763671875	138.442199650467
0.995635986328125	0.0171539306640625	138.486449650355
1.00006103515625	0.01722412109375	138.530699650244
0.995635986328125	0.01632080078125	138.574949650132
0.9912109375	0.015460205078125	138.61919965002
0.986785888671875	0.0146331787109375	138.663449649908
0.98236083984375	0.0138427734375	138.707699649797
0.977935791015625	0.0130767822265625	138.751949649685
0.9735107421875	0.0123443603515625	138.796199649573
0.969085693359375	0.0116302490234375	138.840449649462
0.96466064453125	0.0109405517578125	138.88469964935
0.960235595703125	0.0102691650390625	138.928949649238
0.955810546875	0.009619140625	138.973199649126
0.951385498046875	0.008990478515625	139.017449649015
0.94696044921875	0.0083770751953125	139.061699648903
0.942535400390625	0.007781982421875	139.105949648791
0.9381103515625	0.0072021484375	139.15019964868
0.933685302734375	0.006634521484375	139.194449648568
0.92926025390625	0.006085205078125	139.238699648456
0.924835205078125	0.005548095703125	139.282949648344
0.92041015625	0.0050262451171875	139.327199648233
0.915985107421875	0.00451751708984375	139.371449648121
0.91156005859375	0.00402130126953125	139.415699648009
0.907135009765625	0.00353759765625	139.459949647897
0.9027099609375	0.0030657958984375	139.504199647786
0.898284912109375	0.00260589599609375	139.548449647674
0.89385986328125	0.002156982421875	139.592699647562
0.889434814453125	0.00171783447265625	139.636949647451
0.885009765625	0.00128875732421875	139.681199647339
0.880584716796875	0.000870361328125	139.725449647227
0.87615966796875	0.00046173095703125	139.769699647115
0.871734619140625	6.3079833984375E-05	139.813949647004
0.8673095703125	-0.000325836181640625	139.858199646892
0.862884521484375	-0.00070587158203125	139.90244964678
0.85845947265625	-0.00107574462890625	139.946699646669
0.854034423828125	-0.001436767578125	139.990949646557
0.849609375	-0.00179046630859375	140.035199646445
0.845184326171875	-0.002135009765625	140.079449646333
0.84075927734375	-0.00247100830078125	140.123699646222
0.836334228515625	-0.002799072265625	140.16794964611
0.8319091796875	-0.003118896484375	140.212199645998
0.827484130859375	-0.00343017578125	140.256449645887
0.82305908203125	-0.00373443603515625	140.300699645775
0.818634033203125	-0.00402984619140625	140.344949645663
0.814208984375	-0.0043182373046875	140.389199645551
0.809783935546875	-0.004599609375	140.43344964544
0.80535888671875	-0.004873046875	140.477699645328
0.800933837890625	-0.005140380859375	140.521949645216
0.7965087890625	-0.005400390625	140.566199645104
0.792083740234375	-0.00565277099609375	140.610449644993
0.78765869140625	-0.00589935302734375	140.654699644881
0.783233642578125	-0.00613861083984375	140.698949644769
0.77880859375	-0.00634765625	140.743199644658
0.774383544921875	-0.006573486328125	140.787449644546
0.76995849609375	-0.006793212890625	140.831699644434
0.765533447265625	-0.0070068359375	140.875949644322
0.7611083984375	-0.00721435546875	140.920199644211
0.756683349609375	-0.0074188232421875	140.964449644099
0.75225830078125	-0.0076141357421875	141.008699643987
0.747833251953125	-0.0078033447265625	141.052949643876
0.743408203125	-0.0079864501953125	141.097199643764
0.738983154296875	-0.00816650390625	141.141449643652
0.73455810546875	-0.0083404541015625	141.18569964354
0.730133056640625	-0.0085113525390625	141.229949643429
0.7257080078125	-0.0086761474609375	141.274199643317
0.721282958984375	-0.0088348388671875	141.318449643205
0.71685791015625	-0.0089935302734375	141.362699643093
0.712432861328125	-0.00914306640625	141.406949642982
0.7080078125	-0.00928955078125	141.45119964287
0.703582763671875	-0.009429931640625	141.495449642758
0.69915771484375	-0.0095672607421875	141.539699642647
0.694732666015625	-0.0097015380859375	141.583949642535
0.6903076171875	-0.009832763671875	141.628199642423
0.685882568359375	-0.0099578857421875	141.672449642311
0.68145751953125	-0.0100799560546875	141.7166996422
0.677032470703125	-0.010198974609375	141.760949642088
0.672607421875	-0.01031494140625	141.805199641976
0.668182373046875	-0.0104248046875	141.849449641865
0.66375732421875	-0.01053466796875	141.893699641753
0.659332275390625	-0.0106414794921875	141.937949641641
0.6549072265625	-0.0107421875	141.982199641529
0.650482177734375	-0.01083984375	142.026449641418
0.64605712890625	-0.0109375	142.070699641306
0.641632080078125	-0.011029052734375	142.114949641194
0.63720703125	-0.01112060546875	142.159199641083
0.632781982421875	-0.0112091064453125	142.203449640971
0.62835693359375	-0.0112945556640625	142.247699640859
0.623931884765625	-0.011383056640625	142.291949640747
0.6195068359375	-0.0114776611328125	142.336199640636
0.615081787109375	-0.0115631103515625	142.380449640524
0.61065673828125	-0.0116363525390625	142.424699640412
0.606231689453125	-0.0117095947265625	142.4689496403
0.601806640625	-0.0117828369140625	142.513199640189
0.597381591796875	-0.01185302734375	142.557449640077
0.59295654296875	-0.011920166015625	142.601699639965
0.588531494140625	-0.0119873046875	142.645949639854
0.5841064453125	-0.01204833984375	142.690199639742
0.579681396484375	-0.0121063232421875	142.73444963963
0.57525634765625	-0.01217041015625	142.778699639518
0.570831298828125	-0.012237548828125	142.822949639407
0.56640625	-0.0123046875	142.867199639295
0.561981201171875	-0.01236572265625	142.911449639183
0.55755615234375	-0.0124237060546875	142.955699639072
0.553131103515625	-0.0124786376953125	142.99994963896
0.5487060546875	-0.0125335693359375	143.044199638848
0.544281005859375	-0.0125885009765625	143.088449638736
0.53985595703125	-0.012640380859375	143.132699638625
0.535430908203125	-0.0126953125	143.176949638513
0.531005859375	-0.012750244140625	143.221199638401
0.526580810546875	-0.0128021240234375	143.26544963829
0.52215576171875	-0.0128570556640625	143.309699638178
0.517730712890625	-0.0129058837890625	143.353949638066
0.5133056640625	-0.0129547119140625	143.398199637954
0.508880615234375	-0.01300048828125	143.442449637843
0.50445556640625	-0.01304931640625	143.486699637731
0.500030517578125	-0.0130950927734375	143.530949637619
0.49560546875	-0.013140869140625	143.575199637507
0.491180419921875	-0.0131866455078125	143.619449637396
0.48675537109375	-0.0132293701171875	143.663699637284
0.482330322265625	-0.0132720947265625	143.707949637172
0.4779052734375	-0.0133148193359375	143.752199637061
0.473480224609375	-0.0133575439453125	143.796449636949
0.46905517578125	-0.0134033203125	143.840699636837
0.464630126953125	-0.013446044921875	143.884949636725
0.460205078125	-0.0134857177734375	143.929199636614
0.455780029296875	-0.0135284423828125	143.973449636502
0.45135498046875	-0.01357421875	144.01769963639
0.446929931640625	-0.0136138916015625	144.061949636279
0.4425048828125	-0.013653564453125	144.106199636167
0.438079833984375	-0.0136962890625	144.150449636055
0.43365478515625	-0.0137359619140625	144.194699635943
0.429229736328125	-0.013775634765625	144.238949635832
0.4248046875	-0.013818359375	144.28319963572
0.420379638671875	-0.0138580322265625	144.327449635608
0.41595458984375	-0.013897705078125	144.371699635496
0.411529541015625	-0.0139404296875	144.415949635385
0.4071044921875	-0.0139801025390625	144.460199635273
0.402679443359375	-0.0140228271484375	144.504449635161
0.39825439453125	-0.0140594482421875	144.54869963505
0.393829345703125	-0.0141021728515625	144.592949634938
0.389404296875	-0.0141387939453125	144.637199634826
0.384979248046875	-0.014178466796875	144.681449634714
0.38055419921875	-0.0142181396484375	144.725699634603
0.376129150390625	-0.0142608642578125	144.769949634491
0.3717041015625	-0.014300537109375	144.814199634379
0.367279052734375	-0.01434326171875	144.858449634268
0.36285400390625	-0.0143829345703125	144.902699634156
0.358428955078125	-0.014422607421875	144.946949634044
0.35400390625	-0.01446533203125	144.991199633932
0.349578857421875	-0.0145050048828125	145.035449633821
0.34515380859375	-0.0145477294921875	145.079699633709
0.340728759765625	-0.01458740234375	145.123949633597
0.3363037109375	-0.014630126953125	145.168199633486
0.331878662109375	-0.0146728515625	145.212449633374
0.32745361328125	-0.014715576171875	145.256699633262
0.323028564453125	-0.0147552490234375	145.30094963315
0.318603515625	-0.0147979736328125	145.345199633039
0.314178466796875	-0.014837646484375	145.389449632927
0.30975341796875	-0.0148834228515625	145.433699632815
0.305328369140625	-0.0149261474609375	145.477949632703
0.3009033203125	-0.0149688720703125	145.522199632592
0.296478271484375	-0.0150115966796875	145.56644963248
0.29205322265625	-0.0150543212890625	145.610699632368
0.287628173828125	-0.01510009765625	145.654949632257
0.283203125	-0.015142822265625	145.699199632145
0.278778076171875	-0.015185546875	145.743449632033
0.27435302734375	-0.015228271484375	145.787699631921
0.269927978515625	-0.0152740478515625	145.83194963181
0.2655029296875	-0.015313720703125	145.876199631698
0.261077880859375	-0.0153594970703125	145.920449631586
0.25665283203125	-0.0154022216796875	145.964699631475
0.252227783203125	-0.0154449462890625	146.008949631363
0.247802734375	-0.0154876708984375	146.053199631251
0.243377685546875	-0.015533447265625	146.097449631139
0.23895263671875	-0.015576171875	146.141699631028
0.234527587890625	-0.015618896484375	146.185949630916
0.2301025390625	-0.01566162109375	146.230199630804
0.225677490234375	-0.015704345703125	146.274449630693
0.22125244140625	-0.0157501220703125	146.318699630581
0.216827392578125	-0.0157928466796875	146.362949630469
0.21240234375	-0.0158355712890625	146.407199630357
0.207977294921875	-0.01588134765625	146.451449630246
0.20355224609375	-0.0159271240234375	146.495699630134
0.199127197265625	-0.0159698486328125	146.539949630022
0.1947021484375	-0.016015625	146.58419962991
0.190277099609375	-0.016058349609375	146.628449629799
0.18585205078125	-0.0161041259765625	146.672699629687
0.181427001953125	-0.01614990234375	146.716949629575
0.177001953125	-0.016192626953125	146.761199629464
0.172576904296875	-0.0162384033203125	146.805449629352
0.16815185546875	-0.0162841796875	146.84969962924
0.163726806640625	-0.0163299560546875	146.893949629128
0.1593017578125	-0.0163726806640625	146.938199629017
0.154876708984375	-0.01641845703125	146.982449628905
0.15045166015625	-0.0164642333984375	147.026699628793
0.146026611328125	-0.0165069580078125	147.070949628682
0.1416015625	-0.016552734375	147.11519962857
0.137176513671875	-0.0165985107421875	147.159449628458
0.13275146484375	-0.016644287109375	147.203699628346
0.128326416015625	-0.016693115234375	147.247949628235
0.1239013671875	-0.0167388916015625	147.292199628123
0.119476318359375	-0.01678466796875	147.336449628011
0.11505126953125	-0.0168304443359375	147.3806996279
0.110626220703125	-0.016876220703125	147.424949627788
0.106201171875	-0.016925048828125	147.469199627676
0.101776123046875	-0.016973876953125	147.513449627564
0.09735107421875	-0.0170166015625	147.557699627453
0.092926025390625	-0.0170654296875	147.601949627341
0.0885009765625	-0.0171112060546875	147.646199627229
0.084075927734375	-0.0171600341796875	147.690449627117
0.07965087890625	-0.017205810546875	147.734699627006
0.075225830078125	-0.0172515869140625	147.778949626894
0.07080078125	-0.0173004150390625	147.823199626782
0.066375732421875	-0.017352294921875	147.867449626671
0.06195068359375	-0.017401123046875	147.911699626559
0.057525634765625	-0.017449951171875	147.955949626447
0.0531005859375	-0.0175018310546875	148.000199626335
0.048675537109375	-0.0175537109375	148.044449626224
0.04425048828125	-0.0176025390625	148.088699626112
0.039825439453125	-0.0176544189453125	148.132949626
0.035400390625	-0.017706298828125	148.177199625889
0.030975341796875	-0.0177581787109375	148.221449625777
0.02655029296875	-0.01781005859375	148.265699625665
0.022125244140625	-0.017864990234375	148.309949625553
0.0177001953125	-0.017919921875	148.354199625442
0.013275146484375	-0.0179718017578125	148.39844962533
0.00885009765625	-0.0180267333984375	148.442699625218
0.004425048828125	-0.0180816650390625	148.486949625106
0	-0.0181396484375	148.531199624995
0.004425048828125	-0.0172149658203125	148.575449624883
0.00885009765625	-0.0163299560546875	148.619699624771
0.013275146484375	-0.0154815673828125	148.66394962466
0.0177001953125	-0.014654541015625	148.708199624548
0.022125244140625	-0.0138641357421875	148.752449624436
0.02655029296875	-0.013092041015625	148.796699624324
0.030975341796875	-0.0123443603515625	148.840949624213
0.035400390625	-0.01162109375	148.885199624101
0.039825439453125	-0.0109161376953125	148.929449623989
0.04425048828125	-0.0102294921875	148.973699623878
0.048675537109375	-0.009564208984375	149.017949623766
0.0531005859375	-0.008917236328125	149.062199623654
0.057525634765625	-0.0082855224609375	149.106449623542
0.06195068359375	-0.007672119140625	149.150699623431
0.066375732421875	-0.007073974609375	149.194949623319
0.07080078125	-0.006488037109375	149.239199623207
0.075225830078125	-0.00592041015625	149.283449623096
0.07965087890625	-0.005364990234375	149.327699622984
0.084075927734375	-0.00482513427734375	149.371949622872
0.0885009765625	-0.0042962646484375	149.41619962276
0.092926025390625	-0.0037799072265625	149.460449622649
0.09735107421875	-0.0032769775390625	149.504699622537
0.101776123046875	-0.00278472900390625	149.548949622425
0.106201171875	-0.0023150634765625	149.593199622313
0.110626220703125	-0.001844482421875	149.637449622202
0.11505126953125	-0.00138580322265625	149.68169962209
0.119476318359375	-0.00093963623046875	149.725949621978
0.1239013671875	-0.00050201416015625	149.770199621867
0.128326416015625	-7.4188232421875E-05	149.814449621755
0.13275146484375	0.00034405517578125	149.858699621643
0.137176513671875	0.000753173828125	149.902949621531
0.1416015625	0.0011529541015625	149.94719962142
0.146026611328125	0.00154388427734375	149.991449621308
0.15045166015625	0.001925048828125	150.035699621196
0.154876708984375	0.00229736328125	150.079949621085
0.1593017578125	0.0026605224609375	150.124199620973
0.163726806640625	0.0030157470703125	150.168449620861
0.16815185546875	0.0033648681640625	150.212699620749
0.172576904296875	0.0037066650390625	150.256949620638
0.177001953125	0.0040380859375	150.301199620526
0.181427001953125	0.004361572265625	150.345449620414
0.18585205078125	0.004677734375	150.389699620303
0.190277099609375	0.004986572265625	150.433949620191
0.1947021484375	0.00528839111328125	150.478199620079
0.199127197265625	0.00558258056640625	150.522449619967
0.20355224609375	0.00587005615234375	150.566699619856
0.207977294921875	0.00615081787109375	150.610949619744
0.21240234375	0.006414794921875	150.655199619632
0.216827392578125	0.006683349609375	150.69944961952
0.22125244140625	0.0069427490234375	150.743699619409
0.225677490234375	0.0071929931640625	150.787949619297
0.2301025390625	0.0074432373046875	150.832199619185
0.234527587890625	0.0076904296875	150.876449619074
0.23895263671875	0.007928466796875	150.920699618962
0.243377685546875	0.008160400390625	150.96494961885
0.247802734375	0.00838623046875	151.009199618738
0.252227783203125	0.0086029052734375	151.053449618627
0.25665283203125	0.0088165283203125	151.097699618515
0.261077880859375	0.009027099609375	151.141949618403
0.2655029296875	0.009228515625	151.186199618292
0.269927978515625	0.0094207763671875	151.23044961818
0.27435302734375	0.009613037109375	151.274699618068
0.278778076171875	0.00980224609375	151.318949617956
0.283203125	0.0099822998046875	151.363199617845
0.287628173828125	0.0101593017578125	151.407449617733
0.29205322265625	0.010333251953125	151.451699617621
0.296478271484375	0.0105010986328125	151.495949617509
0.3009033203125	0.010662841796875	151.540199617398
0.305328369140625	0.010821533203125	151.584449617286
0.30975341796875	0.0109710693359375	151.628699617174
0.314178466796875	0.0111236572265625	151.672949617063
0.318603515625	0.0112701416015625	151.717199616951
0.323028564453125	0.01141357421875	151.761449616839
0.32745361328125	0.0115509033203125	151.805699616727
0.331878662109375	0.011688232421875	151.849949616616
0.3363037109375	0.01181640625	151.894199616504
0.340728759765625	0.0119476318359375	151.938449616392
0.34515380859375	0.01207275390625	151.982699616281
0.349578857421875	0.01219482421875	152.026949616169
0.35400390625	0.0123077392578125	152.071199616057
0.358428955078125	0.012420654296875	152.115449615945
0.36285400390625	0.0125244140625	152.159699615834
0.367279052734375	0.0126312255859375	152.203949615722
0.3717041015625	0.012738037109375	152.24819961561
0.376129150390625	0.0128448486328125	152.292449615499
0.38055419921875	0.01295166015625	152.336699615387
0.384979248046875	0.0130401611328125	152.380949615275
0.389404296875	0.01312255859375	152.425199615163
0.393829345703125	0.0132110595703125	152.469449615052
0.39825439453125	0.0133056640625	152.51369961494
0.402679443359375	0.0134063720703125	152.557949614828
0.4071044921875	0.01348876953125	152.602199614716
0.411529541015625	0.0135650634765625	152.646449614605
0.41595458984375	0.013641357421875	152.690699614493
0.420379638671875	0.013714599609375	152.734949614381
0.4248046875	0.0137847900390625	152.77919961427
0.429229736328125	0.01385498046875	152.823449614158
0.43365478515625	0.0139190673828125	152.867699614046
0.438079833984375	0.0139862060546875	152.911949613934
0.4425048828125	0.014044189453125	152.956199613823
0.446929931640625	0.014105224609375	153.000449613711
0.45135498046875	0.01416015625	153.044699613599
0.455780029296875	0.0142181396484375	153.088949613488
0.460205078125	0.0142730712890625	153.133199613376
0.464630126953125	0.014324951171875	153.177449613264
0.46905517578125	0.0143707275390625	153.221699613152
0.473480224609375	0.0144256591796875	153.265949613041
0.4779052734375	0.0144683837890625	153.310199612929
0.482330322265625	0.0145172119140625	153.354449612817
0.48675537109375	0.0145599365234375	153.398699612706
0.491180419921875	0.0145965576171875	153.442949612594
0.49560546875	0.01463623046875	153.487199612482
0.500030517578125	0.0146759033203125	153.53144961237
0.50445556640625	0.0147125244140625	153.575699612259
0.508880615234375	0.0147491455078125	153.619949612147
0.5133056640625	0.01478271484375	153.664199612035
0.517730712890625	0.014813232421875	153.708449611923
0.52215576171875	0.01484375	153.752699611812
0.526580810546875	0.014874267578125	153.7969496117
0.531005859375	0.01490478515625	153.841199611588
0.535430908203125	0.0149322509765625	153.885449611477
0.53985595703125	0.0149566650390625	153.929699611365
0.544281005859375	0.0149810791015625	153.973949611253
0.5487060546875	0.01500244140625	154.018199611141
0.553131103515625	0.015020751953125	154.06244961103
0.55755615234375	0.0150390625	154.106699610918
0.561981201171875	0.0150604248046875	154.150949610806
0.56640625	0.0150787353515625	154.195199610695
0.570831298828125	0.015093994140625	154.239449610583
0.57525634765625	0.0151092529296875	154.283699610471
0.579681396484375	0.0151214599609375	154.327949610359
0.5841064453125	0.0151336669921875	154.372199610248
0.588531494140625	0.015142822265625	154.416449610136
0.59295654296875	0.015155029296875	154.460699610024
0.597381591796875	0.0151641845703125	154.504949609913
0.601806640625	0.01517333984375	154.549199609801
0.606231689453125	0.0151824951171875	154.593449609689
0.61065673828125	0.0151885986328125	154.637699609577
0.615081787109375	0.0151947021484375	154.681949609466
0.6195068359375	0.0152008056640625	154.726199609354
0.623931884765625	0.0152069091796875	154.770449609242
0.62835693359375	0.015216064453125	154.81469960913
0.632781982421875	0.015216064453125	154.858949609019
0.63720703125	0.0152191162109375	154.903199608907
0.641632080078125	0.0152191162109375	154.947449608795
0.64605712890625	0.0152191162109375	154.991699608684
0.650482177734375	0.0152191162109375	155.035949608572
0.6549072265625	0.0152191162109375	155.08019960846
0.659332275390625	0.0152191162109375	155.124449608348
0.66375732421875	0.0152191162109375	155.168699608237
0.668182373046875	0.015216064453125	155.212949608125
0.672607421875	0.0152130126953125	155.257199608013
0.677032470703125	0.0152099609375	155.301449607902
0.68145751953125	0.0152099609375	155.34569960779
0.685882568359375	0.0152069091796875	155.389949607678
0.6903076171875	0.0152008056640625	155.434199607566
0.694732666015625	0.0152008056640625	155.478449607455
0.69915771484375	0.0151947021484375	155.522699607343
0.703582763671875	0.015191650390625	155.566949607231
0.7080078125	0.0151885986328125	155.611199607119
0.712432861328125	0.0151824951171875	155.655449607008
0.71685791015625	0.015179443359375	155.699699606896
0.721282958984375	0.0151763916015625	155.743949606784
0.7257080078125	0.0151702880859375	155.788199606673
0.730133056640625	0.0151702880859375	155.832449606561
0.73455810546875	0.0151641845703125	155.876699606449
0.738983154296875	0.0151641845703125	155.920949606337
0.743408203125	0.015155029296875	155.965199606226
0.747833251953125	0.0151519775390625	156.009449606114
0.75225830078125	0.01514892578125	156.053699606002
0.756683349609375	0.01514892578125	156.097949605891
0.7611083984375	0.01514892578125	156.142199605779
0.765533447265625	0.01514892578125	156.186449605667
0.76995849609375	0.01514892578125	156.230699605555
0.774383544921875	0.0151458740234375	156.274949605444
0.77880859375	0.01514892578125	156.319199605332
0.783233642578125	0.0151458740234375	156.36344960522
0.78765869140625	0.01514892578125	156.407699605109
0.792083740234375	0.0151519775390625	156.451949604997
0.7965087890625	0.015155029296875	156.496199604885
0.800933837890625	0.0151580810546875	156.540449604773
0.80535888671875	0.0151641845703125	156.584699604662
0.809783935546875	0.015167236328125	156.62894960455
0.814208984375	0.01517333984375	156.673199604438
0.818634033203125	0.0151824951171875	156.717449604326
0.82305908203125	0.0151885986328125	156.761699604215
0.827484130859375	0.01519775390625	156.805949604103
0.8319091796875	0.0152069091796875	156.850199603991
0.836334228515625	0.01522216796875	156.89444960388
0.84075927734375	0.0152313232421875	156.938699603768
0.845184326171875	0.01524658203125	156.982949603656
0.849609375	0.0152587890625	157.027199603544
0.854034423828125	0.0152740478515625	157.071449603433
0.85845947265625	0.0152923583984375	157.115699603321
0.862884521484375	0.0153076171875	157.159949603209
0.8673095703125	0.015325927734375	157.204199603098
0.871734619140625	0.0153472900390625	157.248449602986
0.87615966796875	0.01536865234375	157.292699602874
0.880584716796875	0.0153900146484375	157.336949602762
0.885009765625	0.0154144287109375	157.381199602651
0.889434814453125	0.0154449462890625	157.425449602539
0.89385986328125	0.0154693603515625	157.469699602427
0.898284912109375	0.0154998779296875	157.513949602316
0.9027099609375	0.0155303955078125	157.558199602204
0.907135009765625	0.01556396484375	157.602449602092
0.91156005859375	0.0155975341796875	157.64669960198
0.915985107421875	0.0156341552734375	157.690949601869
0.92041015625	0.0156707763671875	157.735199601757
0.924835205078125	0.01571044921875	157.779449601645
0.92926025390625	0.015753173828125	157.823699601533
0.933685302734375	0.0157958984375	157.867949601422
0.9381103515625	0.0158447265625	157.91219960131
0.942535400390625	0.0158935546875	157.956449601198
0.94696044921875	0.0159454345703125	158.000699601087
0.951385498046875	0.015997314453125	158.044949600975
0.955810546875	0.01605224609375	158.089199600863
0.960235595703125	0.0161102294921875	158.133449600751
0.96466064453125	0.0161712646484375	158.17769960064
0.969085693359375	0.016229248046875	158.221949600528
0.9735107421875	0.01629638671875	158.266199600416
0.977935791015625	0.0163604736328125	158.310449600305
0.98236083984375	0.0164306640625	158.354699600193
0.986785888671875	0.01650390625	158.398949600081
0.9912109375	0.0165802001953125	158.443199599969
0.995635986328125	0.016656494140625	158.487449599858
1.00006103515625	0.0167388916015625	158.531699599746
0.995635986328125	0.0158355712890625	158.575949599634
0.9912109375	0.01497802734375	158.620199599522
0.986785888671875	0.0141571044921875	158.664449599411
0.98236083984375	0.013372802734375	158.708699599299
0.977935791015625	0.012615966796875	158.752949599187
0.9735107421875	0.0118865966796875	158.797199599076
0.969085693359375	0.0111785888671875	158.841449598964
0.96466064453125	0.010498046875	158.885699598852
0.960235595703125	0.0098358154296875	158.92994959874
0.955810546875	0.00919189453125	158.974199598629
0.951385498046875	0.0085662841796875	159.018449598517
0.94696044921875	0.007958984375	159.062699598405
0.942535400390625	0.0073699951171875	159.106949598294
0.9381103515625	0.0067962646484375	159.151199598182
0.933685302734375	0.0062347412109375	159.19544959807
0.92926025390625	0.0056915283203125	159.239699597958
0.924835205078125	0.0051605224609375	159.283949597847
0.92041015625	0.00464569091796875	159.328199597735
0.915985107421875	0.00414337158203125	159.372449597623
0.91156005859375	0.00365386962890625	159.416699597512
0.907135009765625	0.00317596435546875	159.4609495974
0.9027099609375	0.0027093505859375	159.505199597288
0.898284912109375	0.002255859375	159.549449597176
0.89385986328125	0.00181182861328125	159.593699597065
0.889434814453125	0.0013787841796875	159.637949596953
0.885009765625	0.00095550537109375	159.682199596841
0.880584716796875	0.0005426025390625	159.726449596729
0.87615966796875	0.000139404296875	159.770699596618
0.871734619140625	-0.000253875732421875	159.814949596506
0.8673095703125	-0.00063751220703125	159.859199596394
0.862884521484375	-0.00101226806640625	159.903449596283
0.85845947265625	-0.00137603759765625	159.947699596171
0.854034423828125	-0.00173248291015625	159.991949596059
0.849609375	-0.002081298828125	160.036199595947
0.845184326171875	-0.00242034912109375	160.080449595836
0.84075927734375	-0.00275177001953125	160.124699595724
0.836334228515625	-0.00307373046875	160.168949595612
0.8319091796875	-0.00338897705078125	160.213199595501
0.827484130859375	-0.00369537353515625	160.257449595389
0.82305908203125	-0.00399444580078125	160.301699595277
0.818634033203125	-0.00428558349609375	160.345949595165
0.814208984375	-0.0045697021484375	160.390199595054
0.809783935546875	-0.00484527587890625	160.434449594942
0.80535888671875	-0.0051153564453125	160.47869959483
0.800933837890625	-0.00537750244140625	160.522949594719
0.7965087890625	-0.00563232421875	160.567199594607
0.792083740234375	-0.00588043212890625	160.611449594495
0.78765869140625	-0.00612152099609375	160.655699594383
0.783233642578125	-0.0063323974609375	160.699949594272
0.77880859375	-0.006561279296875	160.74419959416
0.774383544921875	-0.0067840576171875	160.788449594048
0.76995849609375	-0.0069976806640625	160.832699593936
0.765533447265625	-0.007208251953125	160.876949593825
0.7611083984375	-0.0074127197265625	160.921199593713
0.756683349609375	-0.007611083984375	160.965449593601
0.75225830078125	-0.0078033447265625	161.00969959349
0.747833251953125	-0.0079864501953125	161.053949593378
0.743408203125	-0.0081695556640625	161.098199593266
0.738983154296875	-0.008343505859375	161.142449593154
0.73455810546875	-0.008514404296875	161.186699593043
0.730133056640625	-0.0086761474609375	161.230949592931
0.7257080078125	-0.008837890625	161.275199592819
0.721282958984375	-0.00899658203125	161.319449592708
0.71685791015625	-0.009149169921875	161.363699592596
0.712432861328125	-0.009295654296875	161.407949592484
0.7080078125	-0.00943603515625	161.452199592372
0.703582763671875	-0.0095733642578125	161.496449592261
0.69915771484375	-0.0097076416015625	161.540699592149
0.694732666015625	-0.0098388671875	161.584949592037
0.6903076171875	-0.0099639892578125	161.629199591925
0.685882568359375	-0.0100860595703125	161.673449591814
0.68145751953125	-0.0102020263671875	161.717699591702
0.677032470703125	-0.010321044921875	161.76194959159
0.672607421875	-0.010430908203125	161.806199591479
0.668182373046875	-0.010540771484375	161.850449591367
0.66375732421875	-0.01064453125	161.894699591255
0.659332275390625	-0.0107452392578125	161.938949591143
0.6549072265625	-0.0108551025390625	161.983199591032
0.650482177734375	-0.0109527587890625	162.02744959092
0.64605712890625	-0.0110443115234375	162.071699590808
0.641632080078125	-0.0111328125	162.115949590697
0.63720703125	-0.0112213134765625	162.160199590585
0.632781982421875	-0.0113037109375	162.204449590473
0.62835693359375	-0.0113861083984375	162.248699590361
0.623931884765625	-0.0114715576171875	162.29294959025
0.6195068359375	-0.011541748046875	162.337199590138
0.615081787109375	-0.01162109375	162.381449590026
0.61065673828125	-0.0116973876953125	162.425699589915
0.606231689453125	-0.0117767333984375	162.469949589803
0.601806640625	-0.0118499755859375	162.514199589691
0.597381591796875	-0.011920166015625	162.558449589579
0.59295654296875	-0.0119873046875	162.602699589468
0.588531494140625	-0.012054443359375	162.646949589356
0.5841064453125	-0.012115478515625	162.691199589244
0.579681396484375	-0.012176513671875	162.735449589132
0.57525634765625	-0.0122406005859375	162.779699589021
0.570831298828125	-0.0123046875	162.823949588909
0.56640625	-0.01236572265625	162.868199588797
0.561981201171875	-0.0124267578125	162.912449588686
0.55755615234375	-0.012481689453125	162.956699588574
0.553131103515625	-0.01253662109375	163.000949588462
0.5487060546875	-0.0125885009765625	163.04519958835
0.544281005859375	-0.012640380859375	163.089449588239
0.53985595703125	-0.012689208984375	163.133699588127
0.535430908203125	-0.0127410888671875	163.177949588015
0.531005859375	-0.0127899169921875	163.222199587904
0.526580810546875	-0.0128387451171875	163.266449587792
0.52215576171875	-0.0128875732421875	163.31069958768
0.517730712890625	-0.012933349609375	163.354949587568
0.5133056640625	-0.012982177734375	163.399199587457
0.508880615234375	-0.0130279541015625	163.443449587345
0.50445556640625	-0.0130706787109375	163.487699587233
0.500030517578125	-0.0131134033203125	163.531949587122
0.49560546875	-0.0131591796875	163.57619958701
0.491180419921875	-0.013201904296875	163.620449586898
0.48675537109375	-0.01324462890625	163.664699586786
0.482330322265625	-0.0132904052734375	163.708949586675
0.4779052734375	-0.0133270263671875	163.753199586563
0.473480224609375	-0.013372802734375	163.797449586451
0.46905517578125	-0.0134124755859375	163.841699586339
0.464630126953125	-0.0134552001953125	163.885949586228
0.460205078125	-0.0134979248046875	163.930199586116
0.455780029296875	-0.01353759765625	163.974449586004
0.45135498046875	-0.0135772705078125	164.018699585893
0.446929931640625	-0.013616943359375	164.062949585781
0.4425048828125	-0.01365966796875	164.107199585669
0.438079833984375	-0.0136993408203125	164.151449585557
0.43365478515625	-0.013739013671875	164.195699585446
0.429229736328125	-0.0137786865234375	164.239949585334
0.4248046875	-0.013818359375	164.284199585222
0.420379638671875	-0.0138580322265625	164.328449585111
0.41595458984375	-0.013897705078125	164.372699584999
0.411529541015625	-0.0139373779296875	164.416949584887
0.4071044921875	-0.0139801025390625	164.461199584775
0.402679443359375	-0.014019775390625	164.505449584664
0.39825439453125	-0.014056396484375	164.549699584552
0.393829345703125	-0.0140960693359375	164.59394958444
0.389404296875	-0.0141326904296875	164.638199584329
0.384979248046875	-0.01417236328125	164.682449584217
0.38055419921875	-0.0142120361328125	164.726699584105
0.376129150390625	-0.0142547607421875	164.770949583993
0.3717041015625	-0.01429443359375	164.815199583882
0.367279052734375	-0.0143341064453125	164.85944958377
0.36285400390625	-0.014373779296875	164.903699583658
0.358428955078125	-0.01441650390625	164.947949583546
0.35400390625	-0.0144561767578125	164.992199583435
0.349578857421875	-0.014495849609375	165.036449583323
0.34515380859375	-0.01453857421875	165.080699583211
0.340728759765625	-0.0145782470703125	165.1249495831
0.3363037109375	-0.0146209716796875	165.169199582988
0.331878662109375	-0.01466064453125	165.213449582876
0.32745361328125	-0.014703369140625	165.257699582764
0.323028564453125	-0.0147430419921875	165.301949582653
0.318603515625	-0.0147857666015625	165.346199582541
0.314178466796875	-0.0148284912109375	165.390449582429
0.30975341796875	-0.0148712158203125	165.434699582318
0.305328369140625	-0.0149139404296875	165.478949582206
0.3009033203125	-0.0149566650390625	165.523199582094
0.296478271484375	-0.0149993896484375	165.567449581982
0.29205322265625	-0.0150390625	165.611699581871
0.287628173828125	-0.0150848388671875	165.655949581759
0.283203125	-0.015130615234375	165.700199581647
0.278778076171875	-0.0151702880859375	165.744449581535
0.27435302734375	-0.015216064453125	165.788699581424
0.269927978515625	-0.0152557373046875	165.832949581312
0.2655029296875	-0.0152984619140625	165.8771995812
0.261077880859375	-0.01534423828125	165.921449581089
0.25665283203125	-0.015386962890625	165.965699580977
0.252227783203125	-0.0154296875	166.009949580865
0.247802734375	-0.015472412109375	166.054199580753
0.243377685546875	-0.01551513671875	166.098449580642
0.23895263671875	-0.0155609130859375	166.14269958053
0.234527587890625	-0.0156036376953125	166.186949580418
0.2301025390625	-0.015643310546875	166.231199580307
0.225677490234375	-0.01568603515625	166.275449580195
0.22125244140625	-0.0157318115234375	166.319699580083
0.216827392578125	-0.0157745361328125	166.363949579971
0.21240234375	-0.0158172607421875	166.40819957986
0.207977294921875	-0.015863037109375	166.452449579748
0.20355224609375	-0.0159088134765625	166.496699579636
0.199127197265625	-0.0159515380859375	166.540949579525
0.1947021484375	-0.0159942626953125	166.585199579413
0.190277099609375	-0.0160400390625	166.629449579301
0.18585205078125	-0.0160858154296875	166.673699579189
0.181427001953125	-0.01612548828125	166.717949579078
0.177001953125	-0.01617431640625	166.762199578966
0.172576904296875	-0.016217041015625	166.806449578854
0.16815185546875	-0.016259765625	166.850699578742
0.163726806640625	-0.0163055419921875	166.894949578631
0.1593017578125	-0.0163482666015625	166.939199578519
0.154876708984375	-0.01639404296875	166.983449578407
0.15045166015625	-0.0164398193359375	167.027699578296
0.146026611328125	-0.016485595703125	167.071949578184
0.1416015625	-0.0165283203125	167.116199578072
0.137176513671875	-0.0165740966796875	167.16044957796
0.13275146484375	-0.016619873046875	167.204699577849
0.128326416015625	-0.0166656494140625	167.248949577737
0.1239013671875	-0.01671142578125	167.293199577625
0.119476318359375	-0.0167572021484375	167.337449577514
0.11505126953125	-0.016802978515625	167.381699577402
0.110626220703125	-0.0168487548828125	167.42594957729
0.106201171875	-0.0168975830078125	167.470199577178
0.101776123046875	-0.016943359375	167.514449577067
0.09735107421875	-0.0169921875	167.558699576955
0.092926025390625	-0.017041015625	167.602949576843
0.0885009765625	-0.0170867919921875	167.647199576732
0.084075927734375	-0.0171356201171875	167.69144957662
0.07965087890625	-0.017181396484375	167.735699576508
0.075225830078125	-0.0172271728515625	167.779949576396
0.07080078125	-0.017279052734375	167.824199576285
0.066375732421875	-0.017327880859375	167.868449576173
0.06195068359375	-0.017376708984375	167.912699576061
0.057525634765625	-0.0174285888671875	167.956949575949
0.0531005859375	-0.0174774169921875	168.001199575838
0.048675537109375	-0.0175262451171875	168.045449575726
0.04425048828125	-0.017578125	168.089699575614
0.039825439453125	-0.0176300048828125	168.133949575503
0.035400390625	-0.017681884765625	168.178199575391
0.030975341796875	-0.0177337646484375	168.222449575279
0.02655029296875	-0.0177886962890625	168.266699575167
0.022125244140625	-0.0178436279296875	168.310949575056
0.0177001953125	-0.0178955078125	168.355199574944
0.013275146484375	-0.017950439453125	168.399449574832
0.00885009765625	-0.01800537109375	168.443699574721
0.004425048828125	-0.0180633544921875	168.487949574609
0	-0.018121337890625	168.532199574497
0.004425048828125	-0.017193603515625	168.576449574385
0.00885009765625	-0.01630859375	168.620699574274
0.013275146484375	-0.0154571533203125	168.664949574162
0.0177001953125	-0.01463623046875	168.70919957405
0.022125244140625	-0.0138427734375	168.753449573938
0.02655029296875	-0.0130706787109375	168.797699573827
0.030975341796875	-0.0123260498046875	168.841949573715
0.035400390625	-0.0115997314453125	168.886199573603
0.039825439453125	-0.01090087890625	168.930449573492
0.04425048828125	-0.0102142333984375	168.97469957338
0.048675537109375	-0.0095458984375	169.018949573268
0.0531005859375	-0.00889892578125	169.063199573156
0.057525634765625	-0.008270263671875	169.107449573045
0.06195068359375	-0.0076568603515625	169.151699572933
0.066375732421875	-0.0070587158203125	169.195949572821
0.07080078125	-0.006475830078125	169.24019957271
0.075225830078125	-0.0059051513671875	169.284449572598
0.07965087890625	-0.005352783203125	169.328699572486
0.084075927734375	-0.0048114013671875	169.372949572374
0.0885009765625	-0.00428436279296875	169.417199572263
0.092926025390625	-0.00376861572265625	169.461449572151
0.09735107421875	-0.00326568603515625	169.505699572039
0.101776123046875	-0.00277435302734375	169.549949571928
0.106201171875	-0.0023046875	169.594199571816
0.110626220703125	-0.0018353271484375	169.638449571704
0.11505126953125	-0.00137664794921875	169.682699571592
0.119476318359375	-0.000931396484375	169.726949571481
0.1239013671875	-0.00049346923828125	169.771199571369
0.128326416015625	-6.6009521484375E-05	169.815449571257
0.13275146484375	0.000351715087890625	169.859699571145
0.137176513671875	0.0007598876953125	169.903949571034
0.1416015625	0.00115997314453125	169.948199570922
0.146026611328125	0.00155059814453125	169.99244957081
0.15045166015625	0.00193145751953125	170.036699570699
0.154876708984375	0.00230377197265625	170.080949570587
0.1593017578125	0.00266571044921875	170.125199570475
0.163726806640625	0.003021240234375	170.169449570363
0.16815185546875	0.003369140625	170.213699570252
0.172576904296875	0.00371002197265625	170.25794957014
0.177001953125	0.00404205322265625	170.302199570028
0.181427001953125	0.00436553955078125	170.346449569917
0.18585205078125	0.004681396484375	170.390699569805
0.190277099609375	0.004990234375	170.434949569693
0.1947021484375	0.00529144287109375	170.479199569581
0.199127197265625	0.0055859375	170.52344956947
0.20355224609375	0.0058734130859375	170.567699569358
0.207977294921875	0.00615478515625	170.611949569246
0.21240234375	0.0064178466796875	170.656199569135
0.216827392578125	0.0066864013671875	170.700449569023
0.22125244140625	0.00694580078125	170.744699568911
0.225677490234375	0.0071990966796875	170.788949568799
0.2301025390625	0.0074493408203125	170.833199568688
0.234527587890625	0.007696533203125	170.877449568576
0.23895263671875	0.0079315185546875	170.921699568464
0.243377685546875	0.00816650390625	170.965949568352
0.247802734375	0.008392333984375	171.010199568241
0.252227783203125	0.0086090087890625	171.054449568129
0.25665283203125	0.0088226318359375	171.098699568017
0.261077880859375	0.0090301513671875	171.142949567906
0.2655029296875	0.0092315673828125	171.187199567794
0.269927978515625	0.0094268798828125	171.231449567682
0.27435302734375	0.009619140625	171.27569956757
0.278778076171875	0.0098052978515625	171.319949567459
0.283203125	0.0099884033203125	171.364199567347
0.287628173828125	0.0101654052734375	171.408449567235
0.29205322265625	0.0103363037109375	171.452699567124
0.296478271484375	0.010504150390625	171.496949567012
0.3009033203125	0.0106658935546875	171.5411995669
0.305328369140625	0.0108245849609375	171.585449566788
0.30975341796875	0.0109771728515625	171.629699566677
0.314178466796875	0.0111297607421875	171.673949566565
0.318603515625	0.0112762451171875	171.718199566453
0.323028564453125	0.0114166259765625	171.762449566342
0.32745361328125	0.0115570068359375	171.80669956623
0.331878662109375	0.011688232421875	171.850949566118
0.3363037109375	0.0118194580078125	171.895199566006
0.340728759765625	0.011944580078125	171.939449565895
0.34515380859375	0.0120697021484375	171.983699565783
0.349578857421875	0.012188720703125	172.027949565671
0.35400390625	0.0123046875	172.072199565559
0.358428955078125	0.012420654296875	172.116449565448
0.36285400390625	0.0125335693359375	172.160699565336
0.367279052734375	0.0126373291015625	172.204949565224
0.3717041015625	0.0127410888671875	172.249199565113
0.376129150390625	0.0128387451171875	172.293449565001
0.38055419921875	0.012933349609375	172.337699564889
0.384979248046875	0.01302490234375	172.381949564777
0.389404296875	0.013116455078125	172.426199564666
0.393829345703125	0.013214111328125	172.470449564554
0.39825439453125	0.0133056640625	172.514699564442
0.402679443359375	0.0133819580078125	172.558949564331
0.4071044921875	0.0134521484375	172.603199564219
0.411529541015625	0.01353759765625	172.647449564107
0.41595458984375	0.013623046875	172.691699563995
0.420379638671875	0.01370849609375	172.735949563884
0.4248046875	0.0137786865234375	172.780199563772
0.429229736328125	0.0138458251953125	172.82444956366
0.43365478515625	0.0139129638671875	172.868699563548
0.438079833984375	0.01397705078125	172.912949563437
0.4425048828125	0.0140350341796875	172.957199563325
0.446929931640625	0.014093017578125	173.001449563213
0.45135498046875	0.01414794921875	173.045699563102
0.455780029296875	0.014202880859375	173.08994956299
0.460205078125	0.0142547607421875	173.134199562878
0.464630126953125	0.014306640625	173.178449562766
0.46905517578125	0.0143585205078125	173.222699562655
0.473480224609375	0.014404296875	173.266949562543
0.4779052734375	0.014453125	173.311199562431
0.482330322265625	0.0144989013671875	173.35544956232
0.48675537109375	0.0145416259765625	173.399699562208
0.491180419921875	0.014581298828125	173.443949562096
0.49560546875	0.0146209716796875	173.488199561984
0.500030517578125	0.0146575927734375	173.532449561873
0.50445556640625	0.0146942138671875	173.576699561761
0.508880615234375	0.014727783203125	173.620949561649
0.5133056640625	0.01475830078125	173.665199561538
0.517730712890625	0.0147918701171875	173.709449561426
0.52215576171875	0.0148193359375	173.753699561314
0.526580810546875	0.014849853515625	173.797949561202
0.531005859375	0.0148773193359375	173.842199561091
0.535430908203125	0.0149017333984375	173.886449560979
0.53985595703125	0.0149261474609375	173.930699560867
0.544281005859375	0.014947509765625	173.974949560755
0.5487060546875	0.0149688720703125	174.019199560644
0.553131103515625	0.014990234375	174.063449560532
0.55755615234375	0.015008544921875	174.10769956042
0.561981201171875	0.01502685546875	174.151949560309
0.56640625	0.0150421142578125	174.196199560197
0.570831298828125	0.0150604248046875	174.240449560085
0.57525634765625	0.0150726318359375	174.284699559973
0.579681396484375	0.015087890625	174.328949559862
0.5841064453125	0.01510009765625	174.37319955975
0.588531494140625	0.0151092529296875	174.417449559638
0.59295654296875	0.015118408203125	174.461699559527
0.597381591796875	0.0151275634765625	174.505949559415
0.601806640625	0.01513671875	174.550199559303
0.606231689453125	0.0151458740234375	174.594449559191
0.61065673828125	0.01514892578125	174.63869955908
0.615081787109375	0.0151580810546875	174.682949558968
0.6195068359375	0.0151641845703125	174.727199558856
0.623931884765625	0.015167236328125	174.771449558745
0.62835693359375	0.01517333984375	174.815699558633
0.632781982421875	0.0151763916015625	174.859949558521
0.63720703125	0.015179443359375	174.904199558409
0.641632080078125	0.015179443359375	174.948449558298
0.64605712890625	0.015179443359375	174.992699558186
0.650482177734375	0.015179443359375	175.036949558074
0.6549072265625	0.015179443359375	175.081199557962
0.659332275390625	0.0151763916015625	175.125449557851
0.66375732421875	0.0151763916015625	175.169699557739
0.668182373046875	0.01517333984375	175.213949557627
0.672607421875	0.0151702880859375	175.258199557516
0.677032470703125	0.015167236328125	175.302449557404
0.68145751953125	0.0151641845703125	175.346699557292
0.685882568359375	0.0151611328125	175.39094955718
0.6903076171875	0.0151580810546875	175.435199557069
0.694732666015625	0.015155029296875	175.479449556957
0.69915771484375	0.01514892578125	175.523699556845
0.703582763671875	0.0151458740234375	175.567949556734
0.7080078125	0.0151397705078125	175.612199556622
0.712432861328125	0.01513671875	175.65644955651
0.71685791015625	0.015130615234375	175.700699556398
0.721282958984375	0.0151275634765625	175.744949556287
0.7257080078125	0.0151214599609375	175.789199556175
0.730133056640625	0.015118408203125	175.833449556063
0.73455810546875	0.0151153564453125	175.877699555951
0.738983154296875	0.0151123046875	175.92194955584
0.743408203125	0.015106201171875	175.966199555728
0.747833251953125	0.0151031494140625	176.010449555616
0.75225830078125	0.01510009765625	176.054699555505
0.756683349609375	0.01510009765625	176.098949555393
0.7611083984375	0.0150970458984375	176.143199555281
0.765533447265625	0.015093994140625	176.187449555169
0.76995849609375	0.015093994140625	176.231699555058
0.774383544921875	0.0150909423828125	176.275949554946
0.77880859375	0.0150909423828125	176.320199554834
0.783233642578125	0.0150909423828125	176.364449554723
0.78765869140625	0.0150909423828125	176.408699554611
0.792083740234375	0.015093994140625	176.452949554499
0.7965087890625	0.0150970458984375	176.497199554387
0.800933837890625	0.01510009765625	176.541449554276
0.80535888671875	0.015106201171875	176.585699554164
0.809783935546875	0.0151123046875	176.629949554052
0.814208984375	0.0151153564453125	176.674199553941
0.818634033203125	0.0151214599609375	176.718449553829
0.82305908203125	0.015130615234375	176.762699553717
0.827484130859375	0.01513671875	176.806949553605
0.8319091796875	0.0151458740234375	176.851199553494
0.836334228515625	0.0151580810546875	176.895449553382
0.84075927734375	0.015167236328125	176.93969955327
0.845184326171875	0.015179443359375	176.983949553158
0.849609375	0.0151947021484375	177.028199553047
0.854034423828125	0.0152099609375	177.072449552935
0.85845947265625	0.0152252197265625	177.116699552823
0.862884521484375	0.015240478515625	177.160949552712
0.8673095703125	0.0152618408203125	177.2051995526
0.871734619140625	0.0152801513671875	177.249449552488
0.87615966796875	0.015301513671875	177.293699552376
0.880584716796875	0.015325927734375	177.337949552265
0.885009765625	0.015350341796875	177.382199552153
0.889434814453125	0.015374755859375	177.426449552041
0.89385986328125	0.015399169921875	177.47069955193
0.898284912109375	0.0154296875	177.514949551818
0.9027099609375	0.015460205078125	177.559199551706
0.907135009765625	0.0154937744140625	177.603449551594
0.91156005859375	0.01552734375	177.647699551483
0.915985107421875	0.01556396484375	177.691949551371
0.92041015625	0.0156005859375	177.736199551259
0.924835205078125	0.015643310546875	177.780449551148
0.92926025390625	0.0156829833984375	177.824699551036
0.933685302734375	0.0157257080078125	177.868949550924
0.9381103515625	0.0157745361328125	177.913199550812
0.942535400390625	0.0158233642578125	177.957449550701
0.94696044921875	0.0158721923828125	178.001699550589
0.951385498046875	0.015924072265625	178.045949550477
0.955810546875	0.0159820556640625	178.090199550365
0.960235595703125	0.0160369873046875	178.134449550254
0.96466064453125	0.0160980224609375	178.178699550142
0.969085693359375	0.016162109375	178.22294955003
0.9735107421875	0.0162261962890625	178.267199549919
0.977935791015625	0.016290283203125	178.311449549807
0.98236083984375	0.0163604736328125	178.355699549695
0.986785888671875	0.0164337158203125	178.399949549583
0.9912109375	0.0165069580078125	178.444199549472
0.995635986328125	0.0165863037109375	178.48844954936
1.00006103515625	0.0166656494140625	178.532699549248
0.995635986328125	0.0157623291015625	178.576949549137
0.9912109375	0.0149078369140625	178.621199549025
0.986785888671875	0.0140899658203125	178.665449548913
0.98236083984375	0.0133026123046875	178.709699548801
0.977935791015625	0.012542724609375	178.75394954869
0.9735107421875	0.01181640625	178.798199548578
0.969085693359375	0.0111083984375	178.842449548466
0.96466064453125	0.0104278564453125	178.886699548354
0.960235595703125	0.0097625732421875	178.930949548243
0.955810546875	0.0091217041015625	178.975199548131
0.951385498046875	0.0084991455078125	179.019449548019
0.94696044921875	0.007891845703125	179.063699547908
0.942535400390625	0.0073028564453125	179.107949547796
0.9381103515625	0.006732177734375	179.152199547684
0.933685302734375	0.006170654296875	179.196449547572
0.92926025390625	0.00562744140625	179.240699547461
0.924835205078125	0.005096435546875	179.284949547349
0.92041015625	0.0045831298828125	179.329199547237
0.915985107421875	0.0040814208984375	179.373449547126
0.91156005859375	0.00359222412109375	179.417699547014
0.907135009765625	0.00311553955078125	179.461949546902
0.9027099609375	0.002650146484375	179.50619954679
0.898284912109375	0.002197265625	179.550449546679
0.89385986328125	0.0017529296875	179.594699546567
0.889434814453125	0.00132080078125	179.638949546455
0.885009765625	0.0008984375	179.683199546344
0.880584716796875	0.000486358642578125	179.727449546232
0.87615966796875	8.4503173828125E-05	179.77169954612
0.871734619140625	-0.0003077392578125	179.815949546008
0.8673095703125	-0.00069091796875	179.860199545897
0.862884521484375	-0.00106414794921875	179.904449545785
0.85845947265625	-0.00142669677734375	179.948699545673
0.854034423828125	-0.00178314208984375	179.992949545561
0.849609375	-0.00213043212890625	180.03719954545
0.845184326171875	-0.00246856689453125	180.081449545338
0.84075927734375	-0.00279876708984375	180.125699545226
0.836334228515625	-0.0031201171875	180.169949545115
0.8319091796875	-0.00343475341796875	180.214199545003
0.827484130859375	-0.00373992919921875	180.258449544891
0.82305908203125	-0.00403839111328125	180.302699544779
0.818634033203125	-0.00432830810546875	180.346949544668
0.814208984375	-0.0046112060546875	180.391199544556
0.809783935546875	-0.0048870849609375	180.435449544444
0.80535888671875	-0.005155029296875	180.479699544333
0.800933837890625	-0.00541595458984375	180.523949544221
0.7965087890625	-0.00566986083984375	180.568199544109
0.792083740234375	-0.00591705322265625	180.612449543997
0.78765869140625	-0.00615692138671875	180.656699543886
0.783233642578125	-0.006365966796875	180.700949543774
0.77880859375	-0.0065948486328125	180.745199543662
0.774383544921875	-0.0068145751953125	180.789449543551
0.76995849609375	-0.0070281982421875	180.833699543439
0.765533447265625	-0.00723876953125	180.877949543327
0.7611083984375	-0.007440185546875	180.922199543215
0.756683349609375	-0.0076385498046875	180.966449543104
0.75225830078125	-0.0078277587890625	181.010699542992
0.747833251953125	-0.0080108642578125	181.05494954288
0.743408203125	-0.0081939697265625	181.099199542768
0.738983154296875	-0.0083648681640625	181.143449542657
0.73455810546875	-0.00853271484375	181.187699542545
0.730133056640625	-0.008697509765625	181.231949542433
0.7257080078125	-0.0088592529296875	181.276199542322
0.721282958984375	-0.009014892578125	181.32044954221
0.71685791015625	-0.00916748046875	181.364699542098
0.712432861328125	-0.00931396484375	181.408949541986
0.7080078125	-0.0094512939453125	181.453199541875
0.703582763671875	-0.009588623046875	181.497449541763
0.69915771484375	-0.0097198486328125	181.541699541651
0.694732666015625	-0.00985107421875	181.58594954154
0.6903076171875	-0.0099761962890625	181.630199541428
0.685882568359375	-0.0100982666015625	181.674449541316
0.68145751953125	-0.0102142333984375	181.718699541204
0.677032470703125	-0.0103271484375	181.762949541093
0.672607421875	-0.0104400634765625	181.807199540981
0.668182373046875	-0.0105499267578125	181.851449540869
0.66375732421875	-0.010662841796875	181.895699540758
0.659332275390625	-0.0107635498046875	181.939949540646
0.6549072265625	-0.0108612060546875	181.984199540534
0.650482177734375	-0.0109527587890625	182.028449540422
0.64605712890625	-0.0110443115234375	182.072699540311
0.641632080078125	-0.0111328125	182.116949540199
0.63720703125	-0.01121826171875	182.161199540087
0.632781982421875	-0.011297607421875	182.205449539975
0.62835693359375	-0.011376953125	182.249699539864
0.623931884765625	-0.0114654541015625	182.293949539752
0.6195068359375	-0.0115509033203125	182.33819953964
0.615081787109375	-0.011627197265625	182.382449539529
0.61065673828125	-0.0117034912109375	182.426699539417
0.606231689453125	-0.011773681640625	182.470949539305
0.601806640625	-0.011846923828125	182.515199539193
0.597381591796875	-0.0119171142578125	182.559449539082
0.59295654296875	-0.011981201171875	182.60369953897
0.588531494140625	-0.01204833984375	182.647949538858
0.5841064453125	-0.012109375	182.692199538747
0.579681396484375	-0.012176513671875	182.736449538635
0.57525634765625	-0.0122406005859375	182.780699538523
0.570831298828125	-0.0123016357421875	182.824949538411
0.56640625	-0.0123626708984375	182.8691995383
0.561981201171875	-0.0124176025390625	182.913449538188
0.55755615234375	-0.0124725341796875	182.957699538076
0.553131103515625	-0.0125244140625	183.001949537964
0.5487060546875	-0.012579345703125	183.046199537853
0.544281005859375	-0.012628173828125	183.090449537741
0.53985595703125	-0.012677001953125	183.134699537629
0.535430908203125	-0.0127288818359375	183.178949537518
0.531005859375	-0.0127777099609375	183.223199537406
0.526580810546875	-0.012823486328125	183.267449537294
0.52215576171875	-0.0128692626953125	183.311699537182
0.517730712890625	-0.0129180908203125	183.355949537071
0.5133056640625	-0.0129638671875	183.400199536959
0.508880615234375	-0.0130096435546875	183.444449536847
0.50445556640625	-0.013055419921875	183.488699536736
0.500030517578125	-0.01309814453125	183.532949536624
0.49560546875	-0.013140869140625	183.577199536512
0.491180419921875	-0.01318359375	183.6214495364
0.48675537109375	-0.013226318359375	183.665699536289
0.482330322265625	-0.01326904296875	183.709949536177
0.4779052734375	-0.013311767578125	183.754199536065
0.473480224609375	-0.0133544921875	183.798449535954
0.46905517578125	-0.0133941650390625	183.842699535842
0.464630126953125	-0.013433837890625	183.88694953573
0.460205078125	-0.0134765625	183.931199535618
0.455780029296875	-0.0135162353515625	183.975449535507
0.45135498046875	-0.013555908203125	184.019699535395
0.446929931640625	-0.0135986328125	184.063949535283
0.4425048828125	-0.0136383056640625	184.108199535171
0.438079833984375	-0.0136749267578125	184.15244953506
0.43365478515625	-0.0137176513671875	184.196699534948
0.429229736328125	-0.0137542724609375	184.240949534836
0.4248046875	-0.0137969970703125	184.285199534725
0.420379638671875	-0.013836669921875	184.329449534613
0.41595458984375	-0.013873291015625	184.373699534501
0.411529541015625	-0.0139129638671875	184.417949534389
0.4071044921875	-0.01395263671875	184.462199534278
0.402679443359375	-0.013995361328125	184.506449534166
0.39825439453125	-0.014031982421875	184.550699534054
0.393829345703125	-0.014068603515625	184.594949533943
0.389404296875	-0.0141082763671875	184.639199533831
0.384979248046875	-0.01414794921875	184.683449533719
0.38055419921875	-0.0141876220703125	184.727699533607
0.376129150390625	-0.014227294921875	184.771949533496
0.3717041015625	-0.0142669677734375	184.816199533384
0.367279052734375	-0.014306640625	184.860449533272
0.36285400390625	-0.0143463134765625	184.904699533161
0.358428955078125	-0.0143890380859375	184.948949533049
0.35400390625	-0.0144287109375	184.993199532937
0.349578857421875	-0.0144683837890625	185.037449532825
0.34515380859375	-0.014508056640625	185.081699532714
0.340728759765625	-0.0145477294921875	185.125949532602
0.3363037109375	-0.014593505859375	185.17019953249
0.331878662109375	-0.0146331787109375	185.214449532378
0.32745361328125	-0.0146759033203125	185.258699532267
0.323028564453125	-0.0147186279296875	185.302949532155
0.318603515625	-0.01475830078125	185.347199532043
0.314178466796875	-0.014801025390625	185.391449531932
0.30975341796875	-0.0148468017578125	185.43569953182
0.305328369140625	-0.014886474609375	185.479949531708
0.3009033203125	-0.01492919921875	185.524199531596
0.296478271484375	-0.0149749755859375	185.568449531485
0.29205322265625	-0.0150146484375	185.612699531373
0.287628173828125	-0.015057373046875	185.656949531261
0.283203125	-0.0150970458984375	185.70119953115
0.278778076171875	-0.0151397705078125	185.745449531038
0.27435302734375	-0.015185546875	185.789699530926
0.269927978515625	-0.015228271484375	185.833949530814
0.2655029296875	-0.01527099609375	185.878199530703
0.261077880859375	-0.015313720703125	185.922449530591
0.25665283203125	-0.0153564453125	185.966699530479
0.252227783203125	-0.015399169921875	186.010949530367
0.247802734375	-0.01544189453125	186.055199530256
0.243377685546875	-0.015484619140625	186.099449530144
0.23895263671875	-0.01552734375	186.143699530032
0.234527587890625	-0.015570068359375	186.187949529921
0.2301025390625	-0.01561279296875	186.232199529809
0.225677490234375	-0.0156524658203125	186.276449529697
0.22125244140625	-0.0156982421875	186.320699529585
0.216827392578125	-0.015740966796875	186.364949529474
0.21240234375	-0.0157867431640625	186.409199529362
0.207977294921875	-0.015826416015625	186.45344952925
0.20355224609375	-0.0158721923828125	186.497699529139
0.199127197265625	-0.01591796875	186.541949529027
0.1947021484375	-0.0159637451171875	186.586199528915
0.190277099609375	-0.0160064697265625	186.630449528803
0.18585205078125	-0.0160491943359375	186.674699528692
0.181427001953125	-0.016094970703125	186.71894952858
0.177001953125	-0.0161376953125	186.763199528468
0.172576904296875	-0.0161865234375	186.807449528357
0.16815185546875	-0.016229248046875	186.851699528245
0.163726806640625	-0.0162750244140625	186.895949528133
0.1593017578125	-0.0163177490234375	186.940199528021
0.154876708984375	-0.016363525390625	186.98444952791
0.15045166015625	-0.01640625	187.028699527798
0.146026611328125	-0.016448974609375	187.072949527686
0.1416015625	-0.016497802734375	187.117199527574
0.137176513671875	-0.01654052734375	187.161449527463
0.13275146484375	-0.01658935546875	187.205699527351
0.128326416015625	-0.0166351318359375	187.249949527239
0.1239013671875	-0.016680908203125	187.294199527128
0.119476318359375	-0.0167266845703125	187.338449527016
0.11505126953125	-0.0167694091796875	187.382699526904
0.110626220703125	-0.0168182373046875	187.426949526792
0.106201171875	-0.016864013671875	187.471199526681
0.101776123046875	-0.0169097900390625	187.515449526569
0.09735107421875	-0.0169586181640625	187.559699526457
0.092926025390625	-0.0170074462890625	187.603949526346
0.0885009765625	-0.01705322265625	187.648199526234
0.084075927734375	-0.0170989990234375	187.692449526122
0.07965087890625	-0.0171478271484375	187.73669952601
0.075225830078125	-0.017193603515625	187.780949525899
0.07080078125	-0.017242431640625	187.825199525787
0.066375732421875	-0.017291259765625	187.869449525675
0.06195068359375	-0.017340087890625	187.913699525564
0.057525634765625	-0.0173919677734375	187.957949525452
0.0531005859375	-0.0174407958984375	188.00219952534
0.048675537109375	-0.01749267578125	188.046449525228
0.04425048828125	-0.0175445556640625	188.090699525117
0.039825439453125	-0.017596435546875	188.134949525005
0.035400390625	-0.0176483154296875	188.179199524893
0.030975341796875	-0.0177001953125	188.223449524781
0.02655029296875	-0.017755126953125	188.26769952467
0.022125244140625	-0.01781005859375	188.311949524558
0.0177001953125	-0.0178619384765625	188.356199524446
0.013275146484375	-0.0179168701171875	188.400449524335
0.00885009765625	-0.0179718017578125	188.444699524223
0.004425048828125	-0.01802978515625	188.488949524111
0	-0.0180877685546875	188.533199523999
0.004425048828125	-0.0171630859375	188.577449523888
0.00885009765625	-0.016278076171875	188.621699523776
0.013275146484375	-0.0154296875	188.665949523664
