Potential applied (V)	WE(1).Current (A)	Time (s)
0.004425048828125	-0.0032635498046875	6.81803898278611
0.00885009765625	-0.00271942138671875	6.90653998256266
0.013275146484375	-0.00220306396484375	6.99504098233922
0.0177001953125	-0.00171112060546875	7.08354198211578
0.022125244140625	-0.001241455078125	7.17204298189233
0.02655029296875	-0.00079193115234375	7.26054398166889
0.030975341796875	-0.000361602783203125	7.34904498144545
0.035400390625	5.084228515625E-05	7.437545981222
0.039825439453125	0.000446136474609375	7.52604698099856
0.04425048828125	0.00082611083984375	7.61454798077511
0.048675537109375	0.00119049072265625	7.70304898055167
0.0531005859375	0.0015399169921875	7.79154998032823
0.057525634765625	0.001876220703125	7.88005098010478
0.06195068359375	0.00219970703125	7.96855197988134
0.066375732421875	0.00250946044921875	8.0570529796579
0.07080078125	0.00280609130859375	8.14555397943445
0.075225830078125	0.003092041015625	8.23405497921101
0.07965087890625	0.00336456298828125	8.32255597898757
0.084075927734375	0.00362701416015625	8.41105697876412
0.0885009765625	0.00388031005859375	8.49955797854068
0.092926025390625	0.00412261962890625	8.58805897831724
0.09735107421875	0.00435577392578125	8.67655997809379
0.101776123046875	0.00457733154296875	8.76506097787035
0.106201171875	0.0047906494140625	8.8535619776469
0.110626220703125	0.00499603271484375	8.94206297742346
0.11505126953125	0.0051953125	9.03056397720002
0.119476318359375	0.00538330078125	9.11906497697657
0.1239013671875	0.0055645751953125	9.20756597675313
0.128326416015625	0.00573883056640625	9.29606697652969
0.13275146484375	0.00590362548828125	9.38456797630624
0.137176513671875	0.00606201171875	9.4730689760828
0.1416015625	0.0062042236328125	9.56156997585936
0.146026611328125	0.00634765625	9.65007097563591
0.15045166015625	0.0064849853515625	9.73857197541247
0.154876708984375	0.0066162109375	9.82707297518903
0.1593017578125	0.0067352294921875	9.91557397496558
0.163726806640625	0.006854248046875	10.0040749747421
0.16815185546875	0.006964111328125	10.0925759745187
0.172576904296875	0.00706787109375	10.1810769742953
0.177001953125	0.0071685791015625	10.2695779740718
0.181427001953125	0.00726318359375	10.3580789738484
0.18585205078125	0.007354736328125	10.4465799736249
0.190277099609375	0.0074432373046875	10.5350809734015
0.1947021484375	0.0075347900390625	10.623581973178
0.199127197265625	0.0076202392578125	10.7120829729546
0.20355224609375	0.0076934814453125	10.8005839727311
0.207977294921875	0.007757568359375	10.8890849725077
0.21240234375	0.0078155517578125	10.9775859722843
0.216827392578125	0.0078826904296875	11.0660869720608
0.22125244140625	0.0079559326171875	11.1545879718374
0.225677490234375	0.008013916015625	11.2430889716139
0.2301025390625	0.008062744140625	11.3315899713905
0.234527587890625	0.0081085205078125	11.420090971167
0.23895263671875	0.008154296875	11.5085919709436
0.243377685546875	0.0081939697265625	11.5970929707202
0.247802734375	0.0082305908203125	11.6855939704967
0.252227783203125	0.0082672119140625	11.7740949702733
0.25665283203125	0.00830078125	11.8625959700498
0.261077880859375	0.008331298828125	11.9510969698264
0.2655029296875	0.00836181640625	12.0395979696029
0.269927978515625	0.00838623046875	12.1280989693795
0.27435302734375	0.00841064453125	12.2165999691561
0.278778076171875	0.00843505859375	12.3051009689326
0.283203125	0.008453369140625	12.3936019687092
0.287628173828125	0.0084747314453125	12.4821029684857
0.29205322265625	0.008489990234375	12.5706039682623
0.296478271484375	0.0085052490234375	12.6591049680388
0.3009033203125	0.0085174560546875	12.7476059678154
0.305328369140625	0.00853271484375	12.8361069675919
0.30975341796875	0.008544921875	12.9246079673685
0.314178466796875	0.0085540771484375	13.0131089671451
0.318603515625	0.008563232421875	13.1016099669216
0.323028564453125	0.0085723876953125	13.1901109666982
0.32745361328125	0.008575439453125	13.2786119664747
0.331878662109375	0.00858154296875	13.3671129662513
0.3363037109375	0.008587646484375	13.4556139660278
0.340728759765625	0.008587646484375	13.5441149658044
0.34515380859375	0.00859375	13.632615965581
0.349578857421875	0.00859375	13.7211169653575
0.35400390625	0.00859375	13.8096179651341
0.358428955078125	0.00859375	13.8981189649106
0.36285400390625	0.00859375	13.9866199646872
0.367279052734375	0.00859375	14.0751209644637
0.3717041015625	0.00859375	14.1636219642403
0.376129150390625	0.008587646484375	14.2521229640168
0.38055419921875	0.008587646484375	14.3406239637934
0.384979248046875	0.0085845947265625	14.42912496357
0.389404296875	0.0085845947265625	14.5176259633465
0.393829345703125	0.0085784912109375	14.6061269631231
0.39825439453125	0.008575439453125	14.6946279628996
0.402679443359375	0.0085723876953125	14.7831289626762
0.4071044921875	0.0085693359375	14.8716299624527
0.411529541015625	0.0085662841796875	14.9601309622293
0.41595458984375	0.0085601806640625	15.0486319620059
0.420379638671875	0.00855712890625	15.1371329617824
0.4248046875	0.008551025390625	15.225633961559
0.429229736328125	0.008544921875	15.3141349613355
0.43365478515625	0.0085418701171875	15.4026359611121
0.438079833984375	0.0085357666015625	15.4911369608886
0.4425048828125	0.0085296630859375	15.5796379606652
0.446929931640625	0.0085235595703125	15.6681389604418
0.45135498046875	0.008514404296875	15.7566399602183
0.455780029296875	0.00850830078125	15.8451409599949
0.460205078125	0.0084991455078125	15.9336419597714
0.464630126953125	0.0084930419921875	16.022142959548
0.46905517578125	0.00848388671875	16.1106439593245
0.473480224609375	0.0084747314453125	16.1991449591011
0.4779052734375	0.0084686279296875	16.2876459588776
0.482330322265625	0.00845947265625	16.3761469586542
0.48675537109375	0.008447265625	16.4646479584308
0.491180419921875	0.0084381103515625	16.5531489582073
0.49560546875	0.008428955078125	16.6416499579839
0.500030517578125	0.008416748046875	16.7301509577604
0.50445556640625	0.0084075927734375	16.818651957537
0.508880615234375	0.0083953857421875	16.9071529573135
0.5133056640625	0.00838623046875	16.9956539570901
0.517730712890625	0.0083740234375	17.0841549568667
0.52215576171875	0.00836181640625	17.1726559566432
0.526580810546875	0.008349609375	17.2611569564198
0.531005859375	0.0083404541015625	17.3496579561963
0.535430908203125	0.0083282470703125	17.4381589559729
0.53985595703125	0.00831298828125	17.5266599557494
0.544281005859375	0.00830078125	17.615160955526
0.5487060546875	0.00828857421875	17.7036619553026
0.553131103515625	0.0082763671875	17.7921629550791
0.55755615234375	0.00826416015625	17.8806639548557
0.561981201171875	0.0082489013671875	17.9691649546322
0.56640625	0.0082366943359375	18.0576659544088
0.570831298828125	0.0082244873046875	18.1461669541853
0.57525634765625	0.0082122802734375	18.2346679539619
0.579681396484375	0.0082000732421875	18.3231689537384
0.5841064453125	0.0081878662109375	18.411669953515
0.588531494140625	0.0081756591796875	18.5001709532916
0.59295654296875	0.0081634521484375	18.5886719530681
0.597381591796875	0.0081512451171875	18.6771729528447
0.601806640625	0.0081390380859375	18.7656739526212
0.606231689453125	0.0081298828125	18.8541749523978
0.61065673828125	0.00811767578125	18.9426759521743
0.615081787109375	0.00810546875	19.0311769519509
0.6195068359375	0.0080963134765625	19.1196779517275
0.623931884765625	0.008087158203125	19.208178951504
0.62835693359375	0.0080780029296875	19.2966799512806
0.632781982421875	0.0080718994140625	19.3851809510571
0.63720703125	0.0080596923828125	19.4736819508337
0.641632080078125	0.008050537109375	19.5621829506102
0.64605712890625	0.00804443359375	19.6506839503868
0.650482177734375	0.0080352783203125	19.7391849501633
0.6549072265625	0.0080291748046875	19.8276859499399
0.659332275390625	0.00802001953125	19.9161869497165
0.66375732421875	0.008013916015625	20.004687949493
0.668182373046875	0.0080078125	20.0931889492696
0.672607421875	0.008001708984375	20.1816899490461
0.677032470703125	0.0079986572265625	20.2701909488227
0.68145751953125	0.0079925537109375	20.3586919485992
0.685882568359375	0.007989501953125	20.4471929483758
0.6903076171875	0.007989501953125	20.5356939481524
0.694732666015625	0.0079864501953125	20.6241949479289
0.69915771484375	0.0079864501953125	20.7126959477055
0.703582763671875	0.0079833984375	20.801196947482
0.7080078125	0.0079833984375	20.8896979472586
0.712432861328125	0.0079864501953125	20.9781989470351
0.71685791015625	0.0079864501953125	21.0666999468117
0.721282958984375	0.007989501953125	21.1552009465883
0.7257080078125	0.0079925537109375	21.2437019463648
0.730133056640625	0.0079986572265625	21.3322029461414
0.73455810546875	0.008001708984375	21.4207039459179
0.738983154296875	0.0080108642578125	21.5092049456945
0.743408203125	0.008013916015625	21.597705945471
0.747833251953125	0.0080230712890625	21.6862069452476
0.75225830078125	0.0080322265625	21.7747079450241
0.756683349609375	0.0080413818359375	21.8632089448007
0.7611083984375	0.008050537109375	21.9517099445773
0.765533447265625	0.008062744140625	22.0402109443538
0.76995849609375	0.008074951171875	22.1287119441304
0.774383544921875	0.0080902099609375	22.2172129439069
0.77880859375	0.00810546875	22.3057139436835
0.783233642578125	0.0081207275390625	22.39421494346
0.78765869140625	0.008135986328125	22.4827159432366
0.792083740234375	0.008154296875	22.5712169430132
0.7965087890625	0.008172607421875	22.6597179427897
0.800933837890625	0.0081939697265625	22.7482189425663
0.80535888671875	0.00821533203125	22.8367199423428
0.809783935546875	0.0082366943359375	22.9252209421194
0.814208984375	0.0082611083984375	23.0137219418959
0.818634033203125	0.00828857421875	23.1022229416725
0.82305908203125	0.00831298828125	23.1907239414491
0.827484130859375	0.0083404541015625	23.2792249412256
0.8319091796875	0.0083709716796875	23.3677259410022
0.836334228515625	0.0084014892578125	23.4562269407787
0.84075927734375	0.00843505859375	23.5447279405553
0.845184326171875	0.0084686279296875	23.6332289403318
0.849609375	0.008502197265625	23.7217299401084
0.854034423828125	0.008538818359375	23.8102309398849
0.85845947265625	0.0085784912109375	23.8987319396615
0.862884521484375	0.0086181640625	23.9872329394381
0.8673095703125	0.0086578369140625	24.0757339392146
0.871734619140625	0.00870361328125	24.1642349389912
0.87615966796875	0.0087493896484375	24.2527359387677
0.880584716796875	0.008795166015625	24.3412369385443
0.885009765625	0.008843994140625	24.4297379383208
0.889434814453125	0.0088958740234375	24.5182389380974
0.89385986328125	0.0089508056640625	24.606739937874
0.898284912109375	0.0090057373046875	24.6952409376505
0.9027099609375	0.009063720703125	24.7837419374271
0.907135009765625	0.0091217041015625	24.8722429372036
0.91156005859375	0.0091827392578125	24.9607439369802
0.915985107421875	0.009246826171875	25.0492449367567
0.92041015625	0.00931396484375	25.1377459365333
0.924835205078125	0.0093780517578125	25.2262469363098
0.92926025390625	0.0094451904296875	25.3147479360864
0.933685302734375	0.009515380859375	25.403248935863
0.9381103515625	0.0095916748046875	25.4917499356395
0.942535400390625	0.00966796875	25.5802509354161
0.94696044921875	0.0097442626953125	25.6687519351926
0.951385498046875	0.0098236083984375	25.7572529349692
0.955810546875	0.009906005859375	25.8457539347457
0.960235595703125	0.0099884033203125	25.9342549345223
0.96466064453125	0.01007080078125	26.0227559342989
0.969085693359375	0.01015625	26.1112569340754
0.9735107421875	0.010247802734375	26.199757933852
0.977935791015625	0.010333251953125	26.2882589336285
0.98236083984375	0.0104248046875	26.3767599334051
0.986785888671875	0.0105194091796875	26.4652609331816
0.9912109375	0.0106170654296875	26.5537619329582
0.995635986328125	0.0107147216796875	26.6422629327348
1.00006103515625	0.0108123779296875	26.7307639325113
0.995635986328125	0.0099639892578125	26.8192649322879
0.9912109375	0.0091766357421875	26.9077659320644
0.986785888671875	0.00843505859375	26.996266931841
0.98236083984375	0.0077423095703125	27.0847679316175
0.977935791015625	0.0070831298828125	27.1732689313941
0.9735107421875	0.00645751953125	27.2617699311706
0.969085693359375	0.005859375	27.3502709309472
0.96466064453125	0.0052886962890625	27.4387719307238
0.960235595703125	0.0047430419921875	27.5272729305003
0.955810546875	0.00422119140625	27.6157739302769
0.951385498046875	0.0037213134765625	27.7042749300534
0.94696044921875	0.00324127197265625	27.79277592983
0.942535400390625	0.00278106689453125	27.8812769296065
0.9381103515625	0.0023394775390625	27.9697779293831
0.933685302734375	0.001910400390625	28.0582789291597
0.92926025390625	0.00150146484375	28.1467799289362
0.924835205078125	0.0011077880859375	28.2352809287128
0.92041015625	0.0007293701171875	28.3237819284893
0.915985107421875	0.000364990234375	28.4122829282659
0.91156005859375	1.4324951171875E-05	28.5007839280424
0.907135009765625	-0.000322723388671875	28.589284927819
0.9027099609375	-0.00064727783203125	28.6777859275956
0.898284912109375	-0.00095916748046875	28.7662869273721
0.89385986328125	-0.00125946044921875	28.8547879271487
0.889434814453125	-0.0015484619140625	28.9432889269252
0.885009765625	-0.0018255615234375	29.0317899267018
0.880584716796875	-0.00209259033203125	29.1202909264783
0.87615966796875	-0.0023486328125	29.2087919262549
0.871734619140625	-0.0025946044921875	29.2972929260314
0.8673095703125	-0.002830810546875	29.385793925808
0.862884521484375	-0.00305755615234375	29.4742949255846
0.85845947265625	-0.00327392578125	29.5627959253611
0.854034423828125	-0.00348236083984375	29.6512969251377
0.849609375	-0.00368133544921875	29.7397979249142
0.845184326171875	-0.0038726806640625	29.8282989246908
0.84075927734375	-0.00405548095703125	29.9167999244673
0.836334228515625	-0.0042303466796875	30.0053009242439
0.8319091796875	-0.00439727783203125	30.0938019240205
0.827484130859375	-0.004556884765625	30.182302923797
0.82305908203125	-0.00470916748046875	30.2708039235736
0.818634033203125	-0.00485443115234375	30.3593049233501
0.814208984375	-0.00499481201171875	30.4478059231267
0.809783935546875	-0.00512603759765625	30.5363069229032
0.80535888671875	-0.005252685546875	30.6248079226798
0.800933837890625	-0.00537200927734375	30.7133089224563
0.7965087890625	-0.00548553466796875	30.8018099222329
0.792083740234375	-0.00559356689453125	30.8903109220095
0.78765869140625	-0.00569671630859375	30.978811921786
0.783233642578125	-0.00579437255859375	31.0673129215626
0.77880859375	-0.0058868408203125	31.1558139213391
0.774383544921875	-0.00597503662109375	31.2443149211157
0.76995849609375	-0.00605987548828125	31.3328159208922
0.765533447265625	-0.00611572265625	31.4213169206688
0.7611083984375	-0.0061920166015625	31.5098179204454
0.756683349609375	-0.00626220703125	31.5983189202219
0.75225830078125	-0.0063323974609375	31.6868199199985
0.747833251953125	-0.0063934326171875	31.775320919775
0.743408203125	-0.00645751953125	31.8638219195516
0.738983154296875	-0.0065093994140625	31.9523229193281
0.73455810546875	-0.0065643310546875	32.0408239191047
0.730133056640625	-0.0066162109375	32.1293249188813
0.7257080078125	-0.0066650390625	32.2178259186578
0.721282958984375	-0.0067138671875	32.3063269184344
0.71685791015625	-0.006756591796875	32.3948279182109
0.712432861328125	-0.0067962646484375	32.4833289179875
0.7080078125	-0.0068359375	32.571829917764
0.703582763671875	-0.00687255859375	32.6603309175406
0.69915771484375	-0.0069061279296875	32.7488319173171
0.694732666015625	-0.006939697265625	32.8373329170937
0.6903076171875	-0.0069732666015625	32.9258339168703
0.685882568359375	-0.0070037841796875	33.0143349166468
0.68145751953125	-0.00703125	33.1028359164234
0.677032470703125	-0.0070587158203125	33.1913369161999
0.672607421875	-0.0070831298828125	33.2798379159765
0.668182373046875	-0.0071014404296875	33.368338915753
0.66375732421875	-0.00712890625	33.4568399155296
0.659332275390625	-0.0071502685546875	33.5453409153062
0.6549072265625	-0.0071746826171875	33.6338419150827
0.650482177734375	-0.007196044921875	33.7223429148593
0.64605712890625	-0.00721435546875	33.8108439146358
0.641632080078125	-0.0072296142578125	33.8993449144124
0.63720703125	-0.0072509765625	33.9878459141889
0.632781982421875	-0.0072662353515625	34.0763469139655
0.62835693359375	-0.007281494140625	34.1648479137421
0.623931884765625	-0.0073028564453125	34.2533489135186
0.6195068359375	-0.007318115234375	34.3418499132952
0.615081787109375	-0.0073333740234375	34.4303509130717
0.61065673828125	-0.0073486328125	34.5188519128483
0.606231689453125	-0.00736083984375	34.6073529126248
0.601806640625	-0.007373046875	34.6958539124014
0.597381591796875	-0.00738525390625	34.7843549121779
0.59295654296875	-0.0073974609375	34.8728559119545
0.588531494140625	-0.00740966796875	34.9613569117311
0.5841064453125	-0.0074188232421875	35.0498579115076
0.579681396484375	-0.0074310302734375	35.1383589112842
0.57525634765625	-0.007440185546875	35.2268599110607
0.570831298828125	-0.007452392578125	35.3153609108373
0.56640625	-0.007464599609375	35.4038619106138
0.561981201171875	-0.007476806640625	35.4923629103904
0.55755615234375	-0.007489013671875	35.580863910167
0.553131103515625	-0.007501220703125	35.6693649099435
0.5487060546875	-0.007513427734375	35.7578659097201
0.544281005859375	-0.0075225830078125	35.8463669094966
0.53985595703125	-0.0075347900390625	35.9348679092732
0.535430908203125	-0.0075469970703125	36.0233689090497
0.531005859375	-0.0075592041015625	36.1118699088263
0.526580810546875	-0.0075714111328125	36.2003709086028
0.52215576171875	-0.0075836181640625	36.2888719083794
0.517730712890625	-0.0075958251953125	36.377372908156
0.5133056640625	-0.007611083984375	36.4658739079325
0.508880615234375	-0.007623291015625	36.5543749077091
0.50445556640625	-0.007635498046875	36.6428759074856
0.500030517578125	-0.007647705078125	36.7313769072622
0.49560546875	-0.0076629638671875	36.8198779070387
0.491180419921875	-0.0076751708984375	36.9083789068153
0.48675537109375	-0.0076904296875	36.9968799065919
0.482330322265625	-0.0077056884765625	37.0853809063684
0.4779052734375	-0.007720947265625	37.173881906145
0.473480224609375	-0.0077362060546875	37.2623829059215
0.46905517578125	-0.00775146484375	37.3508839056981
0.464630126953125	-0.0077667236328125	37.4393849054746
0.460205078125	-0.007781982421875	37.5278859052512
0.455780029296875	-0.0077972412109375	37.6163869050278
0.45135498046875	-0.0078125	37.7048879048043
0.446929931640625	-0.0078277587890625	37.7933889045809
0.4425048828125	-0.0078460693359375	37.8818899043574
0.438079833984375	-0.007861328125	37.970390904134
0.43365478515625	-0.007879638671875	38.0588919039105
0.429229736328125	-0.00789794921875	38.1473929036871
0.4248046875	-0.007916259765625	38.2358939034636
0.420379638671875	-0.0079345703125	38.3243949032402
0.41595458984375	-0.007952880859375	38.4128959030168
0.411529541015625	-0.00797119140625	38.5013969027933
0.4071044921875	-0.0079925537109375	38.5898979025699
0.402679443359375	-0.008013916015625	38.6783989023464
0.39825439453125	-0.0080322265625	38.766899902123
0.393829345703125	-0.008050537109375	38.8554009018995
0.389404296875	-0.0080718994140625	38.9439019016761
0.384979248046875	-0.00809326171875	39.0324029014527
0.38055419921875	-0.0081146240234375	39.1209039012292
0.376129150390625	-0.0081329345703125	39.2094049010058
0.3717041015625	-0.008154296875	39.2979059007823
0.367279052734375	-0.0081756591796875	39.3864069005589
0.36285400390625	-0.0082000732421875	39.4749079003354
0.358428955078125	-0.008221435546875	39.563408900112
0.35400390625	-0.0082427978515625	39.6519098998886
0.349578857421875	-0.0082611083984375	39.7404108996651
0.34515380859375	-0.0082855224609375	39.8289118994417
0.340728759765625	-0.008306884765625	39.9174128992182
0.3363037109375	-0.008331298828125	40.0059138989948
0.331878662109375	-0.0083526611328125	40.0944148987713
0.32745361328125	-0.0083740234375	40.1829158985479
0.323028564453125	-0.0083984375	40.2714168983244
0.318603515625	-0.0084197998046875	40.359917898101
0.314178466796875	-0.0084442138671875	40.4484188978776
0.30975341796875	-0.0084716796875	40.5369198976541
0.305328369140625	-0.0084930419921875	40.6254208974307
0.3009033203125	-0.008514404296875	40.7139218972072
0.296478271484375	-0.008538818359375	40.8024228969838
0.29205322265625	-0.0085601806640625	40.8909238967603
0.287628173828125	-0.0085845947265625	40.9794248965369
0.283203125	-0.00860595703125	41.0679258963135
0.278778076171875	-0.00863037109375	41.15642689609
0.27435302734375	-0.0086517333984375	41.2449278958666
0.269927978515625	-0.0086761474609375	41.3334288956431
0.2655029296875	-0.0087005615234375	41.4219298954197
0.261077880859375	-0.008721923828125	41.5104308951962
0.25665283203125	-0.008746337890625	41.5989318949728
0.252227783203125	-0.008770751953125	41.6874328947493
0.247802734375	-0.008795166015625	41.7759338945259
0.243377685546875	-0.008819580078125	41.8644348943025
0.23895263671875	-0.0088409423828125	41.952935894079
0.234527587890625	-0.0088653564453125	42.0414368938556
0.2301025390625	-0.0088897705078125	42.1299378936321
0.225677490234375	-0.0089141845703125	42.2184388934087
0.22125244140625	-0.0089385986328125	42.3069398931852
0.216827392578125	-0.0089630126953125	42.3954408929618
0.21240234375	-0.008990478515625	42.4839418927384
0.207977294921875	-0.009014892578125	42.5724428925149
0.20355224609375	-0.009039306640625	42.6609438922915
0.199127197265625	-0.0090667724609375	42.749444892068
0.1947021484375	-0.0090911865234375	42.8379458918446
0.190277099609375	-0.0091156005859375	42.9264468916211
0.18585205078125	-0.00914306640625	43.0149478913977
0.181427001953125	-0.00916748046875	43.1034488911743
0.177001953125	-0.009197998046875	43.1919498909508
0.172576904296875	-0.009222412109375	43.2804508907274
0.16815185546875	-0.0092498779296875	43.3689518905039
0.163726806640625	-0.00927734375	43.4574528902805
0.1593017578125	-0.0093048095703125	43.545953890057
0.154876708984375	-0.009332275390625	43.6344548898336
0.15045166015625	-0.0093597412109375	43.7229558896101
0.146026611328125	-0.0093841552734375	43.8114568893867
0.1416015625	-0.00941162109375	43.8999578891633
0.137176513671875	-0.0094390869140625	43.9884588889398
0.13275146484375	-0.0094696044921875	44.0769598887164
0.128326416015625	-0.0095001220703125	44.1654608884929
0.1239013671875	-0.009527587890625	44.2539618882695
0.119476318359375	-0.00955810546875	44.342462888046
0.11505126953125	-0.0095855712890625	44.4309638878226
0.110626220703125	-0.009619140625	44.5194648875992
0.106201171875	-0.0096466064453125	44.6079658873757
0.101776123046875	-0.00968017578125	44.6964668871523
0.09735107421875	-0.009710693359375	44.7849678869288
0.092926025390625	-0.0097442626953125	44.8734688867054
0.0885009765625	-0.0097747802734375	44.9619698864819
0.084075927734375	-0.009808349609375	45.0504708862585
0.07965087890625	-0.009844970703125	45.1389718860351
0.075225830078125	-0.00987548828125	45.2274728858116
0.07080078125	-0.0099090576171875	45.3159738855882
0.066375732421875	-0.0099456787109375	45.4044748853647
0.06195068359375	-0.0099853515625	45.4929758851413
0.057525634765625	-0.0100189208984375	45.5814768849178
0.0531005859375	-0.01005859375	45.6699778846944
0.048675537109375	-0.01009521484375	45.7584788844709
0.04425048828125	-0.0101318359375	45.8469798842475
0.039825439453125	-0.0101715087890625	45.9354808840241
0.035400390625	-0.010211181640625	46.0239818838006
0.030975341796875	-0.0102508544921875	46.1124828835772
0.02655029296875	-0.0102935791015625	46.2009838833537
0.022125244140625	-0.010333251953125	46.2894848831303
0.0177001953125	-0.0103759765625	46.3779858829068
0.013275146484375	-0.010418701171875	46.4664868826834
0.00885009765625	-0.01046142578125	46.55498788246
0.004425048828125	-0.0105072021484375	46.6434888822365
0	-0.010552978515625	46.7319898820131
0.004425048828125	-0.0096527099609375	46.8204908817896
0.00885009765625	-0.0088165283203125	46.9089918815662
0.013275146484375	-0.0080230712890625	46.9974928813427
0.0177001953125	-0.0072784423828125	47.0859938811193
0.022125244140625	-0.0065673828125	47.1744948808958
0.02655029296875	-0.0058929443359375	47.2629958806724
0.030975341796875	-0.0052520751953125	47.351496880449
0.035400390625	-0.0046405029296875	47.4399978802255
0.039825439453125	-0.00405609130859375	47.5284988800021
0.04425048828125	-0.0034979248046875	47.6169998797786
0.048675537109375	-0.0029632568359375	47.7055008795552
0.0531005859375	-0.00245208740234375	47.7940018793317
0.057525634765625	-0.001971435546875	47.8825028791083
0.06195068359375	-0.00150115966796875	47.9710038788849
0.066375732421875	-0.001051025390625	48.0595048786614
0.07080078125	-0.00061920166015625	48.148005878438
0.075225830078125	-0.000204620361328125	48.2365068782145
0.07965087890625	0.00019189453125	48.3250078779911
0.084075927734375	0.00057373046875	48.4135088777676
0.0885009765625	0.00093963623046875	48.5020098775442
0.092926025390625	0.0012908935546875	48.5905108773208
0.09735107421875	0.00162811279296875	48.6790118770973
0.101776123046875	0.001951904296875	48.7675128768739
0.106201171875	0.00226287841796875	48.8560138766504
0.110626220703125	0.00256195068359375	48.944514876427
0.11505126953125	0.002847900390625	49.0330158762035
0.119476318359375	0.00311859130859375	49.1215168759801
0.1239013671875	0.00338104248046875	49.2100178757566
0.128326416015625	0.00363189697265625	49.2985188755332
0.13275146484375	0.00387298583984375	49.3870198753098
0.137176513671875	0.0041033935546875	49.4755208750863
0.1416015625	0.00432464599609375	49.5640218748629
0.146026611328125	0.00453582763671875	49.6525228746394
0.15045166015625	0.0047369384765625	49.741023874416
0.154876708984375	0.00493072509765625	49.8295248741925
0.1593017578125	0.0051171875	49.9180258739691
0.163726806640625	0.0052960205078125	50.0065268737457
0.16815185546875	0.0054669189453125	50.0950278735222
0.172576904296875	0.0056298828125	50.1835288732988
0.177001953125	0.00578460693359375	50.2720298730753
0.181427001953125	0.0059326171875	50.3605308728519
0.18585205078125	0.00607421875	50.4490318726284
0.190277099609375	0.006201171875	50.537532872405
0.1947021484375	0.0063262939453125	50.6260338721816
0.199127197265625	0.0064483642578125	50.7145348719581
0.20355224609375	0.0065643310546875	50.8030358717347
0.207977294921875	0.0066741943359375	50.8915368715112
0.21240234375	0.0067779541015625	50.9800378712878
0.216827392578125	0.0068756103515625	51.0685388710643
0.22125244140625	0.00697021484375	51.1570398708409
0.225677490234375	0.0070587158203125	51.2455408706174
0.2301025390625	0.00714111328125	51.334041870394
0.234527587890625	0.007220458984375	51.4225428701706
0.23895263671875	0.007293701171875	51.5110438699471
0.243377685546875	0.007366943359375	51.5995448697237
0.247802734375	0.0074371337890625	51.6880458695002
0.252227783203125	0.007501220703125	51.7765468692768
0.25665283203125	0.007562255859375	51.8650478690533
0.261077880859375	0.0076202392578125	51.9535488688299
0.2655029296875	0.0076751708984375	52.0420498686065
0.269927978515625	0.00772705078125	52.130550868383
0.27435302734375	0.0077728271484375	52.2190518681596
0.278778076171875	0.0078155517578125	52.3075528679361
0.283203125	0.007855224609375	52.3960538677127
0.287628173828125	0.007891845703125	52.4845548674892
0.29205322265625	0.007928466796875	52.5730558672658
0.296478271484375	0.0079620361328125	52.6615568670423
0.3009033203125	0.00799560546875	52.7500578668189
0.305328369140625	0.0080352783203125	52.8385588665955
0.30975341796875	0.008062744140625	52.927059866372
0.314178466796875	0.0080902099609375	53.0155608661486
0.318603515625	0.0081085205078125	53.1040618659251
0.323028564453125	0.008123779296875	53.1925628657017
0.32745361328125	0.0081512451171875	53.2810638654782
0.331878662109375	0.0081756591796875	53.3695648652548
0.3363037109375	0.008197021484375	53.4580658650314
0.340728759765625	0.008209228515625	53.5465668648079
0.34515380859375	0.0082244873046875	53.6350678645845
0.349578857421875	0.0082366943359375	53.723568864361
0.35400390625	0.008245849609375	53.8120698641376
0.358428955078125	0.0082550048828125	53.9005708639141
0.36285400390625	0.00826416015625	53.9890718636907
0.367279052734375	0.0082733154296875	54.0775728634673
0.3717041015625	0.0082794189453125	54.1660738632438
0.376129150390625	0.00828857421875	54.2545748630204
0.38055419921875	0.0082916259765625	54.3430758627969
0.384979248046875	0.0082977294921875	54.4315768625735
0.389404296875	0.00830078125	54.52007786235
0.393829345703125	0.0083038330078125	54.6085788621266
0.39825439453125	0.008306884765625	54.6970798619031
0.402679443359375	0.0083099365234375	54.7855808616797
0.4071044921875	0.00831298828125	54.8740818614563
0.411529541015625	0.00831298828125	54.9625828612328
0.41595458984375	0.00831298828125	55.0510838610094
0.420379638671875	0.00831298828125	55.1395848607859
0.4248046875	0.00831298828125	55.2280858605625
0.429229736328125	0.00831298828125	55.316586860339
0.43365478515625	0.0083099365234375	55.4050878601156
0.438079833984375	0.0083099365234375	55.4935888598922
0.4425048828125	0.008306884765625	55.5820898596687
0.446929931640625	0.0083038330078125	55.6705908594453
0.45135498046875	0.00830078125	55.7590918592218
0.455780029296875	0.0082977294921875	55.8475928589984
0.460205078125	0.008294677734375	55.9360938587749
0.464630126953125	0.00828857421875	56.0245948585515
0.46905517578125	0.0082855224609375	56.1130958583281
0.473480224609375	0.0082794189453125	56.2015968581046
0.4779052734375	0.008270263671875	56.2900978578812
0.482330322265625	0.00826416015625	56.3785988576577
0.48675537109375	0.008258056640625	56.4670998574343
0.491180419921875	0.008251953125	56.5556008572108
0.49560546875	0.0082427978515625	56.6441018569874
0.500030517578125	0.008233642578125	56.7326028567639
0.50445556640625	0.0082244873046875	56.8211038565405
0.508880615234375	0.0082183837890625	56.9096048563171
0.5133056640625	0.008209228515625	56.9981058560936
0.517730712890625	0.0082000732421875	57.0866068558702
0.52215576171875	0.00819091796875	57.1751078556467
0.526580810546875	0.0081787109375	57.2636088554233
0.531005859375	0.0081695556640625	57.3521098551998
0.535430908203125	0.008160400390625	57.4406108549764
0.53985595703125	0.008148193359375	57.529111854753
0.544281005859375	0.0081390380859375	57.6176128545295
0.5487060546875	0.0081268310546875	57.7061138543061
0.553131103515625	0.00811767578125	57.7946148540826
0.55755615234375	0.00810546875	57.8831158538592
0.561981201171875	0.0080963134765625	57.9716168536357
0.56640625	0.0080841064453125	58.0601178534123
0.570831298828125	0.008074951171875	58.1486188531889
0.57525634765625	0.008062744140625	58.2371198529654
0.579681396484375	0.0080535888671875	58.325620852742
0.5841064453125	0.0080413818359375	58.4141218525185
0.588531494140625	0.0080291748046875	58.5026228522951
0.59295654296875	0.0080169677734375	58.5911238520716
0.597381591796875	0.0080078125	58.6796248518482
0.601806640625	0.0079986572265625	58.7681258516247
0.606231689453125	0.0079864501953125	58.8566268514013
0.61065673828125	0.007977294921875	58.9451278511779
0.615081787109375	0.0079681396484375	59.0336288509544
0.6195068359375	0.007958984375	59.122129850731
0.623931884765625	0.0079498291015625	59.2106308505075
0.62835693359375	0.0079437255859375	59.2991318502841
0.632781982421875	0.0079376220703125	59.3876328500606
0.63720703125	0.007928466796875	59.4761338498372
0.641632080078125	0.0079193115234375	59.5646348496138
0.64605712890625	0.0079132080078125	59.6531358493903
0.650482177734375	0.007904052734375	59.7416368491669
0.6549072265625	0.00789794921875	59.8301378489434
0.659332275390625	0.007891845703125	59.91863884872
0.66375732421875	0.0078857421875	60.0071398484965
0.668182373046875	0.007879638671875	60.0956408482731
0.672607421875	0.0078765869140625	60.1841418480496
0.677032470703125	0.00787353515625	60.2726428478262
0.68145751953125	0.0078704833984375	60.3611438476028
0.685882568359375	0.007867431640625	60.4496448473793
0.6903076171875	0.0078643798828125	60.5381458471559
0.694732666015625	0.007861328125	60.6266468469324
0.69915771484375	0.007861328125	60.715147846709
0.703582763671875	0.007861328125	60.8036488464855
0.7080078125	0.007861328125	60.8921498462621
0.712432861328125	0.0078643798828125	60.9806508460387
0.71685791015625	0.0078643798828125	61.0691518458152
0.721282958984375	0.007867431640625	61.1576528455918
0.7257080078125	0.0078704833984375	61.2461538453683
0.730133056640625	0.0078765869140625	61.3346548451449
0.73455810546875	0.007879638671875	61.4231558449214
0.738983154296875	0.0078857421875	61.511656844698
0.743408203125	0.0078887939453125	61.6001578444746
0.747833251953125	0.00789794921875	61.6886588442511
0.75225830078125	0.007904052734375	61.7771598440277
0.756683349609375	0.0079132080078125	61.8656608438042
0.7611083984375	0.0079254150390625	61.9541618435808
0.765533447265625	0.0079345703125	62.0426628433573
0.76995849609375	0.00794677734375	62.1311638431339
0.774383544921875	0.007958984375	62.2196648429104
0.77880859375	0.00797119140625	62.308165842687
0.783233642578125	0.0079864501953125	62.3966668424636
0.78765869140625	0.008001708984375	62.4851678422401
0.792083740234375	0.0080169677734375	62.5736688420167
0.7965087890625	0.0080352783203125	62.6621698417932
0.800933837890625	0.0080535888671875	62.7506708415698
0.80535888671875	0.008074951171875	62.8391718413463
0.809783935546875	0.0080963134765625	62.9276728411229
0.814208984375	0.00811767578125	63.0161738408995
0.818634033203125	0.0081390380859375	63.104674840676
0.82305908203125	0.0081634521484375	63.1931758404526
0.827484130859375	0.00819091796875	63.2816768402291
0.8319091796875	0.0082183837890625	63.3701778400057
0.836334228515625	0.008245849609375	63.4586788397822
0.84075927734375	0.0082733154296875	63.5471798395588
0.845184326171875	0.008306884765625	63.6356808393354
0.849609375	0.00833740234375	63.7241818391119
0.854034423828125	0.0083740234375	63.8126828388885
0.85845947265625	0.0084075927734375	63.901183838665
0.862884521484375	0.0084442138671875	63.9896848384416
0.8673095703125	0.0084808349609375	64.0781858382181
0.871734619140625	0.0085235595703125	64.1666868379947
0.87615966796875	0.008563232421875	64.2551878377712
0.880584716796875	0.00860595703125	64.3436888375478
0.885009765625	0.0086517333984375	64.4321898373244
0.889434814453125	0.008697509765625	64.5206908371009
0.89385986328125	0.008746337890625	64.6091918368775
0.898284912109375	0.0087982177734375	64.697692836654
0.9027099609375	0.00885009765625	64.7861938364306
0.907135009765625	0.008905029296875	64.8746948362071
0.91156005859375	0.0089630126953125	64.9631958359837
0.915985107421875	0.00902099609375	65.0516968357603
0.92041015625	0.00908203125	65.1401978355368
0.924835205078125	0.00914306640625	65.2286988353134
0.92926025390625	0.009210205078125	65.3171998350899
0.933685302734375	0.00927734375	65.4057008348665
0.9381103515625	0.0093505859375	65.494201834643
0.942535400390625	0.009417724609375	65.5827028344196
0.94696044921875	0.009490966796875	65.6712038341961
0.951385498046875	0.0095672607421875	65.7597048339727
0.955810546875	0.0096435546875	65.8482058337493
0.960235595703125	0.0097259521484375	65.9367068335258
0.96466064453125	0.009808349609375	66.0252078333024
0.969085693359375	0.009893798828125	66.1137088330789
0.9735107421875	0.0099761962890625	66.2022098328555
0.977935791015625	0.010064697265625	66.290710832632
0.98236083984375	0.0101531982421875	66.3792118324086
0.986785888671875	0.010247802734375	66.4677128321852
0.9912109375	0.0103424072265625	66.5562138319617
0.995635986328125	0.01043701171875	66.6447148317383
1.00006103515625	0.01053466796875	66.7332158315148
0.995635986328125	0.0096832275390625	66.8217168312914
0.9912109375	0.0088958740234375	66.9102178310679
0.986785888671875	0.008160400390625	66.9987188308445
0.98236083984375	0.0074676513671875	67.0872198306211
0.977935791015625	0.0068084716796875	67.1757208303976
0.9735107421875	0.0061859130859375	67.2642218301742
0.969085693359375	0.0055908203125	67.3527228299507
0.96466064453125	0.005023193359375	67.4412238297273
0.960235595703125	0.004483642578125	67.5297248295038
0.955810546875	0.00396575927734375	67.6182258292804
0.951385498046875	0.0034698486328125	67.7067268290569
0.94696044921875	0.00299468994140625	67.7952278288335
0.942535400390625	0.00253936767578125	67.8837288286101
0.9381103515625	0.00210235595703125	67.9722298283866
0.933685302734375	0.001678466796875	68.0607308281632
0.92926025390625	0.0012744140625	68.1492318279397
0.924835205078125	0.00088653564453125	68.2377328277163
0.92041015625	0.0005126953125	68.3262338274928
0.915985107421875	0.000154205322265625	68.4147348272694
0.91156005859375	-0.000190704345703125	68.503235827046
0.907135009765625	-0.0005224609375	68.5917368268225
0.9027099609375	-0.00084197998046875	68.6802378265991
0.898284912109375	-0.0011480712890625	68.7687388263756
0.89385986328125	-0.00144317626953125	68.8572398261522
0.889434814453125	-0.00172637939453125	68.9457408259287
0.885009765625	-0.0019989013671875	69.0342418257053
0.880584716796875	-0.00225982666015625	69.1227428254819
0.87615966796875	-0.0025103759765625	69.2112438252584
0.871734619140625	-0.00275146484375	69.299744825035
0.8673095703125	-0.002982177734375	69.3882458248115
0.862884521484375	-0.0032037353515625	69.4767468245881
0.85845947265625	-0.0034149169921875	69.5652478243646
0.854034423828125	-0.0036181640625	69.6537488241412
0.849609375	-0.0038134765625	69.7422498239177
0.845184326171875	-0.00399932861328125	69.8307508236943
0.84075927734375	-0.00417633056640625	69.9192518234709
0.836334228515625	-0.0043463134765625	70.0077528232474
0.8319091796875	-0.00450897216796875	70.096253823024
0.827484130859375	-0.00466339111328125	70.1847548228005
0.82305908203125	-0.0048114013671875	70.2732558225771
0.818634033203125	-0.00495269775390625	70.3617568223536
0.814208984375	-0.00508697509765625	70.4502578221302
0.809783935546875	-0.00521453857421875	70.5387588219068
0.80535888671875	-0.0053363037109375	70.6272598216833
0.800933837890625	-0.00545257568359375	70.7157608214599
0.7965087890625	-0.00556243896484375	70.8042618212364
0.792083740234375	-0.00566741943359375	70.892762821013
0.78765869140625	-0.00576629638671875	70.9812638207895
0.783233642578125	-0.0058599853515625	71.0697648205661
0.77880859375	-0.0059478759765625	71.1582658203426
0.774383544921875	-0.00603302001953125	71.2467668201192
0.76995849609375	-0.00609130859375	71.3352678198958
0.765533447265625	-0.0061676025390625	71.4237688196723
0.7611083984375	-0.0062408447265625	71.5122698194489
0.756683349609375	-0.0063079833984375	71.6007708192254
0.75225830078125	-0.0063720703125	71.689271819002
0.747833251953125	-0.00643310546875	71.7777728187785
0.743408203125	-0.0064910888671875	71.8662738185551
0.738983154296875	-0.00654296875	71.9547748183317
0.73455810546875	-0.0065948486328125	72.0432758181082
0.730133056640625	-0.0066436767578125	72.1317768178848
0.7257080078125	-0.0066925048828125	72.2202778176613
0.721282958984375	-0.0067352294921875	72.3087788174379
0.71685791015625	-0.0067779541015625	72.3972798172144
0.712432861328125	-0.006817626953125	72.485780816991
0.7080078125	-0.006854248046875	72.5742818167676
0.703582763671875	-0.0068878173828125	72.6627828165441
0.69915771484375	-0.00692138671875	72.7512838163207
0.694732666015625	-0.006951904296875	72.8397848160972
0.6903076171875	-0.0069793701171875	72.9282858158738
0.685882568359375	-0.0070068359375	73.0167868156503
0.68145751953125	-0.007037353515625	73.1052878154269
0.677032470703125	-0.007061767578125	73.1937888152034
0.672607421875	-0.007086181640625	73.28228981498
0.668182373046875	-0.007110595703125	73.3707908147566
0.66375732421875	-0.0071319580078125	73.4592918145331
0.659332275390625	-0.0071502685546875	73.5477928143097
0.6549072265625	-0.007171630859375	73.6362938140862
0.650482177734375	-0.0071868896484375	73.7247948138628
0.64605712890625	-0.0072052001953125	73.8132958136393
0.641632080078125	-0.0072265625	73.9017968134159
0.63720703125	-0.007244873046875	73.9902978131925
0.632781982421875	-0.00726318359375	74.078798812969
0.62835693359375	-0.007275390625	74.1672998127456
0.623931884765625	-0.007293701171875	74.2558008125221
0.6195068359375	-0.0073089599609375	74.3443018122987
0.615081787109375	-0.00732421875	74.4328028120752
0.61065673828125	-0.00733642578125	74.5213038118518
0.606231689453125	-0.0073486328125	74.6098048116284
0.601806640625	-0.0073638916015625	74.6983058114049
0.597381591796875	-0.0073760986328125	74.7868068111815
0.59295654296875	-0.0073883056640625	74.875307810958
0.588531494140625	-0.0074005126953125	74.9638088107346
0.5841064453125	-0.0074066162109375	75.0523098105111
0.579681396484375	-0.0074188232421875	75.1408108102877
0.57525634765625	-0.007427978515625	75.2293118100642
0.570831298828125	-0.007440185546875	75.3178128098408
0.56640625	-0.007452392578125	75.4063138096174
0.561981201171875	-0.0074615478515625	75.4948148093939
0.55755615234375	-0.0074737548828125	75.5833158091705
0.553131103515625	-0.00748291015625	75.671816808947
0.5487060546875	-0.0074951171875	75.7603178087236
0.544281005859375	-0.0075042724609375	75.8488188085001
0.53985595703125	-0.0075164794921875	75.9373198082767
0.535430908203125	-0.0075286865234375	76.0258208080533
0.531005859375	-0.0075408935546875	76.1143218078298
0.526580810546875	-0.0075531005859375	76.2028228076064
0.52215576171875	-0.0075653076171875	76.2913238073829
0.517730712890625	-0.0075775146484375	76.3798248071595
0.5133056640625	-0.0075897216796875	76.468325806936
0.508880615234375	-0.00760498046875	76.5568268067126
0.50445556640625	-0.0076171875	76.6453278064891
0.500030517578125	-0.00762939453125	76.7338288062657
0.49560546875	-0.0076446533203125	76.8223298060423
0.491180419921875	-0.0076568603515625	76.9108308058188
0.48675537109375	-0.007672119140625	76.9993318055954
0.482330322265625	-0.0076873779296875	77.0878328053719
0.4779052734375	-0.0076995849609375	77.1763338051485
0.473480224609375	-0.00771484375	77.264834804925
0.46905517578125	-0.0077301025390625	77.3533358047016
0.464630126953125	-0.007745361328125	77.4418368044782
0.460205078125	-0.0077606201171875	77.5303378042547
0.455780029296875	-0.00777587890625	77.6188388040313
0.45135498046875	-0.007794189453125	77.7073398038078
0.446929931640625	-0.0078094482421875	77.7958408035844
0.4425048828125	-0.00782470703125	77.8843418033609
0.438079833984375	-0.007843017578125	77.9728428031375
0.43365478515625	-0.0078582763671875	78.0613438029141
0.429229736328125	-0.0078765869140625	78.1498448026906
0.4248046875	-0.0078948974609375	78.2383458024672
0.420379638671875	-0.0079132080078125	78.3268468022437
0.41595458984375	-0.0079315185546875	78.4153478020203
0.411529541015625	-0.007952880859375	78.5038488017968
0.4071044921875	-0.00797119140625	78.5923498015734
0.402679443359375	-0.007989501953125	78.6808508013499
0.39825439453125	-0.0080108642578125	78.7693518011265
0.393829345703125	-0.0080322265625	78.8578528009031
0.389404296875	-0.008050537109375	78.9463538006796
0.384979248046875	-0.0080718994140625	79.0348548004562
0.38055419921875	-0.00809326171875	79.1233558002327
0.376129150390625	-0.0081146240234375	79.2118568000093
0.3717041015625	-0.008135986328125	79.3003577997858
0.367279052734375	-0.008154296875	79.3888587995624
0.36285400390625	-0.0081787109375	79.477359799339
0.358428955078125	-0.0082000732421875	79.5658607991155
0.35400390625	-0.008221435546875	79.6543617988921
0.349578857421875	-0.0082427978515625	79.7428627986686
0.34515380859375	-0.00826416015625	79.8313637984452
0.340728759765625	-0.0082855224609375	79.9198647982217
0.3363037109375	-0.008306884765625	80.0083657979983
0.331878662109375	-0.008331298828125	80.0968667977749
0.32745361328125	-0.0083526611328125	80.1853677975514
0.323028564453125	-0.0083770751953125	80.273868797328
0.318603515625	-0.0083984375	80.3623697971045
0.314178466796875	-0.0084228515625	80.4508707968811
0.30975341796875	-0.008447265625	80.5393717966576
0.305328369140625	-0.0084716796875	80.6278727964342
0.3009033203125	-0.0084930419921875	80.7163737962107
0.296478271484375	-0.0085174560546875	80.8048747959873
0.29205322265625	-0.0085418701171875	80.8933757957639
0.287628173828125	-0.008563232421875	80.9818767955404
0.283203125	-0.0085845947265625	81.070377795317
0.278778076171875	-0.0086090087890625	81.1588787950935
0.27435302734375	-0.00863037109375	81.2473797948701
0.269927978515625	-0.00865478515625	81.3358807946466
0.2655029296875	-0.00867919921875	81.4243817944232
0.261077880859375	-0.0087005615234375	81.5128827941998
0.25665283203125	-0.0087249755859375	81.6013837939763
0.252227783203125	-0.0087493896484375	81.6898847937529
0.247802734375	-0.0087738037109375	81.7783857935294
0.243377685546875	-0.008795166015625	81.866886793306
0.23895263671875	-0.008819580078125	81.9553877930825
0.234527587890625	-0.008843994140625	82.0438887928591
0.2301025390625	-0.0088653564453125	82.1323897926356
0.225677490234375	-0.008892822265625	82.2208907924122
0.22125244140625	-0.008917236328125	82.3093917921888
0.216827392578125	-0.008941650390625	82.3978927919653
0.21240234375	-0.008966064453125	82.4863937917419
0.207977294921875	-0.008990478515625	82.5748947915184
0.20355224609375	-0.0090179443359375	82.663395791295
0.199127197265625	-0.0090423583984375	82.7518967910715
0.1947021484375	-0.0090667724609375	82.8403977908481
0.190277099609375	-0.00909423828125	82.9288987906247
0.18585205078125	-0.00911865234375	83.0173997904012
0.181427001953125	-0.0091461181640625	83.1059007901778
0.177001953125	-0.009173583984375	83.1944017899543
0.172576904296875	-0.009197998046875	83.2829027897309
0.16815185546875	-0.0092254638671875	83.3714037895074
0.163726806640625	-0.0092529296875	83.459904789284
0.1593017578125	-0.0092803955078125	83.5484057890606
0.154876708984375	-0.009307861328125	83.6369067888371
0.15045166015625	-0.0093353271484375	83.7254077886137
0.146026611328125	-0.0093597412109375	83.8139087883902
0.1416015625	-0.00938720703125	83.9024097881668
0.137176513671875	-0.009417724609375	83.9909107879433
0.13275146484375	-0.0094451904296875	84.0794117877199
0.128326416015625	-0.0094757080078125	84.1679127874964
0.1239013671875	-0.009503173828125	84.256413787273
0.119476318359375	-0.00953369140625	84.3449147870496
0.11505126953125	-0.0095611572265625	84.4334157868261
0.110626220703125	-0.0095916748046875	84.5219167866027
0.106201171875	-0.009625244140625	84.6104177863792
0.101776123046875	-0.00965576171875	84.6989187861558
0.09735107421875	-0.0096893310546875	84.7874197859323
0.092926025390625	-0.009722900390625	84.8759207857089
0.0885009765625	-0.0097564697265625	84.9644217854855
0.084075927734375	-0.0097900390625	85.052922785262
0.07965087890625	-0.0098236083984375	85.1414237850386
0.075225830078125	-0.009857177734375	85.2299247848151
0.07080078125	-0.0098907470703125	85.3184257845917
0.066375732421875	-0.0099273681640625	85.4069267843682
0.06195068359375	-0.0099639892578125	85.4954277841448
0.057525634765625	-0.0100006103515625	85.5839287839214
0.0531005859375	-0.0100372314453125	85.6724297836979
0.048675537109375	-0.0100738525390625	85.7609307834745
0.04425048828125	-0.010113525390625	85.849431783251
0.039825439453125	-0.0101531982421875	85.9379327830276
0.035400390625	-0.01019287109375	86.0264337828041
0.030975341796875	-0.010235595703125	86.1149347825807
0.02655029296875	-0.0102752685546875	86.2034357823572
0.022125244140625	-0.0103179931640625	86.2919367821338
0.0177001953125	-0.0103607177734375	86.3804377819104
0.013275146484375	-0.0104034423828125	86.4689387816869
0.00885009765625	-0.01044921875	86.5574397814635
0.004425048828125	-0.0104949951171875	86.64594078124
0	-0.010540771484375	86.7344417810166
0.004425048828125	-0.0096405029296875	86.8229427807931
0.00885009765625	-0.0088043212890625	86.9114437805697
0.013275146484375	-0.008013916015625	86.9999447803463
0.0177001953125	-0.007269287109375	87.0884457801228
0.022125244140625	-0.0065582275390625	87.1769467798994
0.02655029296875	-0.0058868408203125	87.2654477796759
0.030975341796875	-0.005242919921875	87.3539487794525
0.035400390625	-0.0046343994140625	87.442449779229
0.039825439453125	-0.004051513671875	87.5309507790056
0.04425048828125	-0.0034930419921875	87.6194517787821
0.048675537109375	-0.002960205078125	87.7079527785587
0.0531005859375	-0.00244903564453125	87.7964537783353
0.057525634765625	-0.0019696044921875	87.8849547781118
0.06195068359375	-0.00149993896484375	87.9734557778884
0.066375732421875	-0.0010504150390625	88.0619567776649
0.07080078125	-0.000618896484375	88.1504577774415
0.075225830078125	-0.000205108642578125	88.238958777218
0.07965087890625	0.000190216064453125	88.3274597769946
0.084075927734375	0.0005718994140625	88.4159607767712
0.0885009765625	0.00093780517578125	88.5044617765477
0.092926025390625	0.0012890625	88.5929627763243
0.09735107421875	0.0016259765625	88.6814637761008
0.101776123046875	0.00194976806640625	88.7699647758774
0.106201171875	0.00226104736328125	88.8584657756539
0.110626220703125	0.00255889892578125	88.9469667754305
0.11505126953125	0.00284423828125	89.0354677752071
0.119476318359375	0.00311492919921875	89.1239687749836
0.1239013671875	0.00337738037109375	89.2124697747602
0.128326416015625	0.00362823486328125	89.3009707745367
0.13275146484375	0.00386932373046875	89.3894717743133
0.137176513671875	0.004100341796875	89.4779727740898
0.1416015625	0.00432159423828125	89.5664737738664
0.146026611328125	0.004532470703125	89.6549747736429
0.15045166015625	0.0047308349609375	89.7434757734195
0.154876708984375	0.00492095947265625	89.8319767731961
0.1593017578125	0.0051080322265625	89.9204777729726
0.163726806640625	0.0052886962890625	90.0089787727492
0.16815185546875	0.00545867919921875	90.0974797725257
0.172576904296875	0.00562255859375	90.1859807723023
0.177001953125	0.00577850341796875	90.2744817720788
0.181427001953125	0.005926513671875	90.3629827718554
0.18585205078125	0.006068115234375	90.451483771632
0.190277099609375	0.006195068359375	90.5399847714085
0.1947021484375	0.0063232421875	90.6284857711851
0.199127197265625	0.0064422607421875	90.7169867709616
0.20355224609375	0.0065582275390625	90.8054877707382
0.207977294921875	0.0066680908203125	90.8939887705147
0.21240234375	0.0067718505859375	90.9824897702913
0.216827392578125	0.0068695068359375	91.0709907700679
0.22125244140625	0.006964111328125	91.1594917698444
0.225677490234375	0.0070526123046875	91.247992769621
0.2301025390625	0.0071380615234375	91.3364937693975
0.234527587890625	0.00721435546875	91.4249947691741
0.23895263671875	0.0072906494140625	91.5134957689506
0.243377685546875	0.0073638916015625	91.6019967687272
0.247802734375	0.00743408203125	91.6904977685037
0.252227783203125	0.0074981689453125	91.7789987682803
0.25665283203125	0.00755615234375	91.8674997680569
0.261077880859375	0.0076171875	91.9560007678334
0.2655029296875	0.0076690673828125	92.04450176761
0.269927978515625	0.007720947265625	92.1330027673865
0.27435302734375	0.0077667236328125	92.2215037671631
0.278778076171875	0.0078094482421875	92.3100047669396
0.283203125	0.0078460693359375	92.3985057667162
0.287628173828125	0.0078857421875	92.4870067664928
0.29205322265625	0.0079345703125	92.5755077662693
0.296478271484375	0.00797119140625	92.6640087660459
0.3009033203125	0.0079986572265625	92.7525097658224
0.305328369140625	0.0080230712890625	92.841010765599
0.30975341796875	0.00804443359375	92.9295117653755
0.314178466796875	0.008074951171875	93.0180127651521
0.318603515625	0.00810546875	93.1065137649286
0.323028564453125	0.0081329345703125	93.1950147647052
0.32745361328125	0.0081512451171875	93.2835157644818
0.331878662109375	0.0081695556640625	93.3720167642583
0.3363037109375	0.008184814453125	93.4605177640349
0.340728759765625	0.0082000732421875	93.5490187638114
0.34515380859375	0.0082122802734375	93.637519763588
0.349578857421875	0.0082244873046875	93.7260207633645
0.35400390625	0.008233642578125	93.8145217631411
0.358428955078125	0.0082427978515625	93.9030227629177
0.36285400390625	0.008251953125	93.9915237626942
0.367279052734375	0.0082611083984375	94.0800247624708
0.3717041015625	0.0082672119140625	94.1685257622473
0.376129150390625	0.0082733154296875	94.2570267620239
0.38055419921875	0.0082763671875	94.3455277618004
0.384979248046875	0.008282470703125	94.434028761577
0.389404296875	0.0082855224609375	94.5225297613536
0.393829345703125	0.00828857421875	94.6110307611301
0.39825439453125	0.0082916259765625	94.6995317609067
0.402679443359375	0.0082916259765625	94.7880327606832
0.4071044921875	0.008294677734375	94.8765337604598
0.411529541015625	0.008294677734375	94.9650347602363
0.41595458984375	0.008294677734375	95.0535357600129
0.420379638671875	0.008294677734375	95.1420367597894
0.4248046875	0.0082916259765625	95.230537759566
0.429229736328125	0.0082916259765625	95.3190387593426
0.43365478515625	0.00828857421875	95.4075397591191
0.438079833984375	0.00828857421875	95.4960407588957
0.4425048828125	0.0082855224609375	95.5845417586722
0.446929931640625	0.008282470703125	95.6730427584488
0.45135498046875	0.0082763671875	95.7615437582253
0.455780029296875	0.0082733154296875	95.8500447580019
0.460205078125	0.008270263671875	95.9385457577785
0.464630126953125	0.00826416015625	96.027046757555
0.46905517578125	0.008258056640625	96.1155477573316
0.473480224609375	0.008251953125	96.2040487571081
0.4779052734375	0.008245849609375	96.2925497568847
0.482330322265625	0.0082366943359375	96.3810507566612
0.48675537109375	0.0082305908203125	96.4695517564378
0.491180419921875	0.008221435546875	96.5580527562144
0.49560546875	0.00821533203125	96.6465537559909
0.500030517578125	0.0082061767578125	96.7350547557675
0.50445556640625	0.008197021484375	96.823555755544
0.508880615234375	0.0081878662109375	96.9120567553206
0.5133056640625	0.0081787109375	97.0005577550971
0.517730712890625	0.0081695556640625	97.0890587548737
0.52215576171875	0.008160400390625	97.1775597546502
0.526580810546875	0.0081512451171875	97.2660607544268
0.531005859375	0.0081390380859375	97.3545617542034
0.535430908203125	0.0081298828125	97.4430627539799
0.53985595703125	0.0081207275390625	97.5315637537565
0.544281005859375	0.0081085205078125	97.620064753533
0.5487060546875	0.0080963134765625	97.7085657533096
0.553131103515625	0.0080841064453125	97.7970667530861
0.55755615234375	0.008074951171875	97.8855677528627
0.561981201171875	0.008062744140625	97.9740687526393
0.56640625	0.0080535888671875	98.0625697524158
0.570831298828125	0.0080413818359375	98.1510707521924
0.57525634765625	0.0080322265625	98.2395717519689
0.579681396484375	0.00802001953125	98.3280727517455
0.5841064453125	0.0080108642578125	98.416573751522
0.588531494140625	0.00799560546875	98.5050747512986
0.59295654296875	0.0079864501953125	98.5935757510752
0.597381591796875	0.0079742431640625	98.6820767508517
0.601806640625	0.007965087890625	98.7705777506283
0.606231689453125	0.007952880859375	98.8590787504048
0.61065673828125	0.0079437255859375	98.9475797501814
0.615081787109375	0.0079345703125	99.0360807499579
0.6195068359375	0.0079254150390625	99.1245817497345
0.623931884765625	0.007916259765625	99.213082749511
0.62835693359375	0.00791015625	99.3015837492876
0.632781982421875	0.0079010009765625	99.3900847490642
0.63720703125	0.007891845703125	99.4785857488407
0.641632080078125	0.0078857421875	99.5670867486173
0.64605712890625	0.0078765869140625	99.6555877483938
0.650482177734375	0.0078704833984375	99.7440887481704
0.6549072265625	0.0078643798828125	99.8325897479469
0.659332275390625	0.0078582763671875	99.9210907477235
0.66375732421875	0.0078521728515625	100.0095917475
0.668182373046875	0.0078460693359375	100.098092747277
0.672607421875	0.007843017578125	100.186593747053
0.677032470703125	0.0078369140625	100.27509474683
0.68145751953125	0.0078338623046875	100.363595746606
0.685882568359375	0.007830810546875	100.452096746383
0.6903076171875	0.0078277587890625	100.540597746159
0.694732666015625	0.00782470703125	100.629098745936
0.69915771484375	0.00782470703125	100.717599745713
0.703582763671875	0.00782470703125	100.806100745489
0.7080078125	0.00782470703125	100.894601745266
0.712432861328125	0.00782470703125	100.983102745042
0.71685791015625	0.0078277587890625	101.071603744819
0.721282958984375	0.0078277587890625	101.160104744595
0.7257080078125	0.007830810546875	101.248605744372
0.730133056640625	0.0078338623046875	101.337106744148
0.73455810546875	0.0078399658203125	101.425607743925
0.738983154296875	0.0078460693359375	101.514108743702
0.743408203125	0.00784912109375	101.602609743478
0.747833251953125	0.0078582763671875	101.691110743255
0.75225830078125	0.0078643798828125	101.779611743031
0.756683349609375	0.00787353515625	101.868112742808
0.7611083984375	0.0078826904296875	101.956613742584
0.765533447265625	0.0078948974609375	102.045114742361
0.76995849609375	0.007904052734375	102.133615742137
0.774383544921875	0.007916259765625	102.222116741914
0.77880859375	0.007928466796875	102.310617741691
0.783233642578125	0.0079437255859375	102.399118741467
0.78765869140625	0.007958984375	102.487619741244
0.792083740234375	0.0079742431640625	102.57612074102
0.7965087890625	0.0079925537109375	102.664621740797
0.800933837890625	0.0080078125	102.753122740573
0.80535888671875	0.0080291748046875	102.84162374035
0.809783935546875	0.008050537109375	102.930124740126
0.814208984375	0.0080718994140625	103.018625739903
0.818634033203125	0.00809326171875	103.10712673968
0.82305908203125	0.00811767578125	103.195627739456
0.827484130859375	0.00814208984375	103.284128739233
0.8319091796875	0.0081695556640625	103.372629739009
0.836334228515625	0.008197021484375	103.461130738786
0.84075927734375	0.0082244873046875	103.549631738562
0.845184326171875	0.0082550048828125	103.638132738339
0.849609375	0.0082855224609375	103.726633738115
0.854034423828125	0.008319091796875	103.815134737892
0.85845947265625	0.0083526611328125	103.903635737669
0.862884521484375	0.0083892822265625	103.992136737445
0.8673095703125	0.0084259033203125	104.080637737222
0.871734619140625	0.008465576171875	104.169138736998
0.87615966796875	0.0085052490234375	104.257639736775
0.880584716796875	0.008551025390625	104.346140736551
0.885009765625	0.00859375	104.434641736328
0.889434814453125	0.0086395263671875	104.523142736104
0.89385986328125	0.008685302734375	104.611643735881
0.898284912109375	0.0087371826171875	104.700144735658
0.9027099609375	0.0087890625	104.788645735434
0.907135009765625	0.008843994140625	104.877146735211
0.91156005859375	0.00889892578125	104.965647734987
0.915985107421875	0.0089569091796875	105.054148734764
0.92041015625	0.009014892578125	105.14264973454
0.924835205078125	0.0090789794921875	105.231150734317
0.92926025390625	0.00914306640625	105.319651734093
0.933685302734375	0.009210205078125	105.40815273387
0.9381103515625	0.009283447265625	105.496653733647
0.942535400390625	0.0093536376953125	105.585154733423
0.94696044921875	0.009423828125	105.6736557332
0.951385498046875	0.0094970703125	105.762156732976
0.955810546875	0.0095733642578125	105.850657732753
0.960235595703125	0.0096527099609375	105.939158732529
0.96466064453125	0.009735107421875	106.027659732306
0.969085693359375	0.009820556640625	106.116160732082
0.9735107421875	0.009906005859375	106.204661731859
0.977935791015625	0.009991455078125	106.293162731636
0.98236083984375	0.0100799560546875	106.381663731412
0.986785888671875	0.0101715087890625	106.470164731189
0.9912109375	0.0102630615234375	106.558665730965
0.995635986328125	0.0103607177734375	106.647166730742
1.00006103515625	0.0104583740234375	106.735667730518
0.995635986328125	0.00960693359375	106.824168730295
0.9912109375	0.008819580078125	106.912669730071
0.986785888671875	0.0080810546875	107.001170729848
0.98236083984375	0.0073883056640625	107.089671729625
0.977935791015625	0.006732177734375	107.178172729401
0.9735107421875	0.0061126708984375	107.266673729178
0.969085693359375	0.005517578125	107.355174728954
0.96466064453125	0.00495147705078125	107.443675728731
0.960235595703125	0.00441162109375	107.532176728507
0.955810546875	0.0038958740234375	107.620677728284
0.951385498046875	0.0034014892578125	107.70917872806
0.94696044921875	0.00292755126953125	107.797679727837
0.942535400390625	0.002474365234375	107.886180727614
0.9381103515625	0.002037353515625	107.97468172739
0.933685302734375	0.0016156005859375	108.063182727167
0.92926025390625	0.00121307373046875	108.151683726943
0.924835205078125	0.00082672119140625	108.24018472672
0.92041015625	0.00045452880859375	108.328685726496
0.915985107421875	9.7381591796875E-05	108.417186726273
0.91156005859375	-0.000246185302734375	108.505687726049
0.907135009765625	-0.000576171875	108.594188725826
0.9027099609375	-0.00089385986328125	108.682689725603
0.898284912109375	-0.00119873046875	108.771190725379
0.89385986328125	-0.00149200439453125	108.859691725156
0.889434814453125	-0.001773681640625	108.948192724932
0.885009765625	-0.0020440673828125	109.036693724709
0.880584716796875	-0.00230438232421875	109.125194724485
0.87615966796875	-0.00255279541015625	109.213695724262
0.871734619140625	-0.0027923583984375	109.302196724038
0.8673095703125	-0.00302154541015625	109.390697723815
0.862884521484375	-0.0032415771484375	109.479198723592
0.85845947265625	-0.003450927734375	109.567699723368
0.854034423828125	-0.00365264892578125	109.656200723145
0.849609375	-0.0038458251953125	109.744701722921
0.845184326171875	-0.00403045654296875	109.833202722698
0.84075927734375	-0.0042059326171875	109.921703722474
0.836334228515625	-0.00437469482421875	110.010204722251
0.8319091796875	-0.00453582763671875	110.098705722027
0.827484130859375	-0.00468902587890625	110.187206721804
0.82305908203125	-0.0048358154296875	110.275707721581
0.818634033203125	-0.00497528076171875	110.364208721357
0.814208984375	-0.0051080322265625	110.452709721134
0.809783935546875	-0.00523345947265625	110.54121072091
0.80535888671875	-0.00535369873046875	110.629711720687
0.800933837890625	-0.00546844482421875	110.718212720463
0.7965087890625	-0.00557708740234375	110.80671372024
0.792083740234375	-0.00567962646484375	110.895214720016
0.78765869140625	-0.00577850341796875	110.983715719793
0.783233642578125	-0.00587127685546875	111.07221671957
0.77880859375	-0.00595916748046875	111.160717719346
0.774383544921875	-0.00604156494140625	111.249218719123
0.76995849609375	-0.006097412109375	111.337719718899
0.765533447265625	-0.0061737060546875	111.426220718676
0.7611083984375	-0.006243896484375	111.514721718452
0.756683349609375	-0.00631103515625	111.603222718229
0.75225830078125	-0.0063751220703125	111.691723718006
0.747833251953125	-0.00643310546875	111.780224717782
0.743408203125	-0.0064910888671875	111.868725717559
0.738983154296875	-0.00654296875	111.957226717335
0.73455810546875	-0.0065948486328125	112.045727717112
0.730133056640625	-0.0066436767578125	112.134228716888
0.7257080078125	-0.0066864013671875	112.222729716665
0.721282958984375	-0.0067291259765625	112.311230716441
0.71685791015625	-0.0067718505859375	112.399731716218
0.712432861328125	-0.0068084716796875	112.488232715995
0.7080078125	-0.0068450927734375	112.576733715771
0.703582763671875	-0.006878662109375	112.665234715548
0.69915771484375	-0.0069091796875	112.753735715324
0.694732666015625	-0.0069427490234375	112.842236715101
0.6903076171875	-0.00697021484375	112.930737714877
0.685882568359375	-0.0069976806640625	113.019238714654
0.68145751953125	-0.007025146484375	113.10773971443
0.677032470703125	-0.0070556640625	113.196240714207
0.672607421875	-0.0070770263671875	113.284741713984
0.668182373046875	-0.007098388671875	113.37324271376
0.66375732421875	-0.0071197509765625	113.461743713537
0.659332275390625	-0.00714111328125	113.550244713313
0.6549072265625	-0.007159423828125	113.63874571309
0.650482177734375	-0.0071746826171875	113.727246712866
0.64605712890625	-0.00718994140625	113.815747712643
0.641632080078125	-0.0072113037109375	113.904248712419
0.63720703125	-0.0072265625	113.992749712196
0.632781982421875	-0.007244873046875	114.081250711973
0.62835693359375	-0.0072601318359375	114.169751711749
0.623931884765625	-0.0072784423828125	114.258252711526
0.6195068359375	-0.0072906494140625	114.346753711302
0.615081787109375	-0.007305908203125	114.435254711079
0.61065673828125	-0.0073211669921875	114.523755710855
0.606231689453125	-0.0073333740234375	114.612256710632
0.601806640625	-0.0073455810546875	114.700757710408
0.597381591796875	-0.0073577880859375	114.789258710185
0.59295654296875	-0.0073699951171875	114.877759709962
0.588531494140625	-0.007379150390625	114.966260709738
0.5841064453125	-0.0073883056640625	115.054761709515
0.579681396484375	-0.0074005126953125	115.143262709291
0.57525634765625	-0.00740966796875	115.231763709068
0.570831298828125	-0.0074188232421875	115.320264708844
0.56640625	-0.00743408203125	115.408765708621
0.561981201171875	-0.0074432373046875	115.497266708397
0.55755615234375	-0.0074554443359375	115.585767708174
0.553131103515625	-0.007464599609375	115.674268707951
0.5487060546875	-0.007476806640625	115.762769707727
0.544281005859375	-0.0074859619140625	115.851270707504
0.53985595703125	-0.0074981689453125	115.93977170728
0.535430908203125	-0.0075103759765625	116.028272707057
0.531005859375	-0.0075225830078125	116.116773706833
0.526580810546875	-0.0075347900390625	116.20527470661
0.52215576171875	-0.0075469970703125	116.293775706386
0.517730712890625	-0.0075592041015625	116.382276706163
0.5133056640625	-0.0075714111328125	116.47077770594
0.508880615234375	-0.0075836181640625	116.559278705716
0.50445556640625	-0.007598876953125	116.647779705493
0.500030517578125	-0.007611083984375	116.736280705269
0.49560546875	-0.0076263427734375	116.824781705046
0.491180419921875	-0.0076385498046875	116.913282704822
0.48675537109375	-0.00765380859375	117.001783704599
0.482330322265625	-0.0076690673828125	117.090284704375
0.4779052734375	-0.007684326171875	117.178785704152
0.473480224609375	-0.007696533203125	117.267286703929
0.46905517578125	-0.00771484375	117.355787703705
0.464630126953125	-0.0077301025390625	117.444288703482
0.460205078125	-0.007745361328125	117.532789703258
0.455780029296875	-0.0077606201171875	117.621290703035
0.45135498046875	-0.00777587890625	117.709791702811
0.446929931640625	-0.0077911376953125	117.798292702588
0.4425048828125	-0.0078094482421875	117.886793702364
0.438079833984375	-0.00782470703125	117.975294702141
0.43365478515625	-0.007843017578125	118.063795701918
0.429229736328125	-0.0078582763671875	118.152296701694
0.4248046875	-0.007879638671875	118.240797701471
0.420379638671875	-0.00789794921875	118.329298701247
0.41595458984375	-0.007916259765625	118.417799701024
0.411529541015625	-0.0079345703125	118.5063007008
0.4071044921875	-0.007952880859375	118.594801700577
0.402679443359375	-0.0079742431640625	118.683302700353
0.39825439453125	-0.0079925537109375	118.77180370013
0.393829345703125	-0.008013916015625	118.860304699907
0.389404296875	-0.0080322265625	118.948805699683
0.384979248046875	-0.0080535888671875	119.03730669946
0.38055419921875	-0.008074951171875	119.125807699236
0.376129150390625	-0.0080963134765625	119.214308699013
0.3717041015625	-0.00811767578125	119.302809698789
0.367279052734375	-0.0081390380859375	119.391310698566
0.36285400390625	-0.008160400390625	119.479811698342
0.358428955078125	-0.0081817626953125	119.568312698119
0.35400390625	-0.008203125	119.656813697896
0.349578857421875	-0.0082244873046875	119.745314697672
0.34515380859375	-0.008245849609375	119.833815697449
0.340728759765625	-0.008270263671875	119.922316697225
0.3363037109375	-0.0082916259765625	120.010817697002
0.331878662109375	-0.0083160400390625	120.099318696778
0.32745361328125	-0.00833740234375	120.187819696555
0.323028564453125	-0.0083587646484375	120.276320696331
0.318603515625	-0.0083831787109375	120.364821696108
0.314178466796875	-0.008404541015625	120.453322695885
0.30975341796875	-0.0084320068359375	120.541823695661
0.305328369140625	-0.008453369140625	120.630324695438
0.3009033203125	-0.0084747314453125	120.718825695214
0.296478271484375	-0.0084991455078125	120.807326694991
0.29205322265625	-0.0085205078125	120.895827694767
0.287628173828125	-0.008544921875	120.984328694544
0.283203125	-0.0085662841796875	121.07282969432
0.278778076171875	-0.0085906982421875	121.161330694097
0.27435302734375	-0.008612060546875	121.249831693874
0.269927978515625	-0.0086334228515625	121.33833269365
0.2655029296875	-0.0086578369140625	121.426833693427
0.261077880859375	-0.0086822509765625	121.515334693203
0.25665283203125	-0.0087066650390625	121.60383569298
0.252227783203125	-0.0087310791015625	121.692336692756
0.247802734375	-0.0087554931640625	121.780837692533
0.243377685546875	-0.00877685546875	121.869338692309
0.23895263671875	-0.00880126953125	121.957839692086
0.234527587890625	-0.00882568359375	122.046340691863
0.2301025390625	-0.0088470458984375	122.134841691639
0.225677490234375	-0.0088714599609375	122.223342691416
0.22125244140625	-0.0088958740234375	122.311843691192
0.216827392578125	-0.0089202880859375	122.400344690969
0.21240234375	-0.00894775390625	122.488845690745
0.207977294921875	-0.00897216796875	122.577346690522
0.20355224609375	-0.00899658203125	122.665847690299
0.199127197265625	-0.0090240478515625	122.754348690075
0.1947021484375	-0.0090484619140625	122.842849689852
0.190277099609375	-0.0090728759765625	122.931350689628
0.18585205078125	-0.009100341796875	123.019851689405
0.181427001953125	-0.009124755859375	123.108352689181
0.177001953125	-0.0091522216796875	123.196853688958
0.172576904296875	-0.0091796875	123.285354688734
0.16815185546875	-0.0092071533203125	123.373855688511
0.163726806640625	-0.0092315673828125	123.462356688288
0.1593017578125	-0.009259033203125	123.550857688064
0.154876708984375	-0.0092864990234375	123.639358687841
0.15045166015625	-0.00931396484375	123.727859687617
0.146026611328125	-0.0093414306640625	123.816360687394
0.1416015625	-0.009368896484375	123.90486168717
0.137176513671875	-0.0093963623046875	123.993362686947
0.13275146484375	-0.009423828125	124.081863686723
0.128326416015625	-0.009454345703125	124.1703646865
0.1239013671875	-0.00948486328125	124.258865686277
0.119476318359375	-0.0095123291015625	124.347366686053
0.11505126953125	-0.0095428466796875	124.43586768583
0.110626220703125	-0.0095733642578125	124.524368685606
0.106201171875	-0.0096038818359375	124.612869685383
0.101776123046875	-0.0096343994140625	124.701370685159
0.09735107421875	-0.00966796875	124.789871684936
0.092926025390625	-0.0097015380859375	124.878372684712
0.0885009765625	-0.009735107421875	124.966873684489
0.084075927734375	-0.0097686767578125	125.055374684266
0.07965087890625	-0.00980224609375	125.143875684042
0.075225830078125	-0.0098358154296875	125.232376683819
0.07080078125	-0.009869384765625	125.320877683595
0.066375732421875	-0.009906005859375	125.409378683372
0.06195068359375	-0.009942626953125	125.497879683148
0.057525634765625	-0.009979248046875	125.586380682925
0.0531005859375	-0.010015869140625	125.674881682701
0.048675537109375	-0.0100555419921875	125.763382682478
0.04425048828125	-0.01009521484375	125.851883682255
0.039825439453125	-0.0101348876953125	125.940384682031
0.035400390625	-0.010174560546875	126.028885681808
0.030975341796875	-0.0102142333984375	126.117386681584
0.02655029296875	-0.0102569580078125	126.205887681361
0.022125244140625	-0.0102996826171875	126.294388681137
0.0177001953125	-0.0103424072265625	126.382889680914
0.013275146484375	-0.01038818359375	126.47139068069
0.00885009765625	-0.0104339599609375	126.559891680467
0.004425048828125	-0.010479736328125	126.648392680244
0	-0.0105255126953125	126.73689368002
0.004425048828125	-0.0096282958984375	126.825394679797
0.00885009765625	-0.0087890625	126.913895679573
0.013275146484375	-0.008001708984375	127.00239667935
