Potential applied (V)	WE(1).Current (A)	Time (s)
0.004425048828125	-0.0014752197265625	3435.52861032612
0.00885009765625	-0.000946044921875	3435.74986232557
0.013275146484375	-0.000481231689453125	3435.97111432501
0.0177001953125	-6.7413330078125E-05	3436.19236632445
0.022125244140625	0.000303985595703125	3436.41361832389
0.02655029296875	0.000638427734375	3436.63487032333
0.030975341796875	0.00094024658203125	3436.85612232277
0.035400390625	0.00121429443359375	3437.07737432221
0.039825439453125	0.00146148681640625	3437.29862632166
0.04425048828125	0.0016851806640625	3437.5198783211
0.048675537109375	0.00189178466796875	3437.74113032054
0.0531005859375	0.00207733154296875	3437.96238231998
0.057525634765625	0.00224456787109375	3438.18363431942
0.06195068359375	0.0023956298828125	3438.40488631886
0.066375732421875	0.00253143310546875	3438.6261383183
0.07080078125	0.00265472412109375	3438.84739031775
0.075225830078125	0.0027703857421875	3439.06864231719
0.07965087890625	0.00287445068359375	3439.28989431663
0.084075927734375	0.002969970703125	3439.51114631607
0.0885009765625	0.003056640625	3439.73239831551
0.092926025390625	0.00313507080078125	3439.95365031495
0.09735107421875	0.00320587158203125	3440.17490231439
0.101776123046875	0.00326904296875	3440.39615431383
0.106201171875	0.00332550048828125	3440.61740631328
0.110626220703125	0.00337646484375	3440.83865831272
0.11505126953125	0.00342193603515625	3441.05991031216
0.119476318359375	0.00345977783203125	3441.2811623116
0.1239013671875	0.00349609375	3441.50241431104
0.128326416015625	0.00352752685546875	3441.72366631048
0.13275146484375	0.00355499267578125	3441.94491830992
0.137176513671875	0.0035791015625	3442.16617030937
0.1416015625	0.00359893798828125	3442.38742230881
0.146026611328125	0.00361602783203125	3442.60867430825
0.15045166015625	0.00363128662109375	3442.82992630769
0.154876708984375	0.0036444091796875	3443.05117830713
0.1593017578125	0.00365325927734375	3443.27243030657
0.163726806640625	0.00366119384765625	3443.49368230601
0.16815185546875	0.003668212890625	3443.71493430546
0.172576904296875	0.003673095703125	3443.9361863049
0.177001953125	0.003675537109375	3444.15743830434
0.181427001953125	0.0036773681640625	3444.37869030378
0.18585205078125	0.00367767333984375	3444.59994230322
0.190277099609375	0.00367706298828125	3444.82119430266
0.1947021484375	0.0036761474609375	3445.0424463021
0.199127197265625	0.00367218017578125	3445.26369830155
0.20355224609375	0.00366912841796875	3445.48495030099
0.207977294921875	0.0036651611328125	3445.70620230043
0.21240234375	0.003660888671875	3445.92745429987
0.216827392578125	0.0036553955078125	3446.14870629931
0.22125244140625	0.0036492919921875	3446.36995829875
0.225677490234375	0.00364288330078125	3446.59121029819
0.2301025390625	0.00363739013671875	3446.81246229764
0.234527587890625	0.0036322021484375	3447.03371429708
0.23895263671875	0.00363128662109375	3447.25496629652
0.243377685546875	0.003624267578125	3447.47621829596
0.247802734375	0.00361602783203125	3447.6974702954
0.252227783203125	0.0036077880859375	3447.91872229484
0.25665283203125	0.00359954833984375	3448.13997429428
0.261077880859375	0.0035931396484375	3448.36122629372
0.2655029296875	0.00358856201171875	3448.58247829317
0.269927978515625	0.0035845947265625	3448.80373029261
0.27435302734375	0.003577880859375	3449.02498229205
0.278778076171875	0.00357147216796875	3449.24623429149
0.283203125	0.003564453125	3449.46748629093
0.287628173828125	0.0035589599609375	3449.68873829037
0.29205322265625	0.00355255126953125	3449.90999028981
0.296478271484375	0.00354644775390625	3450.13124228926
0.3009033203125	0.0035406494140625	3450.3524942887
0.305328369140625	0.00353485107421875	3450.57374628814
0.30975341796875	0.0035296630859375	3450.79499828758
0.314178466796875	0.00352752685546875	3451.01625028702
0.318603515625	0.00352264404296875	3451.23750228646
0.323028564453125	0.0035174560546875	3451.4587542859
0.32745361328125	0.00351318359375	3451.68000628535
0.331878662109375	0.00350860595703125	3451.90125828479
0.3363037109375	0.003504638671875	3452.12251028423
0.340728759765625	0.0035009765625	3452.34376228367
0.34515380859375	0.003497314453125	3452.56501428311
0.349578857421875	0.00349365234375	3452.78626628255
0.35400390625	0.00348846435546875	3453.00751828199
0.358428955078125	0.003485107421875	3453.22877028144
0.36285400390625	0.00348236083984375	3453.45002228088
0.367279052734375	0.0034796142578125	3453.67127428032
0.3717041015625	0.0034765625	3453.89252627976
0.376129150390625	0.00347412109375	3454.1137782792
0.38055419921875	0.0034716796875	3454.33503027864
0.384979248046875	0.00346893310546875	3454.55628227808
0.389404296875	0.00346649169921875	3454.77753427753
0.393829345703125	0.00346221923828125	3454.99878627697
0.39825439453125	0.00345977783203125	3455.22003827641
0.402679443359375	0.00345733642578125	3455.44129027585
0.4071044921875	0.00345428466796875	3455.66254227529
0.411529541015625	0.0034503173828125	3455.88379427473
0.41595458984375	0.00344757080078125	3456.10504627417
0.420379638671875	0.0034442138671875	3456.32629827362
0.4248046875	0.00344024658203125	3456.54755027306
0.429229736328125	0.003436279296875	3456.7688022725
0.43365478515625	0.00343292236328125	3456.99005427194
0.438079833984375	0.0034283447265625	3457.21130627138
0.4425048828125	0.003424072265625	3457.43255827082
0.446929931640625	0.00341949462890625	3457.65381027026
0.45135498046875	0.00341522216796875	3457.8750622697
0.455780029296875	0.00341156005859375	3458.09631426915
0.460205078125	0.00340728759765625	3458.31756626859
0.464630126953125	0.0034033203125	3458.53881826803
0.46905517578125	0.0033984375	3458.76007026747
0.473480224609375	0.00339447021484375	3458.98132226691
0.4779052734375	0.0033905029296875	3459.20257426635
0.482330322265625	0.00338623046875	3459.42382626579
0.48675537109375	0.00338287353515625	3459.64507826524
0.491180419921875	0.00337890625	3459.86633026468
0.49560546875	0.003375244140625	3460.08758226412
0.500030517578125	0.00337188720703125	3460.30883426356
0.50445556640625	0.003367919921875	3460.530086263
0.508880615234375	0.00336456298828125	3460.75133826244
0.5133056640625	0.00336151123046875	3460.97259026188
0.517730712890625	0.00335784912109375	3461.19384226133
0.52215576171875	0.00335418701171875	3461.41509426077
0.526580810546875	0.003350830078125	3461.63634626021
0.531005859375	0.00334747314453125	3461.85759825965
0.535430908203125	0.0033447265625	3462.07885025909
0.53985595703125	0.00334136962890625	3462.30010225853
0.544281005859375	0.0033392333984375	3462.52135425797
0.5487060546875	0.00333526611328125	3462.74260625742
0.553131103515625	0.00333251953125	3462.96385825686
0.55755615234375	0.00333038330078125	3463.1851102563
0.561981201171875	0.00332763671875	3463.40636225574
0.56640625	0.0033258056640625	3463.62761425518
0.570831298828125	0.00332427978515625	3463.84886625462
0.57525634765625	0.0033221435546875	3464.07011825406
0.579681396484375	0.00332061767578125	3464.29137025351
0.5841064453125	0.00331939697265625	3464.51262225295
0.588531494140625	0.00331695556640625	3464.73387425239
0.59295654296875	0.003316650390625	3464.95512625183
0.597381591796875	0.0033172607421875	3465.17637825127
0.601806640625	0.0033172607421875	3465.39763025071
0.606231689453125	0.00331817626953125	3465.61888225015
0.61065673828125	0.00332000732421875	3465.84013424959
0.615081787109375	0.00332061767578125	3466.06138624904
0.6195068359375	0.00332244873046875	3466.28263824848
0.623931884765625	0.00332489013671875	3466.50389024792
0.62835693359375	0.00333099365234375	3466.72514224736
0.632781982421875	0.00333343505859375	3466.9463942468
0.63720703125	0.003336181640625	3467.16764624624
0.641632080078125	0.00333953857421875	3467.38889824568
0.64605712890625	0.003343505859375	3467.61015024513
0.650482177734375	0.0033477783203125	3467.83140224457
0.6549072265625	0.00335235595703125	3468.05265424401
0.659332275390625	0.00335784912109375	3468.27390624345
0.66375732421875	0.00336334228515625	3468.49515824289
0.668182373046875	0.00336883544921875	3468.71641024233
0.672607421875	0.0033758544921875	3468.93766224177
0.677032470703125	0.003382568359375	3469.15891424122
0.68145751953125	0.003389892578125	3469.38016624066
0.685882568359375	0.0033984375	3469.6014182401
0.6903076171875	0.003406982421875	3469.82267023954
0.694732666015625	0.0034161376953125	3470.04392223898
0.69915771484375	0.0034259033203125	3470.26517423842
0.703582763671875	0.00343414306640625	3470.48642623786
0.7080078125	0.00344512939453125	3470.70767823731
0.712432861328125	0.0034564208984375	3470.92893023675
0.71685791015625	0.00346771240234375	3471.15018223619
0.721282958984375	0.003480224609375	3471.37143423563
0.7257080078125	0.0034930419921875	3471.59268623507
0.730133056640625	0.0035064697265625	3471.81393823451
0.73455810546875	0.003519287109375	3472.03519023395
0.738983154296875	0.003533935546875	3472.2564422334
0.743408203125	0.003546142578125	3472.47769423284
0.747833251953125	0.00356292724609375	3472.69894623228
0.75225830078125	0.0035784912109375	3472.92019823172
0.756683349609375	0.00359466552734375	3473.14145023116
0.7611083984375	0.003612060546875	3473.3627022306
0.765533447265625	0.00363037109375	3473.58395423004
0.76995849609375	0.003648681640625	3473.80520622949
0.774383544921875	0.00366851806640625	3474.02645822893
0.77880859375	0.0036883544921875	3474.24771022837
0.783233642578125	0.00370758056640625	3474.46896222781
0.78765869140625	0.0037298583984375	3474.69021422725
0.792083740234375	0.00375213623046875	3474.91146622669
0.7965087890625	0.00377532958984375	3475.13271822613
0.800933837890625	0.00379974365234375	3475.35397022557
0.80535888671875	0.00382476806640625	3475.57522222502
0.809783935546875	0.00385101318359375	3475.79647422446
0.814208984375	0.0038775634765625	3476.0177262239
0.818634033203125	0.00390655517578125	3476.23897822334
0.82305908203125	0.0039349365234375	3476.46023022278
0.827484130859375	0.00396514892578125	3476.68148222222
0.8319091796875	0.00399658203125	3476.90273422166
0.836334228515625	0.004029541015625	3477.12398622111
0.84075927734375	0.0040631103515625	3477.34523822055
0.845184326171875	0.00409912109375	3477.56649021999
0.849609375	0.00413604736328125	3477.78774221943
0.854034423828125	0.004173583984375	3478.00899421887
0.85845947265625	0.00421356201171875	3478.23024621831
0.862884521484375	0.0042529296875	3478.45149821775
0.8673095703125	0.00429534912109375	3478.6727502172
0.871734619140625	0.00433929443359375	3478.89400221664
0.87615966796875	0.00438568115234375	3479.11525421608
0.880584716796875	0.00443267822265625	3479.33650621552
0.885009765625	0.00448089599609375	3479.55775821496
0.889434814453125	0.00453094482421875	3479.7790102144
0.89385986328125	0.00458221435546875	3480.00026221384
0.898284912109375	0.00463623046875	3480.22151421329
0.9027099609375	0.00469024658203125	3480.44276621273
0.907135009765625	0.00474639892578125	3480.66401821217
0.91156005859375	0.00480377197265625	3480.88527021161
0.915985107421875	0.0048638916015625	3481.10652221105
0.92041015625	0.00492462158203125	3481.32777421049
0.924835205078125	0.00498626708984375	3481.54902620993
0.92926025390625	0.0050494384765625	3481.77027820938
0.933685302734375	0.0051141357421875	3481.99153020882
0.9381103515625	0.00518341064453125	3482.21278220826
0.942535400390625	0.00524993896484375	3482.4340342077
0.94696044921875	0.00531890869140625	3482.65528620714
0.951385498046875	0.00538818359375	3482.87653820658
0.955810546875	0.00545928955078125	3483.09779020602
0.960235595703125	0.00553070068359375	3483.31904220546
0.96466064453125	0.005604248046875	3483.54029420491
0.969085693359375	0.00567962646484375	3483.76154620435
0.9735107421875	0.00575469970703125	3483.98279820379
0.977935791015625	0.00583038330078125	3484.20405020323
0.98236083984375	0.0059100341796875	3484.42530220267
0.986785888671875	0.00599029541015625	3484.64655420211
0.9912109375	0.00607330322265625	3484.86780620155
0.995635986328125	0.0061492919921875	3485.089058201
1.00006103515625	0.006231689453125	3485.31031020044
0.995635986328125	0.005450439453125	3485.53156219988
0.9912109375	0.0047705078125	3485.75281419932
0.986785888671875	0.00416595458984375	3485.97406619876
0.98236083984375	0.00362091064453125	3486.1953181982
0.977935791015625	0.00312591552734375	3486.41657019764
0.9735107421875	0.00267333984375	3486.63782219709
0.969085693359375	0.00225616455078125	3486.85907419653
0.96466064453125	0.00186981201171875	3487.08032619597
0.960235595703125	0.00151123046875	3487.30157819541
0.955810546875	0.001177978515625	3487.52283019485
0.951385498046875	0.00086822509765625	3487.74408219429
0.94696044921875	0.00057861328125	3487.96533419373
0.942535400390625	0.0003084716796875	3488.18658619318
0.9381103515625	5.6121826171875E-05	3488.40783819262
0.933685302734375	-0.0001822509765625	3488.62909019206
0.92926025390625	-0.00040203857421875	3488.8503421915
0.924835205078125	-0.00060760498046875	3489.07159419094
0.92041015625	-0.000799560546875	3489.29284619038
0.915985107421875	-0.00097930908203125	3489.51409818982
0.91156005859375	-0.00114654541015625	3489.73535018927
0.907135009765625	-0.00130279541015625	3489.95660218871
0.9027099609375	-0.00144866943359375	3490.17785418815
0.898284912109375	-0.00158538818359375	3490.39910618759
0.89385986328125	-0.001712646484375	3490.62035818703
0.889434814453125	-0.0018316650390625	3490.84161018647
0.885009765625	-0.00194183349609375	3491.06286218591
0.880584716796875	-0.002044677734375	3491.28411418536
0.87615966796875	-0.00214019775390625	3491.5053661848
0.871734619140625	-0.00222930908203125	3491.72661818424
0.8673095703125	-0.00231201171875	3491.94787018368
0.862884521484375	-0.002388916015625	3492.16912218312
0.85845947265625	-0.002459716796875	3492.39037418256
0.854034423828125	-0.002525634765625	3492.611626182
0.849609375	-0.002586669921875	3492.83287818144
0.845184326171875	-0.0026434326171875	3493.05413018089
0.84075927734375	-0.0026953125	3493.27538218033
0.836334228515625	-0.0027435302734375	3493.49663417977
0.8319091796875	-0.00278839111328125	3493.71788617921
0.827484130859375	-0.002828369140625	3493.93913817865
0.82305908203125	-0.00286590576171875	3494.16039017809
0.818634033203125	-0.00290008544921875	3494.38164217753
0.814208984375	-0.00293243408203125	3494.60289417698
0.809783935546875	-0.00296112060546875	3494.82414617642
0.80535888671875	-0.00298736572265625	3495.04539817586
0.800933837890625	-0.003011474609375	3495.2666501753
0.7965087890625	-0.00303436279296875	3495.48790217474
0.792083740234375	-0.00305450439453125	3495.70915417418
0.78765869140625	-0.00307373046875	3495.93040617362
0.783233642578125	-0.0030902099609375	3496.15165817307
0.77880859375	-0.00310546875	3496.37291017251
0.774383544921875	-0.00311920166015625	3496.59416217195
0.76995849609375	-0.00313201904296875	3496.81541417139
0.765533447265625	-0.00314361572265625	3497.03666617083
0.7611083984375	-0.003154296875	3497.25791817027
0.756683349609375	-0.00316436767578125	3497.47917016971
0.75225830078125	-0.003172607421875	3497.70042216916
0.747833251953125	-0.00318115234375	3497.9216741686
0.743408203125	-0.0031878662109375	3498.14292616804
0.738983154296875	-0.00319244384765625	3498.36417816748
0.73455810546875	-0.0031982421875	3498.58543016692
0.730133056640625	-0.0032037353515625	3498.80668216636
0.7257080078125	-0.0032080078125	3499.0279341658
0.721282958984375	-0.00321197509765625	3499.24918616525
0.71685791015625	-0.00321502685546875	3499.47043816469
0.712432861328125	-0.0032183837890625	3499.69169016413
0.7080078125	-0.00322479248046875	3499.91294216357
0.703582763671875	-0.0032269287109375	3500.13419416301
0.69915771484375	-0.00322784423828125	3500.35544616245
0.694732666015625	-0.00322967529296875	3500.57669816189
0.6903076171875	-0.003231201171875	3500.79795016133
0.685882568359375	-0.00323211669921875	3501.01920216078
0.68145751953125	-0.00323272705078125	3501.24045416022
0.677032470703125	-0.00323089599609375	3501.46170615966
0.672607421875	-0.00323272705078125	3501.6829581591
0.668182373046875	-0.003236083984375	3501.90421015854
0.66375732421875	-0.003236083984375	3502.12546215798
0.659332275390625	-0.00323760986328125	3502.34671415742
0.6549072265625	-0.0032379150390625	3502.56796615687
0.650482177734375	-0.0032379150390625	3502.78921815631
0.64605712890625	-0.0032379150390625	3503.01047015575
0.641632080078125	-0.00324005126953125	3503.23172215519
0.63720703125	-0.00324005126953125	3503.45297415463
0.632781982421875	-0.00324005126953125	3503.67422615407
0.62835693359375	-0.0032403564453125	3503.89547815351
0.623931884765625	-0.0032440185546875	3504.11673015296
0.6195068359375	-0.0032427978515625	3504.3379821524
0.615081787109375	-0.0032421875	3504.55923415184
0.61065673828125	-0.0032427978515625	3504.78048615128
0.606231689453125	-0.00324310302734375	3505.00173815072
0.601806640625	-0.0032440185546875	3505.22299015016
0.597381591796875	-0.00324493408203125	3505.4442421496
0.59295654296875	-0.0032464599609375	3505.66549414905
0.588531494140625	-0.00324859619140625	3505.88674614849
0.5841064453125	-0.003248291015625	3506.10799814793
0.579681396484375	-0.00325103759765625	3506.32925014737
0.57525634765625	-0.0032537841796875	3506.55050214681
0.570831298828125	-0.00325653076171875	3506.77175414625
0.56640625	-0.00325958251953125	3506.99300614569
0.561981201171875	-0.0032623291015625	3507.21425814514
0.55755615234375	-0.00326568603515625	3507.43551014458
0.553131103515625	-0.0032696533203125	3507.65676214402
0.5487060546875	-0.003272705078125	3507.87801414346
0.544281005859375	-0.00327667236328125	3508.0992661429
0.53985595703125	-0.003280029296875	3508.32051814234
0.535430908203125	-0.003284912109375	3508.54177014178
0.531005859375	-0.00329010009765625	3508.76302214123
0.526580810546875	-0.00329437255859375	3508.98427414067
0.52215576171875	-0.00329986572265625	3509.20552614011
0.517730712890625	-0.0033056640625	3509.42677813955
0.5133056640625	-0.003311767578125	3509.64803013899
0.508880615234375	-0.00331695556640625	3509.86928213843
0.50445556640625	-0.00332366943359375	3510.09053413787
0.500030517578125	-0.003330078125	3510.31178613731
0.49560546875	-0.00333648681640625	3510.53303813676
0.491180419921875	-0.00334259033203125	3510.7542901362
0.48675537109375	-0.0033502197265625	3510.97554213564
0.482330322265625	-0.0033575439453125	3511.19679413508
0.4779052734375	-0.0033642578125	3511.41804613452
0.473480224609375	-0.0033721923828125	3511.63929813396
0.46905517578125	-0.00338043212890625	3511.8605501334
0.464630126953125	-0.00338714599609375	3512.08180213285
0.460205078125	-0.00339599609375	3512.30305413229
0.455780029296875	-0.00340423583984375	3512.52430613173
0.45135498046875	-0.0034130859375	3512.74555813117
0.446929931640625	-0.0034210205078125	3512.96681013061
0.4425048828125	-0.0034295654296875	3513.18806213005
0.438079833984375	-0.00343841552734375	3513.40931412949
0.43365478515625	-0.0034478759765625	3513.63056612894
0.429229736328125	-0.003455810546875	3513.85181812838
0.4248046875	-0.00346588134765625	3514.07307012782
0.420379638671875	-0.00347503662109375	3514.29432212726
0.41595458984375	-0.00348480224609375	3514.5155741267
0.411529541015625	-0.00349395751953125	3514.73682612614
0.4071044921875	-0.00350372314453125	3514.95807812558
0.402679443359375	-0.00351318359375	3515.17933012503
0.39825439453125	-0.0035223388671875	3515.40058212447
0.393829345703125	-0.00353240966796875	3515.62183412391
0.389404296875	-0.00354034423828125	3515.84308612335
0.384979248046875	-0.00355010986328125	3516.06433812279
0.38055419921875	-0.00355987548828125	3516.28559012223
0.376129150390625	-0.0035693359375	3516.50684212167
0.3717041015625	-0.00357940673828125	3516.72809412112
0.367279052734375	-0.00358917236328125	3516.94934612056
0.36285400390625	-0.0035992431640625	3517.17059812
0.358428955078125	-0.0036083984375	3517.39185011944
0.35400390625	-0.0036187744140625	3517.61310211888
0.349578857421875	-0.00362640380859375	3517.83435411832
0.34515380859375	-0.00363677978515625	3518.05560611776
0.340728759765625	-0.0036468505859375	3518.2768581172
0.3363037109375	-0.00365692138671875	3518.49811011665
0.331878662109375	-0.00366668701171875	3518.71936211609
0.32745361328125	-0.00367584228515625	3518.94061411553
0.323028564453125	-0.00368621826171875	3519.16186611497
0.318603515625	-0.00369720458984375	3519.38311811441
0.314178466796875	-0.003707275390625	3519.60437011385
0.30975341796875	-0.003720703125	3519.82562211329
0.305328369140625	-0.00373016357421875	3520.04687411274
0.3009033203125	-0.0037408447265625	3520.26812611218
0.296478271484375	-0.003751220703125	3520.48937811162
0.29205322265625	-0.0037615966796875	3520.71063011106
0.287628173828125	-0.00377288818359375	3520.9318821105
0.283203125	-0.0037835693359375	3521.15313410994
0.278778076171875	-0.00379425048828125	3521.37438610938
0.27435302734375	-0.0038055419921875	3521.59563810883
0.269927978515625	-0.0038165283203125	3521.81689010827
0.2655029296875	-0.003828125	3522.03814210771
0.261077880859375	-0.0038397216796875	3522.25939410715
0.25665283203125	-0.00385162353515625	3522.48064610659
0.252227783203125	-0.00386383056640625	3522.70189810603
0.247802734375	-0.00387603759765625	3522.92315010547
0.243377685546875	-0.00388824462890625	3523.14440210492
0.23895263671875	-0.0039007568359375	3523.36565410436
0.234527587890625	-0.0039129638671875	3523.5869061038
0.2301025390625	-0.00392425537109375	3523.80815810324
0.225677490234375	-0.00393768310546875	3524.02941010268
0.22125244140625	-0.0039495849609375	3524.25066210212
0.216827392578125	-0.00396270751953125	3524.47191410156
0.21240234375	-0.00397674560546875	3524.69316610101
0.207977294921875	-0.00398895263671875	3524.91441810045
0.20355224609375	-0.0040020751953125	3525.13567009989
0.199127197265625	-0.00401641845703125	3525.35692209933
0.1947021484375	-0.00402984619140625	3525.57817409877
0.190277099609375	-0.00404327392578125	3525.79942609821
0.18585205078125	-0.0040576171875	3526.02067809765
0.181427001953125	-0.004071044921875	3526.2419300971
0.177001953125	-0.00408599853515625	3526.46318209654
0.172576904296875	-0.004100341796875	3526.68443409598
0.16815185546875	-0.0041156005859375	3526.90568609542
0.163726806640625	-0.004130859375	3527.12693809486
0.1593017578125	-0.00414581298828125	3527.3481900943
0.154876708984375	-0.00416046142578125	3527.56944209374
0.15045166015625	-0.00417633056640625	3527.79069409318
0.146026611328125	-0.0041925048828125	3528.01194609263
0.1416015625	-0.00420928955078125	3528.23319809207
0.137176513671875	-0.00422576904296875	3528.45445009151
0.13275146484375	-0.0042431640625	3528.67570209095
0.128326416015625	-0.00426025390625	3528.89695409039
0.1239013671875	-0.00427734375	3529.11820608983
0.119476318359375	-0.00429656982421875	3529.33945808927
0.11505126953125	-0.00431304931640625	3529.56071008872
0.110626220703125	-0.004332275390625	3529.78196208816
0.106201171875	-0.004351806640625	3530.0032140876
0.101776123046875	-0.004371337890625	3530.22446608704
0.09735107421875	-0.0043914794921875	3530.44571808648
0.092926025390625	-0.0044122314453125	3530.66697008592
0.0885009765625	-0.00443267822265625	3530.88822208536
0.084075927734375	-0.004454345703125	3531.10947408481
0.07965087890625	-0.00447662353515625	3531.33072608425
0.075225830078125	-0.0044970703125	3531.55197808369
0.07080078125	-0.004520263671875	3531.77323008313
0.066375732421875	-0.00454315185546875	3531.99448208257
0.06195068359375	-0.00456634521484375	3532.21573408201
0.057525634765625	-0.00459136962890625	3532.43698608145
0.0531005859375	-0.00461517333984375	3532.6582380809
0.048675537109375	-0.00463897705078125	3532.87949008034
0.04425048828125	-0.00466522216796875	3533.10074207978
0.039825439453125	-0.00469085693359375	3533.32199407922
0.035400390625	-0.0047174072265625	3533.54324607866
0.030975341796875	-0.00474334716796875	3533.7644980781
0.02655029296875	-0.00476959228515625	3533.98575007754
0.022125244140625	-0.0047967529296875	3534.20700207699
0.0177001953125	-0.0048248291015625	3534.42825407643
0.013275146484375	-0.0048529052734375	3534.64950607587
0.00885009765625	-0.0048809814453125	3534.87075807531
0.004425048828125	-0.00491058349609375	3535.09201007475
0	-0.0049407958984375	3535.31326207419
0.004425048828125	-0.00410614013671875	3535.53451407363
0.00885009765625	-0.0033740234375	3535.75576607307
0.013275146484375	-0.0027227783203125	3535.97701807252
0.0177001953125	-0.002138671875	3536.19827007196
0.022125244140625	-0.00161285400390625	3536.4195220714
0.02655029296875	-0.00113677978515625	3536.64077407084
0.030975341796875	-0.0007049560546875	3536.86202607028
0.035400390625	-0.00031219482421875	3537.08327806972
0.039825439453125	4.583740234375E-05	3537.30453006916
0.04425048828125	0.000372314453125	3537.52578206861
0.048675537109375	0.00067047119140625	3537.74703406805
0.0531005859375	0.00094329833984375	3537.96828606749
0.057525634765625	0.00119354248046875	3538.18953806693
0.06195068359375	0.001422119140625	3538.41079006637
0.066375732421875	0.00162994384765625	3538.63204206581
0.07080078125	0.00181793212890625	3538.85329406525
0.075225830078125	0.001990966796875	3539.0745460647
0.07965087890625	0.002147216796875	3539.29579806414
0.084075927734375	0.00228912353515625	3539.51705006358
0.0885009765625	0.00241424560546875	3539.73830206302
0.092926025390625	0.00252838134765625	3539.95955406246
0.09735107421875	0.002640380859375	3540.1808060619
0.101776123046875	0.002742919921875	3540.40205806134
0.106201171875	0.00283477783203125	3540.62331006079
0.110626220703125	0.00291839599609375	3540.84456206023
0.11505126953125	0.0029931640625	3541.06581405967
0.119476318359375	0.00305908203125	3541.28706605911
0.1239013671875	0.0031201171875	3541.50831805855
0.128326416015625	0.00317535400390625	3541.72957005799
0.13275146484375	0.003223876953125	3541.95082205743
0.137176513671875	0.003267822265625	3542.17207405688
0.1416015625	0.00330718994140625	3542.39332605632
0.146026611328125	0.0033416748046875	3542.61457805576
0.15045166015625	0.00337249755859375	3542.8358300552
0.154876708984375	0.00339935302734375	3543.05708205464
0.1593017578125	0.003421630859375	3543.27833405408
0.163726806640625	0.0034423828125	3543.49958605352
0.16815185546875	0.00345977783203125	3543.72083805297
0.172576904296875	0.003475341796875	3543.94209005241
0.177001953125	0.0034881591796875	3544.16334205185
0.181427001953125	0.003499755859375	3544.38459405129
0.18585205078125	0.00350860595703125	3544.60584605073
0.190277099609375	0.00351531982421875	3544.82709805017
0.1947021484375	0.00352081298828125	3545.04835004961
0.199127197265625	0.0035247802734375	3545.26960204905
0.20355224609375	0.0035272216796875	3545.4908540485
0.207977294921875	0.00352935791015625	3545.71210604794
0.21240234375	0.0035302734375	3545.93335804738
0.216827392578125	0.0035302734375	3546.15461004682
0.22125244140625	0.0035296630859375	3546.37586204626
0.225677490234375	0.00352813720703125	3546.5971140457
0.2301025390625	0.00352386474609375	3546.81836604514
0.234527587890625	0.0035198974609375	3547.03961804459
0.23895263671875	0.003516845703125	3547.26087004403
0.243377685546875	0.00351348876953125	3547.48212204347
0.247802734375	0.00350799560546875	3547.70337404291
0.252227783203125	0.003504638671875	3547.92462604235
0.25665283203125	0.00350067138671875	3548.14587804179
0.261077880859375	0.00350006103515625	3548.36713004123
0.2655029296875	0.00349945068359375	3548.58838204068
0.269927978515625	0.00349365234375	3548.80963404012
0.27435302734375	0.00348602294921875	3549.03088603956
0.278778076171875	0.00347900390625	3549.252138039
0.283203125	0.00347137451171875	3549.47339003844
0.287628173828125	0.00346771240234375	3549.69464203788
0.29205322265625	0.00346466064453125	3549.91589403732
0.296478271484375	0.0034613037109375	3550.13714603677
0.3009033203125	0.00345672607421875	3550.35839803621
0.305328369140625	0.003450927734375	3550.57965003565
0.30975341796875	0.003446044921875	3550.80090203509
0.314178466796875	0.003443603515625	3551.02215403453
0.318603515625	0.00343841552734375	3551.24340603397
0.323028564453125	0.00343353271484375	3551.46465803341
0.32745361328125	0.003428955078125	3551.68591003286
0.331878662109375	0.0034246826171875	3551.9071620323
0.3363037109375	0.00342071533203125	3552.12841403174
0.340728759765625	0.00341705322265625	3552.34966603118
0.34515380859375	0.0034124755859375	3552.57091803062
0.349578857421875	0.00340911865234375	3552.79217003006
0.35400390625	0.0034027099609375	3553.0134220295
0.358428955078125	0.00339996337890625	3553.23467402894
0.36285400390625	0.0033966064453125	3553.45592602839
0.367279052734375	0.00339324951171875	3553.67717802783
0.3717041015625	0.00339019775390625	3553.89843002727
0.376129150390625	0.00338775634765625	3554.11968202671
0.38055419921875	0.0033843994140625	3554.34093402615
0.384979248046875	0.00338104248046875	3554.56218602559
0.389404296875	0.00337860107421875	3554.78343802503
0.393829345703125	0.0033746337890625	3555.00469002448
0.39825439453125	0.00337127685546875	3555.22594202392
0.402679443359375	0.00336761474609375	3555.44719402336
0.4071044921875	0.0033642578125	3555.6684460228
0.411529541015625	0.00336029052734375	3555.88969802224
0.41595458984375	0.00335601806640625	3556.11095002168
0.420379638671875	0.00335174560546875	3556.33220202112
0.4248046875	0.0033477783203125	3556.55345402057
0.429229736328125	0.0033441162109375	3556.77470602001
0.43365478515625	0.00333953857421875	3556.99595801945
0.438079833984375	0.0033343505859375	3557.21721001889
0.4425048828125	0.00332916259765625	3557.43846201833
0.446929931640625	0.00332427978515625	3557.65971401777
0.45135498046875	0.00331878662109375	3557.88096601721
0.455780029296875	0.00331390380859375	3558.10221801666
0.460205078125	0.0033087158203125	3558.3234700161
0.464630126953125	0.00330413818359375	3558.54472201554
0.46905517578125	0.00329864501953125	3558.76597401498
0.473480224609375	0.0032940673828125	3558.98722601442
0.4779052734375	0.00328887939453125	3559.20847801386
0.482330322265625	0.0032843017578125	3559.4297300133
0.48675537109375	0.00327972412109375	3559.65098201275
0.491180419921875	0.0032745361328125	3559.87223401219
0.49560546875	0.00326995849609375	3560.09348601163
0.500030517578125	0.00326568603515625	3560.31473801107
0.50445556640625	0.00326171875	3560.53599001051
0.508880615234375	0.0032568359375	3560.75724200995
0.5133056640625	0.003253173828125	3560.97849400939
0.517730712890625	0.0032489013671875	3561.19974600884
0.52215576171875	0.00324432373046875	3561.42099800828
0.526580810546875	0.00324066162109375	3561.64225000772
0.531005859375	0.0032373046875	3561.86350200716
0.535430908203125	0.00323394775390625	3562.0847540066
0.53985595703125	0.00323028564453125	3562.30600600604
0.544281005859375	0.0032275390625	3562.52725800548
0.5487060546875	0.0032232666015625	3562.74851000492
0.553131103515625	0.00322052001953125	3562.96976200437
0.55755615234375	0.0032177734375	3563.19101400381
0.561981201171875	0.00321563720703125	3563.41226600325
0.56640625	0.00321380615234375	3563.63351800269
0.570831298828125	0.003211669921875	3563.85477000213
0.57525634765625	0.0032098388671875	3564.07602200157
0.579681396484375	0.00320770263671875	3564.29727400101
0.5841064453125	0.00320709228515625	3564.51852600046
0.588531494140625	0.003204345703125	3564.7397779999
0.59295654296875	0.003204345703125	3564.96102999934
0.597381591796875	0.003204345703125	3565.18228199878
0.601806640625	0.0032049560546875	3565.40353399822
0.606231689453125	0.00320556640625	3565.62478599766
0.61065673828125	0.0032061767578125	3565.8460379971
0.615081787109375	0.00320770263671875	3566.06728999655
0.6195068359375	0.003209228515625	3566.28854199599
0.623931884765625	0.00321136474609375	3566.50979399543
0.62835693359375	0.00321746826171875	3566.73104599487
0.632781982421875	0.00321990966796875	3566.95229799431
0.63720703125	0.003221435546875	3567.17354999375
0.641632080078125	0.0032244873046875	3567.39480199319
0.64605712890625	0.00322784423828125	3567.61605399264
0.650482177734375	0.00323211669921875	3567.83730599208
0.6549072265625	0.00323638916015625	3568.05855799152
0.659332275390625	0.003240966796875	3568.27980999096
0.66375732421875	0.00324554443359375	3568.5010619904
0.668182373046875	0.0032513427734375	3568.72231398984
0.672607421875	0.00325714111328125	3568.94356598928
0.677032470703125	0.00326385498046875	3569.16481798873
0.68145751953125	0.00327056884765625	3569.38606998817
0.685882568359375	0.0032781982421875	3569.60732198761
0.6903076171875	0.0032855224609375	3569.82857398705
0.694732666015625	0.00329437255859375	3570.04982598649
0.69915771484375	0.00330291748046875	3570.27107798593
0.703582763671875	0.003310546875	3570.49232998537
0.7080078125	0.0033209228515625	3570.71358198481
0.712432861328125	0.003331298828125	3570.93483398426
0.71685791015625	0.00334136962890625	3571.1560859837
0.721282958984375	0.0033526611328125	3571.37733798314
0.7257080078125	0.0033642578125	3571.59858998258
0.730133056640625	0.00337646484375	3571.81984198202
0.73455810546875	0.00338958740234375	3572.04109398146
0.738983154296875	0.003402099609375	3572.2623459809
0.743408203125	0.00341400146484375	3572.48359798035
0.747833251953125	0.003428955078125	3572.70484997979
0.75225830078125	0.003443603515625	3572.92610197923
0.756683349609375	0.00345947265625	3573.14735397867
0.7611083984375	0.00347625732421875	3573.36860597811
0.765533447265625	0.00349273681640625	3573.58985797755
0.76995849609375	0.0035107421875	3573.81110997699
0.774383544921875	0.0035284423828125	3574.03236197644
0.77880859375	0.00354766845703125	3574.25361397588
0.783233642578125	0.00356658935546875	3574.47486597532
0.78765869140625	0.00358673095703125	3574.69611797476
0.792083740234375	0.00360809326171875	3574.9173699742
0.7965087890625	0.00363067626953125	3575.13862197364
0.800933837890625	0.0036541748046875	3575.35987397308
0.80535888671875	0.00367767333984375	3575.58112597253
0.809783935546875	0.00370269775390625	3575.80237797197
0.814208984375	0.00372833251953125	3576.02362997141
0.818634033203125	0.00375518798828125	3576.24488197085
0.82305908203125	0.00378265380859375	3576.46613397029
0.827484130859375	0.00381195068359375	3576.68738596973
0.8319091796875	0.00384246826171875	3576.90863796917
0.836334228515625	0.00387481689453125	3577.12988996862
0.84075927734375	0.00390716552734375	3577.35114196806
0.845184326171875	0.00394073486328125	3577.5723939675
0.849609375	0.00397613525390625	3577.79364596694
0.854034423828125	0.0040130615234375	3578.01489796638
0.85845947265625	0.00405181884765625	3578.23614996582
0.862884521484375	0.00409027099609375	3578.45740196526
0.8673095703125	0.00413177490234375	3578.67865396471
0.871734619140625	0.00417449951171875	3578.89990596415
0.87615966796875	0.00421905517578125	3579.12115796359
0.880584716796875	0.00426513671875	3579.34240996303
0.885009765625	0.00431182861328125	3579.56366196247
0.889434814453125	0.004361572265625	3579.78491396191
0.89385986328125	0.00441192626953125	3580.00616596135
0.898284912109375	0.0044647216796875	3580.22741796079
0.9027099609375	0.0045172119140625	3580.44866996024
0.907135009765625	0.00457244873046875	3580.66992195968
0.91156005859375	0.0046282958984375	3580.89117395912
0.915985107421875	0.004686279296875	3581.11242595856
0.92041015625	0.00474700927734375	3581.333677958
0.924835205078125	0.00480743408203125	3581.55492995744
0.92926025390625	0.00486846923828125	3581.77618195688
0.933685302734375	0.004932861328125	3581.99743395633
0.9381103515625	0.00500091552734375	3582.21868595577
0.942535400390625	0.00506683349609375	3582.43993795521
0.94696044921875	0.0051336669921875	3582.66118995465
0.951385498046875	0.00520263671875	3582.88244195409
0.955810546875	0.0052716064453125	3583.10369395353
0.960235595703125	0.005343017578125	3583.32494595297
0.96466064453125	0.005416259765625	3583.54619795242
0.969085693359375	0.00548980712890625	3583.76744995186
0.9735107421875	0.00556640625	3583.9887019513
0.977935791015625	0.00564117431640625	3584.20995395074
0.98236083984375	0.00572113037109375	3584.43120595018
0.986785888671875	0.005802001953125	3584.65245794962
0.9912109375	0.0058856201171875	3584.87370994906
0.995635986328125	0.0059716796875	3585.09496194851
1.00006103515625	0.00606048583984375	3585.31621394795
0.995635986328125	0.0052764892578125	3585.53746594739
0.9912109375	0.00460113525390625	3585.75871794683
0.986785888671875	0.0040020751953125	3585.97996994627
0.98236083984375	0.00346282958984375	3586.20122194571
0.977935791015625	0.0029730224609375	3586.42247394515
0.9735107421875	0.00252838134765625	3586.6437259446
0.969085693359375	0.002117919921875	3586.86497794404
0.96466064453125	0.00173797607421875	3587.08622994348
0.960235595703125	0.0013861083984375	3587.30748194292
0.955810546875	0.0010595703125	3587.52873394236
0.951385498046875	0.00075592041015625	3587.7499859418
0.94696044921875	0.00047265625	3587.97123794124
0.942535400390625	0.00020855712890625	3588.19248994068
0.9381103515625	-3.765869140625E-05	3588.41374194013
0.933685302734375	-0.0002706298828125	3588.63499393957
0.92926025390625	-0.000484527587890625	3588.85624593901
0.924835205078125	-0.000685028076171875	3589.07749793845
0.92041015625	-0.00087158203125	3589.29874993789
0.915985107421875	-0.00104644775390625	3589.52000193733
0.91156005859375	-0.0012091064453125	3589.74125393677
0.907135009765625	-0.0013604736328125	3589.96250593622
0.9027099609375	-0.0015020751953125	3590.18375793566
0.898284912109375	-0.00163421630859375	3590.4050099351
0.89385986328125	-0.00175689697265625	3590.62626193454
0.889434814453125	-0.0018719482421875	3590.84751393398
0.885009765625	-0.001978759765625	3591.06876593342
0.880584716796875	-0.00207763671875	3591.29001793286
0.87615966796875	-0.00217041015625	3591.51126993231
0.871734619140625	-0.00225616455078125	3591.73252193175
0.8673095703125	-0.00233489990234375	3591.95377393119
0.862884521484375	-0.002408447265625	3592.17502593063
0.85845947265625	-0.00247528076171875	3592.39627793007
0.854034423828125	-0.00253875732421875	3592.61752992951
0.849609375	-0.00259765625	3592.83878192895
0.845184326171875	-0.00265167236328125	3593.0600339284
0.84075927734375	-0.002701416015625	3593.28128592784
0.836334228515625	-0.00274749755859375	3593.50253792728
0.8319091796875	-0.0027899169921875	3593.72378992672
0.827484130859375	-0.00282806396484375	3593.94504192616
0.82305908203125	-0.00286407470703125	3594.1662939256
0.818634033203125	-0.00289642333984375	3594.38754592504
0.814208984375	-0.0029266357421875	3594.60879792449
0.809783935546875	-0.00295440673828125	3594.83004992393
0.80535888671875	-0.0029791259765625	3595.05130192337
0.800933837890625	-0.003001708984375	3595.27255392281
0.7965087890625	-0.00302276611328125	3595.49380592225
0.792083740234375	-0.0030419921875	3595.71505792169
0.78765869140625	-0.00305877685546875	3595.93630992113
0.783233642578125	-0.003074951171875	3596.15756192058
0.77880859375	-0.0030889892578125	3596.37881392002
0.774383544921875	-0.00310211181640625	3596.60006591946
0.76995849609375	-0.00311370849609375	3596.8213179189
0.765533447265625	-0.00312469482421875	3597.04256991834
0.7611083984375	-0.00313507080078125	3597.26382191778
0.756683349609375	-0.00314422607421875	3597.48507391722
0.75225830078125	-0.00315338134765625	3597.70632591666
0.747833251953125	-0.00316009521484375	3597.92757791611
0.743408203125	-0.00316650390625	3598.14882991555
0.738983154296875	-0.0031707763671875	3598.37008191499
0.73455810546875	-0.00317657470703125	3598.59133391443
0.730133056640625	-0.00318145751953125	3598.81258591387
0.7257080078125	-0.00318511962890625	3599.03383791331
0.721282958984375	-0.00318878173828125	3599.25508991275
0.71685791015625	-0.00319244384765625	3599.4763419122
0.712432861328125	-0.0031982421875	3599.69759391164
0.7080078125	-0.00320068359375	3599.91884591108
0.703582763671875	-0.00320281982421875	3600.14009791052
0.69915771484375	-0.0032037353515625	3600.36134990996
0.694732666015625	-0.0032049560546875	3600.5826019094
0.6903076171875	-0.00320587158203125	3600.80385390884
0.685882568359375	-0.00320648193359375	3601.02510590829
0.68145751953125	-0.0032061767578125	3601.24635790773
0.677032470703125	-0.00320831298828125	3601.46760990717
0.672607421875	-0.00321014404296875	3601.68886190661
0.668182373046875	-0.00321075439453125	3601.91011390605
0.66375732421875	-0.0032122802734375	3602.13136590549
0.659332275390625	-0.003212890625	3602.35261790493
0.6549072265625	-0.0032135009765625	3602.57386990438
0.650482177734375	-0.00321380615234375	3602.79512190382
0.64605712890625	-0.00321533203125	3603.01637390326
0.641632080078125	-0.00321533203125	3603.2376259027
0.63720703125	-0.00321624755859375	3603.45887790214
0.632781982421875	-0.0032171630859375	3603.68012990158
0.62835693359375	-0.00321746826171875	3603.90138190102
0.623931884765625	-0.0032208251953125	3604.12263390047
0.6195068359375	-0.0032208251953125	3604.34388589991
0.615081787109375	-0.0032208251953125	3604.56513789935
0.61065673828125	-0.0032208251953125	3604.78638989879
0.606231689453125	-0.00322235107421875	3605.00764189823
0.601806640625	-0.00322357177734375	3605.22889389767
0.597381591796875	-0.00322479248046875	3605.45014589711
0.59295654296875	-0.00322662353515625	3605.67139789655
0.588531494140625	-0.00322845458984375	3605.892649896
0.5841064453125	-0.0032293701171875	3606.11390189544
0.579681396484375	-0.0032318115234375	3606.33515389488
0.57525634765625	-0.0032342529296875	3606.55640589432
0.570831298828125	-0.00323760986328125	3606.77765789376
0.56640625	-0.00324127197265625	3606.9989098932
0.561981201171875	-0.00324371337890625	3607.22016189264
0.55755615234375	-0.00324737548828125	3607.44141389209
0.553131103515625	-0.00325103759765625	3607.66266589153
0.5487060546875	-0.0032550048828125	3607.88391789097
0.544281005859375	-0.00325775146484375	3608.10516989041
0.53985595703125	-0.00326324462890625	3608.32642188985
0.535430908203125	-0.003267822265625	3608.54767388929
0.531005859375	-0.0032733154296875	3608.76892588873
0.526580810546875	-0.00327911376953125	3608.99017788818
0.52215576171875	-0.0032843017578125	3609.21142988762
0.517730712890625	-0.00328948974609375	3609.43268188706
0.5133056640625	-0.00329498291015625	3609.6539338865
0.508880615234375	-0.00330108642578125	3609.87518588594
0.50445556640625	-0.00330718994140625	3610.09643788538
0.500030517578125	-0.00331390380859375	3610.31768988482
0.49560546875	-0.0033209228515625	3610.53894188427
0.491180419921875	-0.00332733154296875	3610.76019388371
0.48675537109375	-0.0033349609375	3610.98144588315
0.482330322265625	-0.0033428955078125	3611.20269788259
0.4779052734375	-0.00335113525390625	3611.42394988203
0.473480224609375	-0.0033587646484375	3611.64520188147
0.46905517578125	-0.00336700439453125	3611.86645388091
0.464630126953125	-0.0033740234375	3612.08770588036
0.460205078125	-0.003382568359375	3612.3089578798
0.455780029296875	-0.00339111328125	3612.53020987924
0.45135498046875	-0.0033990478515625	3612.75146187868
0.446929931640625	-0.00340789794921875	3612.97271387812
0.4425048828125	-0.003416748046875	3613.19396587756
0.438079833984375	-0.0034259033203125	3613.415217877
0.43365478515625	-0.00343505859375	3613.63646987645
0.429229736328125	-0.0034442138671875	3613.85772187589
0.4248046875	-0.003453369140625	3614.07897387533
0.420379638671875	-0.00346343994140625	3614.30022587477
0.41595458984375	-0.00347259521484375	3614.52147787421
0.411529541015625	-0.00348175048828125	3614.74272987365
0.4071044921875	-0.0034918212890625	3614.96398187309
0.402679443359375	-0.0035009765625	3615.18523387253
0.39825439453125	-0.0035107421875	3615.40648587198
0.393829345703125	-0.0035198974609375	3615.62773787142
0.389404296875	-0.00352874755859375	3615.84898987086
0.384979248046875	-0.00353851318359375	3616.0702418703
0.38055419921875	-0.00354827880859375	3616.29149386974
0.376129150390625	-0.00355804443359375	3616.51274586918
0.3717041015625	-0.00356781005859375	3616.73399786862
0.367279052734375	-0.0035772705078125	3616.95524986807
0.36285400390625	-0.00358673095703125	3617.17650186751
0.358428955078125	-0.00359619140625	3617.39775386695
0.35400390625	-0.0036065673828125	3617.61900586639
0.349578857421875	-0.00361419677734375	3617.84025786583
0.34515380859375	-0.00362396240234375	3618.06150986527
0.340728759765625	-0.0036334228515625	3618.28276186471
0.3363037109375	-0.00364410400390625	3618.50401386416
0.331878662109375	-0.00365447998046875	3618.7252658636
0.32745361328125	-0.0036639404296875	3618.94651786304
0.323028564453125	-0.00367462158203125	3619.16776986248
0.318603515625	-0.00368438720703125	3619.38902186192
0.314178466796875	-0.00369415283203125	3619.61027386136
0.30975341796875	-0.0037078857421875	3619.8315258608
0.305328369140625	-0.0037176513671875	3620.05277786025
0.3009033203125	-0.00372711181640625	3620.27402985969
0.296478271484375	-0.00373748779296875	3620.49528185913
0.29205322265625	-0.00374847412109375	3620.71653385857
0.287628173828125	-0.003758544921875	3620.93778585801
0.283203125	-0.0037701416015625	3621.15903785745
0.278778076171875	-0.00378021240234375	3621.38028985689
0.27435302734375	-0.00379150390625	3621.60154185634
0.269927978515625	-0.00380218505859375	3621.82279385578
0.2655029296875	-0.0038140869140625	3622.04404585522
0.261077880859375	-0.0038250732421875	3622.26529785466
0.25665283203125	-0.00383697509765625	3622.4865498541
0.252227783203125	-0.00384857177734375	3622.70780185354
0.247802734375	-0.0038604736328125	3622.92905385298
0.243377685546875	-0.00387237548828125	3623.15030585242
0.23895263671875	-0.0038848876953125	3623.37155785187
0.234527587890625	-0.00389739990234375	3623.59280985131
0.2301025390625	-0.0039080810546875	3623.81406185075
0.225677490234375	-0.00392120361328125	3624.03531385019
0.22125244140625	-0.00393402099609375	3624.25656584963
0.216827392578125	-0.00394683837890625	3624.47781784907
0.21240234375	-0.0039599609375	3624.69906984851
0.207977294921875	-0.003973388671875	3624.92032184796
0.20355224609375	-0.00398681640625	3625.1415738474
0.199127197265625	-0.0040008544921875	3625.36282584684
0.1947021484375	-0.0040130615234375	3625.58407784628
0.190277099609375	-0.00402740478515625	3625.80532984572
0.18585205078125	-0.00404144287109375	3626.02658184516
0.181427001953125	-0.0040557861328125	3626.2478338446
0.177001953125	-0.00406951904296875	3626.46908584405
0.172576904296875	-0.00408355712890625	3626.69033784349
0.16815185546875	-0.00409881591796875	3626.91158984293
0.163726806640625	-0.0041131591796875	3627.13284184237
0.1593017578125	-0.00412933349609375	3627.35409384181
0.154876708984375	-0.00414398193359375	3627.57534584125
0.15045166015625	-0.00416015625	3627.79659784069
0.146026611328125	-0.00417633056640625	3628.01784984014
0.1416015625	-0.00419281005859375	3628.23910183958
0.137176513671875	-0.0042095947265625	3628.46035383902
0.13275146484375	-0.0042266845703125	3628.68160583846
0.128326416015625	-0.00424407958984375	3628.9028578379
0.1239013671875	-0.0042620849609375	3629.12410983734
0.119476318359375	-0.00427947998046875	3629.34536183678
0.11505126953125	-0.00429656982421875	3629.56661383623
0.110626220703125	-0.0043157958984375	3629.78786583567
0.106201171875	-0.00433624267578125	3630.00911783511
0.101776123046875	-0.004356689453125	3630.23036983455
0.09735107421875	-0.00437591552734375	3630.45162183399
0.092926025390625	-0.00439666748046875	3630.67287383343
0.0885009765625	-0.0044183349609375	3630.89412583287
0.084075927734375	-0.00444000244140625	3631.11537783232
0.07965087890625	-0.0044610595703125	3631.33662983176
0.075225830078125	-0.0044830322265625	3631.5578818312
0.07080078125	-0.0045062255859375	3631.77913383064
0.066375732421875	-0.00452911376953125	3632.00038583008
0.06195068359375	-0.00455291748046875	3632.22163782952
0.057525634765625	-0.00457763671875	3632.44288982896
0.0531005859375	-0.00460174560546875	3632.6641418284
0.048675537109375	-0.0046270751953125	3632.88539382785
0.04425048828125	-0.004652099609375	3633.10664582729
0.039825439453125	-0.00467803955078125	3633.32789782673
0.035400390625	-0.0047039794921875	3633.54914982617
0.030975341796875	-0.00473052978515625	3633.77040182561
0.02655029296875	-0.00475830078125	3633.99165382505
0.022125244140625	-0.004786376953125	3634.21290582449
0.0177001953125	-0.00481414794921875	3634.43415782394
0.013275146484375	-0.00484283447265625	3634.65540982338
0.00885009765625	-0.00487152099609375	3634.87666182282
0.004425048828125	-0.00490142822265625	3635.09791382226
0	-0.004931640625	3635.3191658217
0.004425048828125	-0.0040972900390625	3635.54041782114
0.00885009765625	-0.003365478515625	3635.76166982058
0.013275146484375	-0.00271484375	3635.98292182003
0.0177001953125	-0.00213104248046875	3636.20417381947
0.022125244140625	-0.001605224609375	3636.42542581891
0.02655029296875	-0.00112884521484375	3636.64667781835
0.030975341796875	-0.00069793701171875	3636.86792981779
0.035400390625	-0.0003052978515625	3637.08918181723
0.039825439453125	5.21240234375E-05	3637.31043381667
0.04425048828125	0.000378204345703125	3637.53168581612
0.048675537109375	0.00067657470703125	3637.75293781556
0.0531005859375	0.0009490966796875	3637.974189815
0.057525634765625	0.00119903564453125	3638.19544181444
0.06195068359375	0.0014276123046875	3638.41669381388
0.066375732421875	0.00163482666015625	3638.63794581332
0.07080078125	0.0018231201171875	3638.85919781276
0.075225830078125	0.001995849609375	3639.08044981221
0.07965087890625	0.00215179443359375	3639.30170181165
0.084075927734375	0.00229400634765625	3639.52295381109
0.0885009765625	0.0024200439453125	3639.74420581053
0.092926025390625	0.0025347900390625	3639.96545780997
0.09735107421875	0.0026458740234375	3640.18670980941
0.101776123046875	0.002747802734375	3640.40796180885
0.106201171875	0.00283966064453125	3640.62921380829
0.110626220703125	0.00292236328125	3640.85046580774
0.11505126953125	0.002996826171875	3641.07171780718
0.119476318359375	0.0030621337890625	3641.29296980662
0.1239013671875	0.0031231689453125	3641.51422180606
0.128326416015625	0.0031781005859375	3641.7354738055
0.13275146484375	0.0032269287109375	3641.95672580494
0.137176513671875	0.00327117919921875	3642.17797780438
0.1416015625	0.003309326171875	3642.39922980383
0.146026611328125	0.0033441162109375	3642.62048180327
0.15045166015625	0.00337371826171875	3642.84173380271
0.154876708984375	0.00340118408203125	3643.06298580215
0.1593017578125	0.003424072265625	3643.28423780159
0.163726806640625	0.00344451904296875	3643.50548980103
0.16815185546875	0.00346160888671875	3643.72674180047
0.172576904296875	0.0034759521484375	3643.94799379992
0.177001953125	0.00348876953125	3644.16924579936
0.181427001953125	0.0035003662109375	3644.3904977988
0.18585205078125	0.00350830078125	3644.61174979824
0.190277099609375	0.00351470947265625	3644.83300179768
0.1947021484375	0.00352020263671875	3645.05425379712
0.199127197265625	0.003524169921875	3645.27550579656
0.20355224609375	0.0035272216796875	3645.49675779601
0.207977294921875	0.0035284423828125	3645.71800979545
0.21240234375	0.00352935791015625	3645.93926179489
0.216827392578125	0.003529052734375	3646.16051379433
0.22125244140625	0.00352874755859375	3646.38176579377
0.225677490234375	0.0035247802734375	3646.60301779321
0.2301025390625	0.0035223388671875	3646.82426979265
0.234527587890625	0.00351837158203125	3647.0455217921
0.23895263671875	0.00351470947265625	3647.26677379154
0.243377685546875	0.0035101318359375	3647.48802579098
0.247802734375	0.00350494384765625	3647.70927779042
0.252227783203125	0.00350128173828125	3647.93052978986
0.25665283203125	0.00349884033203125	3648.1517817893
0.261077880859375	0.00349853515625	3648.37303378874
0.2655029296875	0.00349395751953125	3648.59428578819
0.269927978515625	0.0034869384765625	3648.81553778763
0.27435302734375	0.00347930908203125	3649.03678978707
0.278778076171875	0.00347137451171875	3649.25804178651
0.283203125	0.003466796875	3649.47929378595
0.287628173828125	0.0034625244140625	3649.70054578539
0.29205322265625	0.00345916748046875	3649.92179778483
0.296478271484375	0.00345428466796875	3650.14304978427
0.3009033203125	0.00344879150390625	3650.36430178372
0.305328369140625	0.0034429931640625	3650.58555378316
0.30975341796875	0.0034381103515625	3650.8068057826
0.314178466796875	0.00343536376953125	3651.02805778204
0.318603515625	0.00342987060546875	3651.24930978148
0.323028564453125	0.00342498779296875	3651.47056178092
0.32745361328125	0.0034197998046875	3651.69181378036
0.331878662109375	0.0034149169921875	3651.91306577981
0.3363037109375	0.00341033935546875	3652.13431777925
0.340728759765625	0.00340667724609375	3652.35556977869
0.34515380859375	0.003402099609375	3652.57682177813
0.349578857421875	0.0033978271484375	3652.79807377757
0.35400390625	0.00339202880859375	3653.01932577701
0.358428955078125	0.00338836669921875	3653.24057777645
0.36285400390625	0.003385009765625	3653.4618297759
0.367279052734375	0.00338165283203125	3653.68308177534
0.3717041015625	0.0033782958984375	3653.90433377478
0.376129150390625	0.00337554931640625	3654.12558577422
0.38055419921875	0.0033709716796875	3654.34683777366
0.384979248046875	0.0033685302734375	3654.5680897731
0.389404296875	0.00336456298828125	3654.78934177254
0.393829345703125	0.00336029052734375	3655.01059377199
0.39825439453125	0.00335693359375	3655.23184577143
0.402679443359375	0.00335296630859375	3655.45309777087
0.4071044921875	0.00334991455078125	3655.67434977031
0.411529541015625	0.00334625244140625	3655.89560176975
0.41595458984375	0.00334136962890625	3656.11685376919
0.420379638671875	0.00333740234375	3656.33810576863
0.4248046875	0.00333282470703125	3656.55935776808
0.429229736328125	0.0033282470703125	3656.78060976752
0.43365478515625	0.0033233642578125	3657.00186176696
0.438079833984375	0.003319091796875	3657.2231137664
0.4425048828125	0.0033135986328125	3657.44436576584
0.446929931640625	0.003309326171875	3657.66561776528
0.45135498046875	0.0033038330078125	3657.88686976472
0.455780029296875	0.00329833984375	3658.10812176416
0.460205078125	0.00329345703125	3658.32937376361
0.464630126953125	0.00328857421875	3658.55062576305
0.46905517578125	0.0032830810546875	3658.77187776249
0.473480224609375	0.0032781982421875	3658.99312976193
0.4779052734375	0.0032733154296875	3659.21438176137
0.482330322265625	0.00326873779296875	3659.43563376081
0.48675537109375	0.0032635498046875	3659.65688576025
0.491180419921875	0.0032586669921875	3659.8781377597
0.49560546875	0.00325439453125	3660.09938975914
0.500030517578125	0.00324951171875	3660.32064175858
0.50445556640625	0.00324462890625	3660.54189375802
0.508880615234375	0.00324005126953125	3660.76314575746
0.5133056640625	0.0032354736328125	3660.9843977569
0.517730712890625	0.0032318115234375	3661.20564975634
0.52215576171875	0.00322784423828125	3661.42690175579
0.526580810546875	0.00322418212890625	3661.64815375523
0.531005859375	0.00321929931640625	3661.86940575467
0.535430908203125	0.0032159423828125	3662.09065775411
0.53985595703125	0.0032122802734375	3662.31190975355
0.544281005859375	0.00320892333984375	3662.53316175299
0.5487060546875	0.003204345703125	3662.75441375243
0.553131103515625	0.00320220947265625	3662.97566575188
0.55755615234375	0.00320037841796875	3663.19691775132
0.561981201171875	0.00319732666015625	3663.41816975076
0.56640625	0.00319580078125	3663.6394217502
0.570831298828125	0.003193359375	3663.86067374964
0.57525634765625	0.00319183349609375	3664.08192574908
0.579681396484375	0.00319000244140625	3664.30317774852
0.5841064453125	0.00318878173828125	3664.52442974797
0.588531494140625	0.0031854248046875	3664.74568174741
0.59295654296875	0.0031854248046875	3664.96693374685
0.597381591796875	0.00318511962890625	3665.18818574629
0.601806640625	0.003184814453125	3665.40943774573
0.606231689453125	0.00318603515625	3665.63068974517
0.61065673828125	0.00318695068359375	3665.85194174461
0.615081787109375	0.003187255859375	3666.07319374406
0.6195068359375	0.00318878173828125	3666.2944457435
0.623931884765625	0.00319061279296875	3666.51569774294
0.62835693359375	0.00319671630859375	3666.73694974238
0.632781982421875	0.0031988525390625	3666.95820174182
0.63720703125	0.0032012939453125	3667.17945374126
0.641632080078125	0.00320465087890625	3667.4007057407
0.64605712890625	0.00320709228515625	3667.62195774014
0.650482177734375	0.00321044921875	3667.84320973959
0.6549072265625	0.00321441650390625	3668.06446173903
0.659332275390625	0.003218994140625	3668.28571373847
0.66375732421875	0.0032244873046875	3668.50696573791
0.668182373046875	0.003228759765625	3668.72821773735
0.672607421875	0.0032342529296875	3668.94946973679
0.677032470703125	0.003240966796875	3669.17072173623
0.68145751953125	0.003248291015625	3669.39197373568
0.685882568359375	0.0032550048828125	3669.61322573512
0.6903076171875	0.00326263427734375	3669.83447773456
0.694732666015625	0.003271484375	3670.055729734
0.69915771484375	0.00327911376953125	3670.27698173344
0.703582763671875	0.00328704833984375	3670.49823373288
0.7080078125	0.00329620361328125	3670.71948573232
0.712432861328125	0.00330657958984375	3670.94073773177
0.71685791015625	0.003316650390625	3671.16198973121
0.721282958984375	0.00332794189453125	3671.38324173065
0.7257080078125	0.0033392333984375	3671.60449373009
0.730133056640625	0.003350830078125	3671.82574572953
0.73455810546875	0.00336334228515625	3672.04699772897
0.738983154296875	0.0033758544921875	3672.26824972841
0.743408203125	0.00338714599609375	3672.48950172786
0.747833251953125	0.0034014892578125	3672.7107537273
0.75225830078125	0.00341583251953125	3672.93200572674
0.756683349609375	0.003431396484375	3673.15325772618
0.7611083984375	0.003447265625	3673.37450972562
0.765533447265625	0.003463134765625	3673.59576172506
0.76995849609375	0.003480224609375	3673.8170137245
0.774383544921875	0.00349822998046875	3674.03826572395
0.77880859375	0.003516845703125	3674.25951772339
0.783233642578125	0.00353515625	3674.48076972283
0.78765869140625	0.0035552978515625	3674.70202172227
0.792083740234375	0.00357574462890625	3674.92327372171
0.7965087890625	0.00359771728515625	3675.14452572115
0.800933837890625	0.003619384765625	3675.36577772059
0.80535888671875	0.0036431884765625	3675.58702972003
0.809783935546875	0.00366790771484375	3675.80828171948
0.814208984375	0.00369293212890625	3676.02953371892
0.818634033203125	0.003719482421875	3676.25078571836
0.82305908203125	0.003746337890625	3676.4720377178
0.827484130859375	0.003775634765625	3676.69328971724
0.8319091796875	0.00380401611328125	3676.91454171668
0.836334228515625	0.00383575439453125	3677.13579371612
0.84075927734375	0.00386749267578125	3677.35704571557
0.845184326171875	0.0039013671875	3677.57829771501
0.849609375	0.0039349365234375	3677.79954971445
0.854034423828125	0.00397125244140625	3678.02080171389
0.85845947265625	0.00400848388671875	3678.24205371333
0.862884521484375	0.00404693603515625	3678.46330571277
0.8673095703125	0.0040869140625	3678.68455771221
0.871734619140625	0.004129638671875	3678.90580971166
0.87615966796875	0.00417327880859375	3679.1270617111
0.880584716796875	0.00421783447265625	3679.34831371054
0.885009765625	0.004263916015625	3679.56956570998
0.889434814453125	0.00431182861328125	3679.79081770942
0.89385986328125	0.00436126708984375	3680.01206970886
0.898284912109375	0.00441162109375	3680.2333217083
0.9027099609375	0.004464111328125	3680.45457370775
0.907135009765625	0.0045184326171875	3680.67582570719
0.91156005859375	0.00457305908203125	3680.89707770663
0.915985107421875	0.004630126953125	3681.11832970607
0.92041015625	0.0046881103515625	3681.33958170551
0.924835205078125	0.00474822998046875	3681.56083370495
0.92926025390625	0.0048089599609375	3681.78208570439
0.933685302734375	0.0048712158203125	3682.00333770384
0.9381103515625	0.004937744140625	3682.22458970328
0.942535400390625	0.0050030517578125	3682.44584170272
0.94696044921875	0.00506866455078125	3682.66709370216
0.951385498046875	0.00513580322265625	3682.8883457016
0.955810546875	0.005205078125	3683.10959770104
0.960235595703125	0.005274658203125	3683.33084970048
0.96466064453125	0.0053460693359375	3683.55210169993
0.969085693359375	0.00541900634765625	3683.77335369937
0.9735107421875	0.0054937744140625	3683.99460569881
0.977935791015625	0.00556884765625	3684.21585769825
0.98236083984375	0.0056475830078125	3684.43710969769
0.986785888671875	0.0057275390625	3684.65836169713
0.9912109375	0.00581085205078125	3684.87961369657
0.995635986328125	0.0058966064453125	3685.10086569601
1.00006103515625	0.00598480224609375	3685.32211769546
0.995635986328125	0.0052099609375	3685.5433696949
0.9912109375	0.0045367431640625	3685.76462169434
0.986785888671875	0.003939208984375	3685.98587369378
0.98236083984375	0.00340179443359375	3686.20712569322
0.977935791015625	0.00291473388671875	3686.42837769266
0.9735107421875	0.00247161865234375	3686.6496296921
0.969085693359375	0.00206207275390625	3686.87088169155
0.96466064453125	0.00168426513671875	3687.09213369099
0.960235595703125	0.0013348388671875	3687.31338569043
0.955810546875	0.0010107421875	3687.53463768987
0.951385498046875	0.0007098388671875	3687.75588968931
0.94696044921875	0.00042938232421875	3687.97714168875
0.942535400390625	0.00016790771484375	3688.19839368819
0.9381103515625	-7.537841796875E-05	3688.41964568764
0.933685302734375	-0.000305633544921875	3688.64089768708
0.92926025390625	-0.0005169677734375	3688.86214968652
0.924835205078125	-0.000714111328125	3689.08340168596
0.92041015625	-0.0008984375	3689.3046536854
0.915985107421875	-0.00107025146484375	3689.52590568484
0.91156005859375	-0.00123046875	3689.74715768428
0.907135009765625	-0.00137939453125	3689.96840968373
0.9027099609375	-0.00151885986328125	3690.18966168317
0.898284912109375	-0.00164794921875	3690.41091368261
0.89385986328125	-0.001768798828125	3690.63216568205
0.889434814453125	-0.00188140869140625	3690.85341768149
0.885009765625	-0.00198577880859375	3691.07466968093
0.880584716796875	-0.00208251953125	3691.29592168037
0.87615966796875	-0.00217315673828125	3691.51717367982
0.871734619140625	-0.00225677490234375	3691.73842567926
0.8673095703125	-0.002333984375	3691.9596776787
0.862884521484375	-0.00240570068359375	3692.18092967814
0.85845947265625	-0.00247100830078125	3692.40218167758
0.854034423828125	-0.00253265380859375	3692.62343367702
0.849609375	-0.0025897216796875	3692.84468567646
0.845184326171875	-0.0026422119140625	3693.0659376759
0.84075927734375	-0.0026904296875	3693.28718967535
0.836334228515625	-0.00273529052734375	3693.50844167479
0.8319091796875	-0.00277618408203125	3693.72969367423
0.827484130859375	-0.00281341552734375	3693.95094567367
0.82305908203125	-0.00284759521484375	3694.17219767311
0.818634033203125	-0.00287933349609375	3694.39344967255
0.814208984375	-0.0029083251953125	3694.61470167199
0.809783935546875	-0.00293487548828125	3694.83595367144
0.80535888671875	-0.00295867919921875	3695.05720567088
0.800933837890625	-0.00298065185546875	3695.27845767032
0.7965087890625	-0.0030010986328125	3695.49970966976
0.792083740234375	-0.0030194091796875	3695.7209616692
0.78765869140625	-0.00303619384765625	3695.94221366864
0.783233642578125	-0.00305145263671875	3696.16346566808
0.77880859375	-0.00306549072265625	3696.38471766753
0.774383544921875	-0.00307769775390625	3696.60596966697
0.76995849609375	-0.00308929443359375	3696.82722166641
0.765533447265625	-0.0030999755859375	3697.04847366585
0.7611083984375	-0.0031097412109375	3697.26972566529
0.756683349609375	-0.00311798095703125	3697.49097766473
0.75225830078125	-0.003126220703125	3697.71222966417
0.747833251953125	-0.00313323974609375	3697.93348166362
0.743408203125	-0.0031402587890625	3698.15473366306
0.738983154296875	-0.00314453125	3698.3759856625
0.73455810546875	-0.0031494140625	3698.59723766194
0.730133056640625	-0.00315460205078125	3698.81848966138
0.7257080078125	-0.0031591796875	3699.03974166082
0.721282958984375	-0.0031622314453125	3699.26099366026
0.71685791015625	-0.003165283203125	3699.48224565971
0.712432861328125	-0.00317108154296875	3699.70349765915
0.7080078125	-0.00317413330078125	3699.92474965859
0.703582763671875	-0.00317535400390625	3700.14600165803
0.69915771484375	-0.00317626953125	3700.36725365747
0.694732666015625	-0.00317779541015625	3700.58850565691
0.6903076171875	-0.0031793212890625	3700.80975765635
0.685882568359375	-0.003179931640625	3701.0310096558
0.68145751953125	-0.0031805419921875	3701.25226165524
0.677032470703125	-0.00318115234375	3701.47351365468
0.672607421875	-0.0031829833984375	3701.69476565412
0.668182373046875	-0.003184814453125	3701.91601765356
0.66375732421875	-0.0031866455078125	3702.137269653
0.659332275390625	-0.003187255859375	3702.35852165244
0.6549072265625	-0.00318817138671875	3702.57977365188
0.650482177734375	-0.0031878662109375	3702.80102565133
0.64605712890625	-0.00318939208984375	3703.02227765077
0.641632080078125	-0.0031903076171875	3703.24352965021
0.63720703125	-0.00319183349609375	3703.46478164965
0.632781982421875	-0.003192138671875	3703.68603364909
0.62835693359375	-0.00319305419921875	3703.90728564853
0.623931884765625	-0.00319732666015625	3704.12853764797
0.6195068359375	-0.0031964111328125	3704.34978964742
0.615081787109375	-0.0031964111328125	3704.57104164686
0.61065673828125	-0.00319793701171875	3704.7922936463
0.606231689453125	-0.00319854736328125	3705.01354564574
0.601806640625	-0.0032000732421875	3705.23479764518
0.597381591796875	-0.0032012939453125	3705.45604964462
0.59295654296875	-0.0032037353515625	3705.67730164406
0.588531494140625	-0.00320587158203125	3705.89855364351
0.5841064453125	-0.0032061767578125	3706.11980564295
0.579681396484375	-0.00320953369140625	3706.34105764239
0.57525634765625	-0.0032122802734375	3706.56230964183
0.570831298828125	-0.00321533203125	3706.78356164127
0.56640625	-0.0032196044921875	3707.00481364071
0.561981201171875	-0.00322265625	3707.22606564015
0.55755615234375	-0.003226318359375	3707.4473176396
0.553131103515625	-0.0032305908203125	3707.66856963904
0.5487060546875	-0.00323486328125	3707.88982163848
0.544281005859375	-0.00323822021484375	3708.11107363792
0.53985595703125	-0.0032427978515625	3708.33232563736
0.535430908203125	-0.00324798583984375	3708.5535776368
0.531005859375	-0.00325286865234375	3708.77482963624
0.526580810546875	-0.00325836181640625	3708.99608163569
0.52215576171875	-0.00326416015625	3709.21733363513
0.517730712890625	-0.00326934814453125	3709.43858563457
0.5133056640625	-0.00327545166015625	3709.65983763401
0.508880615234375	-0.0032818603515625	3709.88108963345
0.50445556640625	-0.00328857421875	3710.10234163289
0.500030517578125	-0.00329437255859375	3710.32359363233
0.49560546875	-0.00330169677734375	3710.54484563177
0.491180419921875	-0.0033087158203125	3710.76609763122
0.48675537109375	-0.003316650390625	3710.98734963066
0.482330322265625	-0.00332427978515625	3711.2086016301
0.4779052734375	-0.003331298828125	3711.42985362954
0.473480224609375	-0.00333984375	3711.65110562898
0.46905517578125	-0.0033477783203125	3711.87235762842
0.464630126953125	-0.0033551025390625	3712.09360962786
0.460205078125	-0.00336395263671875	3712.31486162731
0.455780029296875	-0.00337249755859375	3712.53611362675
0.45135498046875	-0.0033819580078125	3712.75736562619
0.446929931640625	-0.00339080810546875	3712.97861762563
0.4425048828125	-0.003399658203125	3713.19986962507
0.438079833984375	-0.0034088134765625	3713.42112162451
0.43365478515625	-0.0034185791015625	3713.64237362395
0.429229736328125	-0.0034271240234375	3713.8636256234
0.4248046875	-0.0034368896484375	3714.08487762284
0.420379638671875	-0.00344573974609375	3714.30612962228
0.41595458984375	-0.00345550537109375	3714.52738162172
0.411529541015625	-0.0034649658203125	3714.74863362116
0.4071044921875	-0.0034747314453125	3714.9698856206
0.402679443359375	-0.00348388671875	3715.19113762004
0.39825439453125	-0.00349334716796875	3715.41238961949
0.393829345703125	-0.00350372314453125	3715.63364161893
0.389404296875	-0.00351226806640625	3715.85489361837
0.384979248046875	-0.003521728515625	3716.07614561781
0.38055419921875	-0.00353179931640625	3716.29739761725
0.376129150390625	-0.00354156494140625	3716.51864961669
0.3717041015625	-0.00355133056640625	3716.73990161613
0.367279052734375	-0.00356109619140625	3716.96115361558
0.36285400390625	-0.003570556640625	3717.18240561502
0.358428955078125	-0.00358001708984375	3717.40365761446
0.35400390625	-0.00359039306640625	3717.6249096139
0.349578857421875	-0.0035980224609375	3717.84616161334
0.34515380859375	-0.0036083984375	3718.06741361278
0.340728759765625	-0.00361785888671875	3718.28866561222
0.3363037109375	-0.00362762451171875	3718.50991761167
0.331878662109375	-0.00363739013671875	3718.73116961111
0.32745361328125	-0.00364776611328125	3718.95242161055
0.323028564453125	-0.00365814208984375	3719.17367360999
0.318603515625	-0.00366790771484375	3719.39492560943
0.314178466796875	-0.00367828369140625	3719.61617760887
0.30975341796875	-0.00369110107421875	3719.83742960831
0.305328369140625	-0.00370147705078125	3720.05868160775
0.3009033203125	-0.00371124267578125	3720.2799336072
0.296478271484375	-0.00372100830078125	3720.50118560664
0.29205322265625	-0.00373077392578125	3720.72243760608
0.287628173828125	-0.0037408447265625	3720.94368960552
0.283203125	-0.00375244140625	3721.16494160496
0.278778076171875	-0.00376220703125	3721.3861936044
0.27435302734375	-0.0037738037109375	3721.60744560384
0.269927978515625	-0.0037847900390625	3721.82869760329
0.2655029296875	-0.00379608154296875	3722.04994960273
0.261077880859375	-0.0038067626953125	3722.27120160217
0.25665283203125	-0.00381866455078125	3722.49245360161
0.252227783203125	-0.0038299560546875	3722.71370560105
0.247802734375	-0.003841552734375	3722.93495760049
0.243377685546875	-0.0038543701171875	3723.15620959993
0.23895263671875	-0.003865966796875	3723.37746159938
0.234527587890625	-0.00387908935546875	3723.59871359882
0.2301025390625	-0.00389007568359375	3723.81996559826
0.225677490234375	-0.0039031982421875	3724.0412175977
0.22125244140625	-0.00391510009765625	3724.26246959714
0.216827392578125	-0.00392822265625	3724.48372159658
0.21240234375	-0.0039410400390625	3724.70497359602
0.207977294921875	-0.003953857421875	3724.92622559547
0.20355224609375	-0.00396728515625	3725.14747759491
0.199127197265625	-0.0039813232421875	3725.36872959435
0.1947021484375	-0.003994140625	3725.58998159379
0.190277099609375	-0.0040081787109375	3725.81123359323
0.18585205078125	-0.004022216796875	3726.03248559267
0.181427001953125	-0.00403656005859375	3726.25373759211
0.177001953125	-0.00405059814453125	3726.47498959156
0.172576904296875	-0.00406494140625	3726.696241591
0.16815185546875	-0.00407958984375	3726.91749359044
0.163726806640625	-0.0040948486328125	3727.13874558988
0.1593017578125	-0.004110107421875	3727.35999758932
0.154876708984375	-0.00412567138671875	3727.58124958876
0.15045166015625	-0.004140625	3727.8025015882
0.146026611328125	-0.00415679931640625	3728.02375358764
0.1416015625	-0.00417266845703125	3728.24500558709
0.137176513671875	-0.00418975830078125	3728.46625758653
0.13275146484375	-0.0042071533203125	3728.68750958597
0.128326416015625	-0.0042242431640625	3728.90876158541
0.1239013671875	-0.0042431640625	3729.13001358485
0.119476318359375	-0.004261474609375	3729.35126558429
0.11505126953125	-0.0042779541015625	3729.57251758373
0.110626220703125	-0.0042974853515625	3729.79376958318
0.106201171875	-0.0043170166015625	3730.01502158262
0.101776123046875	-0.0043377685546875	3730.23627358206
0.09735107421875	-0.00435760498046875	3730.4575255815
0.092926025390625	-0.0043792724609375	3730.67877758094
0.0885009765625	-0.00440032958984375	3730.90002958038
0.084075927734375	-0.00442169189453125	3731.12128157982
0.07965087890625	-0.004444580078125	3731.34253357927
0.075225830078125	-0.00446563720703125	3731.56378557871
0.07080078125	-0.00448883056640625	3731.78503757815
0.066375732421875	-0.0045123291015625	3732.00628957759
0.06195068359375	-0.0045361328125	3732.22754157703
0.057525634765625	-0.00456085205078125	3732.44879357647
0.0531005859375	-0.00458587646484375	3732.67004557591
0.048675537109375	-0.0046112060546875	3732.89129757536
0.04425048828125	-0.0046368408203125	3733.1125495748
0.039825439453125	-0.00466339111328125	3733.33380157424
0.035400390625	-0.00468994140625	3733.55505357368
0.030975341796875	-0.00471710205078125	3733.77630557312
0.02655029296875	-0.00474395751953125	3733.99755757256
0.022125244140625	-0.004771728515625	3734.218809572
0.0177001953125	-0.0048004150390625	3734.44006157145
0.013275146484375	-0.00483001708984375	3734.66131357089
0.00885009765625	-0.00485870361328125	3734.88256557033
0.004425048828125	-0.0048895263671875	3735.10381756977
0	-0.00491973876953125	3735.32506956921
0.004425048828125	-0.00408538818359375	3735.54632156865
0.00885009765625	-0.0033538818359375	3735.76757356809
0.013275146484375	-0.002703857421875	3735.98882556754
