Potential applied (V)	WE(1).Current (A)	Time (s)
0.004425048828125	-0.0014752197265625	3435.52861032612
0.00885009765625	-0.000946044921875	3435.74986232557
0.013275146484375	-0.000481231689453125	3435.97111432501
0.0177001953125	-6.7413330078125E-05	3436.19236632445
0.022125244140625	0.000303985595703125	3436.41361832389
0.02655029296875	0.000638427734375	3436.63487032333
0.030975341796875	0.00094024658203125	3436.85612232277
0.035400390625	0.00121429443359375	3437.07737432221
0.039825439453125	0.00146148681640625	3437.29862632166
0.04425048828125	0.0016851806640625	3437.5198783211
0.048675537109375	0.00189178466796875	3437.74113032054
0.0531005859375	0.00207733154296875	3437.96238231998
0.057525634765625	0.00224456787109375	3438.18363431942
0.06195068359375	0.0023956298828125	3438.40488631886
0.066375732421875	0.00253143310546875	3438.6261383183
0.07080078125	0.00265472412109375	3438.84739031775
0.075225830078125	0.0027703857421875	3439.06864231719
0.07965087890625	0.00287445068359375	3439.28989431663
0.084075927734375	0.002969970703125	3439.51114631607
0.0885009765625	0.003056640625	3439.73239831551
0.092926025390625	0.00313507080078125	3439.95365031495
0.09735107421875	0.00320587158203125	3440.17490231439
0.101776123046875	0.00326904296875	3440.39615431383
0.106201171875	0.00332550048828125	3440.61740631328
0.110626220703125	0.00337646484375	3440.83865831272
0.11505126953125	0.00342193603515625	3441.05991031216
0.119476318359375	0.00345977783203125	3441.2811623116
0.1239013671875	0.00349609375	3441.50241431104
0.128326416015625	0.00352752685546875	3441.72366631048
0.13275146484375	0.00355499267578125	3441.94491830992
0.137176513671875	0.0035791015625	3442.16617030937
0.1416015625	0.00359893798828125	3442.38742230881
0.146026611328125	0.00361602783203125	3442.60867430825
0.15045166015625	0.00363128662109375	3442.82992630769
0.154876708984375	0.0036444091796875	3443.05117830713
0.1593017578125	0.00365325927734375	3443.27243030657
0.163726806640625	0.00366119384765625	3443.49368230601
0.16815185546875	0.003668212890625	3443.71493430546
0.172576904296875	0.003673095703125	3443.9361863049
0.177001953125	0.003675537109375	3444.15743830434
0.181427001953125	0.0036773681640625	3444.37869030378
0.18585205078125	0.00367767333984375	3444.59994230322
0.190277099609375	0.00367706298828125	3444.82119430266
0.1947021484375	0.0036761474609375	3445.0424463021
0.199127197265625	0.00367218017578125	3445.26369830155
0.20355224609375	0.00366912841796875	3445.48495030099
0.207977294921875	0.0036651611328125	3445.70620230043
0.21240234375	0.003660888671875	3445.92745429987
0.216827392578125	0.0036553955078125	3446.14870629931
0.22125244140625	0.0036492919921875	3446.36995829875
0.225677490234375	0.00364288330078125	3446.59121029819
0.2301025390625	0.00363739013671875	3446.81246229764
0.234527587890625	0.0036322021484375	3447.03371429708
0.23895263671875	0.00363128662109375	3447.25496629652
0.243377685546875	0.003624267578125	3447.47621829596
0.247802734375	0.00361602783203125	3447.6974702954
0.252227783203125	0.0036077880859375	3447.91872229484
0.25665283203125	0.00359954833984375	3448.13997429428
0.261077880859375	0.0035931396484375	3448.36122629372
0.2655029296875	0.00358856201171875	3448.58247829317
0.269927978515625	0.0035845947265625	3448.80373029261
0.27435302734375	0.003577880859375	3449.02498229205
0.278778076171875	0.00357147216796875	3449.24623429149
0.283203125	0.003564453125	3449.46748629093
0.287628173828125	0.0035589599609375	3449.68873829037
0.29205322265625	0.00355255126953125	3449.90999028981
0.296478271484375	0.00354644775390625	3450.13124228926
0.3009033203125	0.0035406494140625	3450.3524942887
0.305328369140625	0.00353485107421875	3450.57374628814
0.30975341796875	0.0035296630859375	3450.79499828758
0.314178466796875	0.00352752685546875	3451.01625028702
0.318603515625	0.00352264404296875	3451.23750228646
0.323028564453125	0.0035174560546875	3451.4587542859
0.32745361328125	0.00351318359375	3451.68000628535
0.331878662109375	0.00350860595703125	3451.90125828479
0.3363037109375	0.003504638671875	3452.12251028423
0.340728759765625	0.0035009765625	3452.34376228367
0.34515380859375	0.003497314453125	3452.56501428311
0.349578857421875	0.00349365234375	3452.78626628255
0.35400390625	0.00348846435546875	3453.00751828199
0.358428955078125	0.003485107421875	3453.22877028144
0.36285400390625	0.00348236083984375	3453.45002228088
0.367279052734375	0.0034796142578125	3453.67127428032
0.3717041015625	0.0034765625	3453.89252627976
0.376129150390625	0.00347412109375	3454.1137782792
0.38055419921875	0.0034716796875	3454.33503027864
0.384979248046875	0.00346893310546875	3454.55628227808
0.389404296875	0.00346649169921875	3454.77753427753
0.393829345703125	0.00346221923828125	3454.99878627697
0.39825439453125	0.00345977783203125	3455.22003827641
0.402679443359375	0.00345733642578125	3455.44129027585
0.4071044921875	0.00345428466796875	3455.66254227529
0.411529541015625	0.0034503173828125	3455.88379427473
0.41595458984375	0.00344757080078125	3456.10504627417
0.420379638671875	0.0034442138671875	3456.32629827362
0.4248046875	0.00344024658203125	3456.54755027306
0.429229736328125	0.003436279296875	3456.7688022725
0.43365478515625	0.00343292236328125	3456.99005427194
0.438079833984375	0.0034283447265625	3457.21130627138
0.4425048828125	0.003424072265625	3457.43255827082
0.446929931640625	0.00341949462890625	3457.65381027026
0.45135498046875	0.00341522216796875	3457.8750622697
0.455780029296875	0.00341156005859375	3458.09631426915
0.460205078125	0.00340728759765625	3458.31756626859
0.464630126953125	0.0034033203125	3458.53881826803
0.46905517578125	0.0033984375	3458.76007026747
0.473480224609375	0.00339447021484375	3458.98132226691
0.4779052734375	0.0033905029296875	3459.20257426635
0.482330322265625	0.00338623046875	3459.42382626579
0.48675537109375	0.00338287353515625	3459.64507826524
0.491180419921875	0.00337890625	3459.86633026468
0.49560546875	0.003375244140625	3460.08758226412
0.500030517578125	0.00337188720703125	3460.30883426356
0.50445556640625	0.003367919921875	3460.530086263
0.508880615234375	0.00336456298828125	3460.75133826244
0.5133056640625	0.00336151123046875	3460.97259026188
0.517730712890625	0.00335784912109375	3461.19384226133
0.52215576171875	0.00335418701171875	3461.41509426077
0.526580810546875	0.003350830078125	3461.63634626021
0.531005859375	0.00334747314453125	3461.85759825965
0.535430908203125	0.0033447265625	3462.07885025909
0.53985595703125	0.00334136962890625	3462.30010225853
0.544281005859375	0.0033392333984375	3462.52135425797
0.5487060546875	0.00333526611328125	3462.74260625742
0.553131103515625	0.00333251953125	3462.96385825686
0.55755615234375	0.00333038330078125	3463.1851102563
0.561981201171875	0.00332763671875	3463.40636225574
0.56640625	0.0033258056640625	3463.62761425518
0.570831298828125	0.00332427978515625	3463.84886625462
0.57525634765625	0.0033221435546875	3464.07011825406
0.579681396484375	0.00332061767578125	3464.29137025351
0.5841064453125	0.00331939697265625	3464.51262225295
0.588531494140625	0.00331695556640625	3464.73387425239
0.59295654296875	0.003316650390625	3464.95512625183
0.597381591796875	0.0033172607421875	3465.17637825127
0.601806640625	0.0033172607421875	3465.39763025071
0.606231689453125	0.00331817626953125	3465.61888225015
0.61065673828125	0.00332000732421875	3465.84013424959
0.615081787109375	0.00332061767578125	3466.06138624904
0.6195068359375	0.00332244873046875	3466.28263824848
0.623931884765625	0.00332489013671875	3466.50389024792
0.62835693359375	0.00333099365234375	3466.72514224736
0.632781982421875	0.00333343505859375	3466.9463942468
0.63720703125	0.003336181640625	3467.16764624624
0.641632080078125	0.00333953857421875	3467.38889824568
0.64605712890625	0.003343505859375	3467.61015024513
0.650482177734375	0.0033477783203125	3467.83140224457
0.6549072265625	0.00335235595703125	3468.05265424401
0.659332275390625	0.00335784912109375	3468.27390624345
0.66375732421875	0.00336334228515625	3468.49515824289
0.668182373046875	0.00336883544921875	3468.71641024233
0.672607421875	0.0033758544921875	3468.93766224177
0.677032470703125	0.003382568359375	3469.15891424122
0.68145751953125	0.003389892578125	3469.38016624066
0.685882568359375	0.0033984375	3469.6014182401
0.6903076171875	0.003406982421875	3469.82267023954
0.694732666015625	0.0034161376953125	3470.04392223898
0.69915771484375	0.0034259033203125	3470.26517423842
0.703582763671875	0.00343414306640625	3470.48642623786
0.7080078125	0.00344512939453125	3470.70767823731
0.712432861328125	0.0034564208984375	3470.92893023675
0.71685791015625	0.00346771240234375	3471.15018223619
0.721282958984375	0.003480224609375	3471.37143423563
0.7257080078125	0.0034930419921875	3471.59268623507
0.730133056640625	0.0035064697265625	3471.81393823451
0.73455810546875	0.003519287109375	3472.03519023395
0.738983154296875	0.003533935546875	3472.2564422334
0.743408203125	0.003546142578125	3472.47769423284
0.747833251953125	0.00356292724609375	3472.69894623228
0.75225830078125	0.0035784912109375	3472.92019823172
0.756683349609375	0.00359466552734375	3473.14145023116
0.7611083984375	0.003612060546875	3473.3627022306
0.765533447265625	0.00363037109375	3473.58395423004
0.76995849609375	0.003648681640625	3473.80520622949
0.774383544921875	0.00366851806640625	3474.02645822893
0.77880859375	0.0036883544921875	3474.24771022837
0.783233642578125	0.00370758056640625	3474.46896222781
0.78765869140625	0.0037298583984375	3474.69021422725
0.792083740234375	0.00375213623046875	3474.91146622669
0.7965087890625	0.00377532958984375	3475.13271822613
0.800933837890625	0.00379974365234375	3475.35397022557
0.80535888671875	0.00382476806640625	3475.57522222502
0.809783935546875	0.00385101318359375	3475.79647422446
0.814208984375	0.0038775634765625	3476.0177262239
0.818634033203125	0.00390655517578125	3476.23897822334
0.82305908203125	0.0039349365234375	3476.46023022278
0.827484130859375	0.00396514892578125	3476.68148222222
0.8319091796875	0.00399658203125	3476.90273422166
0.836334228515625	0.004029541015625	3477.12398622111
0.84075927734375	0.0040631103515625	3477.34523822055
0.845184326171875	0.00409912109375	3477.56649021999
0.849609375	0.00413604736328125	3477.78774221943
0.854034423828125	0.004173583984375	3478.00899421887
0.85845947265625	0.00421356201171875	3478.23024621831
0.862884521484375	0.0042529296875	3478.45149821775
0.8673095703125	0.00429534912109375	3478.6727502172
0.871734619140625	0.00433929443359375	3478.89400221664
0.87615966796875	0.00438568115234375	3479.11525421608
0.880584716796875	0.00443267822265625	3479.33650621552
0.885009765625	0.00448089599609375	3479.55775821496
0.889434814453125	0.00453094482421875	3479.7790102144
0.89385986328125	0.00458221435546875	3480.00026221384
0.898284912109375	0.00463623046875	3480.22151421329
0.9027099609375	0.00469024658203125	3480.44276621273
0.907135009765625	0.00474639892578125	3480.66401821217
0.91156005859375	0.00480377197265625	3480.88527021161
0.915985107421875	0.0048638916015625	3481.10652221105
0.92041015625	0.00492462158203125	3481.32777421049
0.924835205078125	0.00498626708984375	3481.54902620993
0.92926025390625	0.0050494384765625	3481.77027820938
0.933685302734375	0.0051141357421875	3481.99153020882
0.9381103515625	0.00518341064453125	3482.21278220826
0.942535400390625	0.00524993896484375	3482.4340342077
0.94696044921875	0.00531890869140625	3482.65528620714
0.951385498046875	0.00538818359375	3482.87653820658
0.955810546875	0.00545928955078125	3483.09779020602
0.960235595703125	0.00553070068359375	3483.31904220546
0.96466064453125	0.005604248046875	3483.54029420491
0.969085693359375	0.00567962646484375	3483.76154620435
0.9735107421875	0.00575469970703125	3483.98279820379
0.977935791015625	0.00583038330078125	3484.20405020323
0.98236083984375	0.0059100341796875	3484.42530220267
0.986785888671875	0.00599029541015625	3484.64655420211
0.9912109375	0.00607330322265625	3484.86780620155
0.995635986328125	0.0061492919921875	3485.089058201
1.00006103515625	0.006231689453125	3485.31031020044
0.995635986328125	0.005450439453125	3485.53156219988
0.9912109375	0.0047705078125	3485.75281419932
0.986785888671875	0.00416595458984375	3485.97406619876
0.98236083984375	0.00362091064453125	3486.1953181982
0.977935791015625	0.00312591552734375	3486.41657019764
0.9735107421875	0.00267333984375	3486.63782219709
0.969085693359375	0.00225616455078125	3486.85907419653
0.96466064453125	0.00186981201171875	3487.08032619597
0.960235595703125	0.00151123046875	3487.30157819541
0.955810546875	0.001177978515625	3487.52283019485
0.951385498046875	0.00086822509765625	3487.74408219429
0.94696044921875	0.00057861328125	3487.96533419373
0.942535400390625	0.0003084716796875	3488.18658619318
0.9381103515625	5.6121826171875E-05	3488.40783819262
0.933685302734375	-0.0001822509765625	3488.62909019206
0.92926025390625	-0.00040203857421875	3488.8503421915
0.924835205078125	-0.00060760498046875	3489.07159419094
0.92041015625	-0.000799560546875	3489.29284619038
0.915985107421875	-0.00097930908203125	3489.51409818982
0.91156005859375	-0.00114654541015625	3489.73535018927
0.907135009765625	-0.00130279541015625	3489.95660218871
0.9027099609375	-0.00144866943359375	3490.17785418815
0.898284912109375	-0.00158538818359375	3490.39910618759
0.89385986328125	-0.001712646484375	3490.62035818703
0.889434814453125	-0.0018316650390625	3490.84161018647
0.885009765625	-0.00194183349609375	3491.06286218591
0.880584716796875	-0.002044677734375	3491.28411418536
0.87615966796875	-0.00214019775390625	3491.5053661848
0.871734619140625	-0.00222930908203125	3491.72661818424
0.8673095703125	-0.00231201171875	3491.94787018368
0.862884521484375	-0.002388916015625	3492.16912218312
0.85845947265625	-0.002459716796875	3492.39037418256
0.854034423828125	-0.002525634765625	3492.611626182
0.849609375	-0.002586669921875	3492.83287818144
0.845184326171875	-0.0026434326171875	3493.05413018089
0.84075927734375	-0.0026953125	3493.27538218033
0.836334228515625	-0.0027435302734375	3493.49663417977
0.8319091796875	-0.00278839111328125	3493.71788617921
0.827484130859375	-0.002828369140625	3493.93913817865
0.82305908203125	-0.00286590576171875	3494.16039017809
0.818634033203125	-0.00290008544921875	3494.38164217753
0.814208984375	-0.00293243408203125	3494.60289417698
0.809783935546875	-0.00296112060546875	3494.82414617642
0.80535888671875	-0.00298736572265625	3495.04539817586
0.800933837890625	-0.003011474609375	3495.2666501753
0.7965087890625	-0.00303436279296875	3495.48790217474
0.792083740234375	-0.00305450439453125	3495.70915417418
0.78765869140625	-0.00307373046875	3495.93040617362
0.783233642578125	-0.0030902099609375	3496.15165817307
0.77880859375	-0.00310546875	3496.37291017251
0.774383544921875	-0.00311920166015625	3496.59416217195
0.76995849609375	-0.00313201904296875	3496.81541417139
0.765533447265625	-0.00314361572265625	3497.03666617083
0.7611083984375	-0.003154296875	3497.25791817027
0.756683349609375	-0.00316436767578125	3497.47917016971
0.75225830078125	-0.003172607421875	3497.70042216916
0.747833251953125	-0.00318115234375	3497.9216741686
0.743408203125	-0.0031878662109375	3498.14292616804
0.738983154296875	-0.00319244384765625	3498.36417816748
0.73455810546875	-0.0031982421875	3498.58543016692
0.730133056640625	-0.0032037353515625	3498.80668216636
0.7257080078125	-0.0032080078125	3499.0279341658
0.721282958984375	-0.00321197509765625	3499.24918616525
0.71685791015625	-0.00321502685546875	3499.47043816469
0.712432861328125	-0.0032183837890625	3499.69169016413
0.7080078125	-0.00322479248046875	3499.91294216357
0.703582763671875	-0.0032269287109375	3500.13419416301
0.69915771484375	-0.00322784423828125	3500.35544616245
0.694732666015625	-0.00322967529296875	3500.57669816189
0.6903076171875	-0.003231201171875	3500.79795016133
0.685882568359375	-0.00323211669921875	3501.01920216078
0.68145751953125	-0.00323272705078125	3501.24045416022
0.677032470703125	-0.00323089599609375	3501.46170615966
0.672607421875	-0.00323272705078125	3501.6829581591
0.668182373046875	-0.003236083984375	3501.90421015854
0.66375732421875	-0.003236083984375	3502.12546215798
0.659332275390625	-0.00323760986328125	3502.34671415742
0.6549072265625	-0.0032379150390625	3502.56796615687
0.650482177734375	-0.0032379150390625	3502.78921815631
0.64605712890625	-0.0032379150390625	3503.01047015575
0.641632080078125	-0.00324005126953125	3503.23172215519
0.63720703125	-0.00324005126953125	3503.45297415463
0.632781982421875	-0.00324005126953125	3503.67422615407
0.62835693359375	-0.0032403564453125	3503.89547815351
0.623931884765625	-0.0032440185546875	3504.11673015296
0.6195068359375	-0.0032427978515625	3504.3379821524
0.615081787109375	-0.0032421875	3504.55923415184
0.61065673828125	-0.0032427978515625	3504.78048615128
0.606231689453125	-0.00324310302734375	3505.00173815072
0.601806640625	-0.0032440185546875	3505.22299015016
0.597381591796875	-0.00324493408203125	3505.4442421496
0.59295654296875	-0.0032464599609375	3505.66549414905
0.588531494140625	-0.00324859619140625	3505.88674614849
0.5841064453125	-0.003248291015625	3506.10799814793
0.579681396484375	-0.00325103759765625	3506.32925014737
0.57525634765625	-0.0032537841796875	3506.55050214681
0.570831298828125	-0.00325653076171875	3506.77175414625
0.56640625	-0.00325958251953125	3506.99300614569
0.561981201171875	-0.0032623291015625	3507.21425814514
0.55755615234375	-0.00326568603515625	3507.43551014458
0.553131103515625	-0.0032696533203125	3507.65676214402
0.5487060546875	-0.003272705078125	3507.87801414346
0.544281005859375	-0.00327667236328125	3508.0992661429
0.53985595703125	-0.003280029296875	3508.32051814234
0.535430908203125	-0.003284912109375	3508.54177014178
0.531005859375	-0.00329010009765625	3508.76302214123
0.526580810546875	-0.00329437255859375	3508.98427414067
0.52215576171875	-0.00329986572265625	3509.20552614011
0.517730712890625	-0.0033056640625	3509.42677813955
0.5133056640625	-0.003311767578125	3509.64803013899
0.508880615234375	-0.00331695556640625	3509.86928213843
0.50445556640625	-0.00332366943359375	3510.09053413787
0.500030517578125	-0.003330078125	3510.31178613731
0.49560546875	-0.00333648681640625	3510.53303813676
0.491180419921875	-0.00334259033203125	3510.7542901362
0.48675537109375	-0.0033502197265625	3510.97554213564
0.482330322265625	-0.0033575439453125	3511.19679413508
0.4779052734375	-0.0033642578125	3511.41804613452
0.473480224609375	-0.0033721923828125	3511.63929813396
0.46905517578125	-0.00338043212890625	3511.8605501334
0.464630126953125	-0.00338714599609375	3512.08180213285
0.460205078125	-0.00339599609375	3512.30305413229
0.455780029296875	-0.00340423583984375	3512.52430613173
0.45135498046875	-0.0034130859375	3512.74555813117
0.446929931640625	-0.0034210205078125	3512.96681013061
0.4425048828125	-0.0034295654296875	3513.18806213005
0.438079833984375	-0.00343841552734375	3513.40931412949
0.43365478515625	-0.0034478759765625	3513.63056612894
0.429229736328125	-0.003455810546875	3513.85181812838
0.4248046875	-0.00346588134765625	3514.07307012782
0.420379638671875	-0.00347503662109375	3514.29432212726
0.41595458984375	-0.00348480224609375	3514.5155741267
0.411529541015625	-0.00349395751953125	3514.73682612614
0.4071044921875	-0.00350372314453125	3514.95807812558
0.402679443359375	-0.00351318359375	3515.17933012503
0.39825439453125	-0.0035223388671875	3515.40058212447
0.393829345703125	-0.00353240966796875	3515.62183412391
0.389404296875	-0.00354034423828125	3515.84308612335
0.384979248046875	-0.00355010986328125	3516.06433812279
0.38055419921875	-0.00355987548828125	3516.28559012223
0.376129150390625	-0.0035693359375	3516.50684212167
