Time (s)	WE(1).Potential (V)
2354.12474105641	0.090576171875
2354.13474105638	0.091583251953125
2354.14474105636	0.09259033203125
2354.15474105633	0.093597412109375
2354.16474105631	0.094573974609375
2354.17474105628	0.0955810546875
2354.18474105626	0.096588134765625
2354.19474105623	0.09759521484375
2354.2047410562	0.098602294921875
2354.21474105618	0.099609375
2354.22474105615	0.1005859375
2354.23474105613	0.101593017578125
2354.2447410561	0.102569580078125
2354.25474105608	0.103546142578125
2354.26474105605	0.10455322265625
2354.27474105603	0.10552978515625
2354.284741056	0.10650634765625
2354.29474105598	0.10748291015625
2354.30474105595	0.108489990234375
2354.31474105593	0.10943603515625
2354.3247410559	0.110382080078125
2354.33474105588	0.111358642578125
2354.34474105585	0.112335205078125
2354.35474105583	0.11328125
2354.3647410558	0.1142578125
2354.37474105578	0.115234375
2354.38474105575	0.116180419921875
2354.39474105572	0.11712646484375
2354.4047410557	0.11810302734375
2354.41474105567	0.119049072265625
2354.42474105565	0.1199951171875
2354.43474105562	0.120941162109375
2354.4447410556	0.12188720703125
2354.45474105557	0.122833251953125
2354.46474105555	0.123779296875
2354.47474105552	0.124725341796875
2354.4847410555	0.125640869140625
2354.49474105547	0.1265869140625
2354.50474105545	0.127532958984375
2354.51474105542	0.128448486328125
2354.5247410554	0.12939453125
2354.53474105537	0.13031005859375
2354.54474105535	0.131256103515625
2354.55474105532	0.132171630859375
2354.5647410553	0.133087158203125
2354.57474105527	0.134002685546875
2354.58474105525	0.13494873046875
2354.59474105522	0.1358642578125
2354.60474105519	0.13677978515625
2354.61474105517	0.1376953125
2354.62474105514	0.13861083984375
2354.63474105512	0.1395263671875
2354.64474105509	0.140411376953125
2354.65474105507	0.14129638671875
2354.66474105504	0.142181396484375
2354.67474105502	0.143096923828125
2354.68474105499	0.14398193359375
2354.69474105497	0.1448974609375
2354.70474105494	0.145782470703125
2354.71474105492	0.146697998046875
2354.72474105489	0.1475830078125
2354.73474105487	0.148468017578125
2354.74474105484	0.14935302734375
2354.75474105482	0.150238037109375
2354.76474105479	0.151123046875
2354.77474105477	0.152008056640625
2354.78474105474	0.15289306640625
2354.79474105471	0.153778076171875
2354.80474105469	0.1546630859375
2354.81474105466	0.155517578125
2354.82474105464	0.1563720703125
2354.83474105461	0.157257080078125
2354.84474105459	0.158111572265625
2354.85474105456	0.15899658203125
2354.86474105454	0.15985107421875
2354.87474105451	0.16070556640625
2354.88474105449	0.161590576171875
2354.89474105446	0.162445068359375
2354.90474105444	0.163299560546875
2354.91474105441	0.164154052734375
2354.92474105439	0.165008544921875
2354.93474105436	0.165863037109375
2354.94474105434	0.166717529296875
2354.95474105431	0.16754150390625
2354.96474105429	0.16839599609375
2354.97474105426	0.16925048828125
2354.98474105424	0.17010498046875
2354.99474105421	0.170928955078125
2355.00474105418	0.171783447265625
2355.01474105416	0.172576904296875
2355.02474105413	0.17340087890625
2355.03474105411	0.17425537109375
2355.04474105408	0.175079345703125
2355.05474105406	0.1759033203125
2355.06474105403	0.176727294921875
2355.07474105401	0.177581787109375
2355.08474105398	0.17840576171875
2355.09474105396	0.179229736328125
2355.10474105393	0.180023193359375
2355.11474105391	0.18084716796875
2355.12474105388	0.181671142578125
2355.13474105386	0.182464599609375
2355.14474105383	0.18328857421875
2355.15474105381	0.18408203125
2355.16474105378	0.184906005859375
2355.17474105376	0.185699462890625
2355.18474105373	0.1865234375
2355.19474105371	0.18731689453125
2355.20474105368	0.1881103515625
2355.21474105365	0.18890380859375
2355.22474105363	0.189697265625
2355.2347410536	0.19049072265625
2355.24474105358	0.1912841796875
2355.25474105355	0.19207763671875
2355.26474105353	0.192840576171875
2355.2747410535	0.193634033203125
2355.28474105348	0.194427490234375
2355.29474105345	0.1951904296875
2355.30474105343	0.195953369140625
2355.3147410534	0.196746826171875
2355.32474105338	0.197509765625
2355.33474105335	0.198272705078125
2355.34474105333	0.19903564453125
2355.3547410533	0.1998291015625
2355.36474105328	0.2005615234375
2355.37474105325	0.201324462890625
2355.38474105323	0.20208740234375
2355.3947410532	0.202850341796875
2355.40474105317	0.20355224609375
2355.41474105315	0.204315185546875
2355.42474105312	0.205078125
2355.4347410531	0.205810546875
2355.44474105307	0.20654296875
2355.45474105305	0.207305908203125
2355.46474105302	0.208038330078125
2355.474741053	0.208770751953125
2355.48474105297	0.20953369140625
2355.49474105295	0.210235595703125
2355.50474105292	0.210968017578125
2355.5147410529	0.211700439453125
2355.52474105287	0.212432861328125
2355.53474105285	0.213134765625
2355.54474105282	0.2138671875
2355.5547410528	0.214599609375
2355.56474105277	0.215301513671875
2355.57474105275	0.216033935546875
2355.58474105272	0.21673583984375
2355.5947410527	0.21746826171875
2355.60474105267	0.218170166015625
2355.61474105264	0.2188720703125
2355.62474105262	0.21954345703125
2355.63474105259	0.220245361328125
2355.64474105257	0.220947265625
2355.65474105254	0.221649169921875
2355.66474105252	0.22235107421875
2355.67474105249	0.223052978515625
2355.68474105247	0.2237548828125
2355.69474105244	0.22442626953125
2355.70474105242	0.225128173828125
2355.71474105239	0.225830078125
2355.72474105237	0.22650146484375
2355.73474105234	0.2271728515625
2355.74474105232	0.22784423828125
2355.75474105229	0.228546142578125
2355.76474105227	0.229217529296875
2355.77474105224	0.229888916015625
2355.78474105222	0.230560302734375
2355.79474105219	0.231231689453125
2355.80474105216	0.231903076171875
2355.81474105214	0.232574462890625
2355.82474105211	0.23321533203125
2355.83474105209	0.23388671875
2355.84474105206	0.234527587890625
2355.85474105204	0.23516845703125
2355.86474105201	0.235809326171875
2355.87474105199	0.236480712890625
2355.88474105196	0.23712158203125
2355.89474105194	0.237762451171875
2355.90474105191	0.2384033203125
2355.91474105189	0.23907470703125
2355.92474105186	0.239715576171875
2355.93474105184	0.240325927734375
2355.94474105181	0.240966796875
2355.95474105179	0.241607666015625
2355.96474105176	0.24224853515625
2355.97474105174	0.24285888671875
2355.98474105171	0.243499755859375
2355.99474105169	0.244110107421875
2356.00474105166	0.244720458984375
2356.01474105163	0.245361328125
2356.02474105161	0.2459716796875
2356.03474105158	0.24658203125
2356.04474105156	0.247222900390625
2356.05474105153	0.247833251953125
2356.06474105151	0.248443603515625
2356.07474105148	0.249053955078125
2356.08474105146	0.2496337890625
2356.09474105143	0.250213623046875
2356.10474105141	0.250823974609375
2356.11474105138	0.25140380859375
2356.12474105136	0.25201416015625
2356.13474105133	0.25262451171875
2356.14474105131	0.253204345703125
2356.15474105128	0.2537841796875
2356.16474105126	0.25439453125
2356.17474105123	0.254974365234375
2356.18474105121	0.25555419921875
2356.19474105118	0.25616455078125
2356.20474105115	0.256744384765625
2356.21474105113	0.25732421875
2356.2247410511	0.25787353515625
2356.23474105108	0.258453369140625
2356.24474105105	0.259033203125
2356.25474105103	0.259613037109375
2356.264741051	0.26019287109375
2356.27474105098	0.2607421875
2356.28474105095	0.261322021484375
2356.29474105093	0.26190185546875
2356.3047410509	0.262481689453125
2356.31474105088	0.263031005859375
2356.32474105085	0.26361083984375
2356.33474105083	0.26416015625
2356.3447410508	0.264739990234375
2356.35474105078	0.265289306640625
2356.36474105075	0.26580810546875
2356.37474105073	0.266357421875
2356.3847410507	0.266937255859375
2356.39474105068	0.267486572265625
2356.40474105065	0.268035888671875
2356.41474105062	0.268585205078125
2356.4247410506	0.269134521484375
2356.43474105057	0.269683837890625
2356.44474105055	0.270233154296875
2356.45474105052	0.270782470703125
2356.4647410505	0.271331787109375
2356.47474105047	0.271881103515625
2356.48474105045	0.272430419921875
2356.49474105042	0.272979736328125
2356.5047410504	0.273529052734375
2356.51474105037	0.2740478515625
2356.52474105035	0.27459716796875
2356.53474105032	0.275146484375
2356.5447410503	0.27569580078125
2356.55474105027	0.276214599609375
2356.56474105025	0.276763916015625
2356.57474105022	0.277313232421875
2356.5847410502	0.27783203125
2356.59474105017	0.27838134765625
2356.60474105015	0.278900146484375
2356.61474105012	0.279449462890625
2356.62474105009	0.279998779296875
2356.63474105007	0.280517578125
2356.64474105004	0.28106689453125
2356.65474105002	0.28155517578125
2356.66474104999	0.2821044921875
2356.67474104997	0.282623291015625
2356.68474104994	0.283172607421875
2356.69474104992	0.28369140625
2356.70474104989	0.284210205078125
2356.71474104987	0.284759521484375
2356.72474104984	0.2852783203125
2356.73474104982	0.28582763671875
2356.74474104979	0.286346435546875
2356.75474104977	0.286865234375
2356.76474104974	0.28741455078125
2356.77474104972	0.287933349609375
2356.78474104969	0.2884521484375
2356.79474104967	0.28900146484375
2356.80474104964	0.289520263671875
2356.81474104961	0.2900390625
2356.82474104959	0.290557861328125
2356.83474104956	0.291107177734375
2356.84474104954	0.2916259765625
2356.85474104951	0.29217529296875
2356.86474104949	0.292694091796875
2356.87474104946	0.293243408203125
2356.88474104944	0.29376220703125
2356.89474104941	0.294281005859375
2356.90474104939	0.294830322265625
2356.91474104936	0.29534912109375
2356.92474104934	0.2958984375
2356.93474104931	0.296417236328125
2356.94474104929	0.29693603515625
2356.95474104926	0.297454833984375
2356.96474104924	0.2979736328125
2356.97474104921	0.29852294921875
2356.98474104919	0.299072265625
2356.99474104916	0.299591064453125
2357.00474104914	0.300140380859375
2357.01474104911	0.3006591796875
2357.02474104908	0.30120849609375
2357.03474104906	0.3017578125
2357.04474104903	0.302276611328125
2357.05474104901	0.302825927734375
2357.06474104898	0.303375244140625
2357.07474104896	0.303924560546875
2357.08474104893	0.304443359375
2357.09474104891	0.30499267578125
2357.10474104888	0.3055419921875
2357.11474104886	0.30609130859375
2357.12474104883	0.306640625
2357.13474104881	0.307159423828125
2357.14474104878	0.307708740234375
2357.15474104876	0.308258056640625
2357.16474104873	0.308807373046875
2357.17474104871	0.309356689453125
2357.18474104868	0.309906005859375
2357.19474104866	0.310455322265625
2357.20474104863	0.31103515625
2357.2147410486	0.31158447265625
2357.22474104858	0.3121337890625
2357.23474104855	0.31268310546875
2357.24474104853	0.313232421875
2357.2547410485	0.31378173828125
2357.26474104848	0.3143310546875
2357.27474104845	0.31488037109375
2357.28474104843	0.3154296875
2357.2947410484	0.316009521484375
2357.30474104838	0.316558837890625
2357.31474104835	0.317108154296875
2357.32474104833	0.31768798828125
2357.3347410483	0.3182373046875
2357.34474104828	0.31878662109375
2357.35474104825	0.319366455078125
2357.36474104823	0.319915771484375
2357.3747410482	0.320465087890625
2357.38474104818	0.321044921875
2357.39474104815	0.32159423828125
2357.40474104813	0.3221435546875
2357.4147410481	0.322723388671875
2357.42474104807	0.323272705078125
2357.43474104805	0.3238525390625
2357.44474104802	0.32440185546875
2357.454741048	0.324981689453125
2357.46474104797	0.325531005859375
2357.47474104795	0.32611083984375
2357.48474104792	0.326690673828125
2357.4947410479	0.327239990234375
2357.50474104787	0.32781982421875
2357.51474104785	0.328338623046875
2357.52474104782	0.328887939453125
2357.5347410478	0.3294677734375
2357.54474104777	0.33001708984375
2357.55474104775	0.330596923828125
2357.56474104772	0.3311767578125
2357.5747410477	0.33172607421875
2357.58474104767	0.332305908203125
2357.59474104765	0.332855224609375
2357.60474104762	0.33343505859375
2357.6147410476	0.334014892578125
2357.62474104757	0.334564208984375
2357.63474104754	0.33514404296875
2357.64474104752	0.335693359375
2357.65474104749	0.33624267578125
2357.66474104747	0.336822509765625
2357.67474104744	0.33740234375
2357.68474104742	0.33795166015625
2357.69474104739	0.338531494140625
2357.70474104737	0.339080810546875
2357.71474104734	0.33966064453125
2357.72474104732	0.3402099609375
2357.73474104729	0.340789794921875
2357.74474104727	0.34136962890625
2357.75474104724	0.3419189453125
2357.76474104722	0.342498779296875
2357.77474104719	0.343048095703125
2357.78474104717	0.3436279296875
2357.79474104714	0.344146728515625
2357.80474104712	0.3447265625
2357.81474104709	0.34527587890625
2357.82474104706	0.345855712890625
2357.83474104704	0.346405029296875
2357.84474104701	0.34698486328125
2357.85474104699	0.3475341796875
2357.86474104696	0.348114013671875
2357.87474104694	0.348663330078125
2357.88474104691	0.3492431640625
2357.89474104689	0.34979248046875
2357.90474104686	0.350372314453125
2357.91474104684	0.350921630859375
2357.92474104681	0.351470947265625
2357.93474104679	0.352020263671875
2357.94474104676	0.35260009765625
2357.95474104674	0.3531494140625
2357.96474104671	0.353729248046875
2357.97474104669	0.354278564453125
2357.98474104666	0.354827880859375
2357.99474104664	0.35540771484375
2358.00474104661	0.35595703125
2358.01474104659	0.35650634765625
2358.02474104656	0.357086181640625
2358.03474104653	0.357635498046875
2358.04474104651	0.358184814453125
2358.05474104648	0.3587646484375
2358.06474104646	0.35931396484375
2358.07474104643	0.359832763671875
2358.08474104641	0.360382080078125
2358.09474104638	0.3609619140625
2358.10474104636	0.36151123046875
2358.11474104633	0.362060546875
2358.12474104631	0.362640380859375
2358.13474104628	0.363189697265625
2358.14474104626	0.363739013671875
2358.15474104623	0.364288330078125
2358.16474104621	0.3648681640625
2358.17474104618	0.36541748046875
2358.18474104616	0.365966796875
2358.19474104613	0.366546630859375
2358.20474104611	0.367095947265625
2358.21474104608	0.367645263671875
2358.22474104605	0.368194580078125
2358.23474104603	0.368743896484375
2358.244741046	0.36932373046875
2358.25474104598	0.369873046875
2358.26474104595	0.37042236328125
2358.27474104593	0.371002197265625
2358.2847410459	0.371551513671875
2358.29474104588	0.372100830078125
2358.30474104585	0.372650146484375
2358.31474104583	0.37322998046875
2358.3247410458	0.373779296875
2358.33474104578	0.37432861328125
2358.34474104575	0.374908447265625
2358.35474104573	0.37542724609375
2358.3647410457	0.3759765625
2358.37474104568	0.376556396484375
2358.38474104565	0.377105712890625
2358.39474104563	0.377655029296875
2358.4047410456	0.37823486328125
2358.41474104558	0.3787841796875
2358.42474104555	0.37933349609375
2358.43474104552	0.379913330078125
2358.4447410455	0.380462646484375
2358.45474104547	0.381011962890625
2358.46474104545	0.381591796875
2358.47474104542	0.38214111328125
2358.4847410454	0.382720947265625
2358.49474104537	0.38323974609375
2358.50474104535	0.383819580078125
2358.51474104532	0.384368896484375
2358.5247410453	0.38494873046875
2358.53474104527	0.385498046875
2358.54474104525	0.38604736328125
2358.55474104522	0.386627197265625
2358.5647410452	0.387176513671875
2358.57474104517	0.38775634765625
2358.58474104515	0.3883056640625
2358.59474104512	0.38885498046875
2358.6047410451	0.389434814453125
2358.61474104507	0.389984130859375
2358.62474104505	0.390533447265625
2358.63474104502	0.391082763671875
2358.64474104499	0.391632080078125
2358.65474104497	0.3922119140625
2358.66474104494	0.39276123046875
2358.67474104492	0.393341064453125
2358.68474104489	0.393890380859375
2358.69474104487	0.394439697265625
2358.70474104484	0.39501953125
2358.71474104482	0.39556884765625
2358.72474104479	0.396148681640625
2358.73474104477	0.396728515625
2358.74474104474	0.39727783203125
2358.75474104472	0.397857666015625
2358.76474104469	0.398406982421875
2358.77474104467	0.398956298828125
2358.78474104464	0.3995361328125
2358.79474104462	0.40008544921875
2358.80474104459	0.400665283203125
2358.81474104457	0.401214599609375
2358.82474104454	0.40179443359375
2358.83474104451	0.40234375
2358.84474104449	0.402923583984375
2358.85474104446	0.403472900390625
2358.86474104444	0.404052734375
2358.87474104441	0.40460205078125
2358.88474104439	0.405181884765625
2358.89474104436	0.405731201171875
2358.90474104434	0.406280517578125
2358.91474104431	0.406829833984375
2358.92474104429	0.40740966796875
2358.93474104426	0.407958984375
2358.94474104424	0.408538818359375
2358.95474104421	0.409088134765625
2358.96474104419	0.40966796875
2358.97474104416	0.41021728515625
2358.98474104414	0.410797119140625
2358.99474104411	0.411346435546875
2359.00474104409	0.41192626953125
2359.01474104406	0.4124755859375
2359.02474104404	0.413055419921875
2359.03474104401	0.413604736328125
2359.04474104398	0.414154052734375
2359.05474104396	0.414703369140625
2359.06474104393	0.415283203125
2359.07474104391	0.41583251953125
2359.08474104388	0.416412353515625
2359.09474104386	0.416961669921875
2359.10474104383	0.41754150390625
2359.11474104381	0.4180908203125
2359.12474104378	0.41864013671875
2359.13474104376	0.419219970703125
2359.14474104373	0.419769287109375
2359.15474104371	0.42034912109375
2359.16474104368	0.4208984375
2359.17474104366	0.42144775390625
2359.18474104363	0.4219970703125
2359.19474104361	0.42254638671875
2359.20474104358	0.423095703125
2359.21474104356	0.423675537109375
2359.22474104353	0.424224853515625
2359.2347410435	0.424774169921875
2359.24474104348	0.42535400390625
2359.25474104345	0.4259033203125
2359.26474104343	0.426483154296875
2359.2747410434	0.427032470703125
2359.28474104338	0.427581787109375
2359.29474104335	0.42816162109375
2359.30474104333	0.4287109375
2359.3147410433	0.42926025390625
2359.32474104328	0.429840087890625
2359.33474104325	0.430389404296875
2359.34474104323	0.430938720703125
2359.3547410432	0.4315185546875
2359.36474104318	0.43206787109375
2359.37474104315	0.4326171875
2359.38474104313	0.433197021484375
2359.3947410431	0.433746337890625
2359.40474104308	0.434326171875
2359.41474104305	0.43487548828125
2359.42474104303	0.4354248046875
2359.434741043	0.436004638671875
2359.44474104297	0.436553955078125
2359.45474104295	0.437103271484375
2359.46474104292	0.437652587890625
2359.4747410429	0.438232421875
2359.48474104287	0.43878173828125
2359.49474104285	0.4393310546875
2359.50474104282	0.439910888671875
2359.5147410428	0.440460205078125
2359.52474104277	0.4410400390625
2359.53474104275	0.44158935546875
2359.54474104272	0.442138671875
2359.5547410427	0.442718505859375
2359.56474104267	0.443267822265625
2359.57474104265	0.44384765625
2359.58474104262	0.44439697265625
2359.5947410426	0.4449462890625
2359.60474104257	0.445526123046875
2359.61474104255	0.446075439453125
2359.62474104252	0.446624755859375
2359.6347410425	0.44720458984375
2359.64474104247	0.44775390625
2359.65474104244	0.448333740234375
2359.66474104242	0.448883056640625
2359.67474104239	0.449462890625
2359.68474104237	0.45001220703125
2359.69474104234	0.450592041015625
2359.70474104232	0.451141357421875
2359.71474104229	0.451690673828125
2359.72474104227	0.4522705078125
2359.73474104224	0.45281982421875
2359.74474104222	0.453369140625
2359.75474104219	0.45391845703125
2359.76474104217	0.4544677734375
2359.77474104214	0.455047607421875
2359.78474104212	0.45562744140625
2359.79474104209	0.4561767578125
2359.80474104207	0.45672607421875
2359.81474104204	0.457305908203125
2359.82474104202	0.4578857421875
2359.83474104199	0.45843505859375
2359.84474104196	0.459014892578125
2359.85474104194	0.459564208984375
2359.86474104191	0.46014404296875
2359.87474104189	0.460693359375
2359.88474104186	0.46124267578125
2359.89474104184	0.461822509765625
2359.90474104181	0.462371826171875
2359.91474104179	0.46295166015625
2359.92474104176	0.4635009765625
2359.93474104174	0.464080810546875
2359.94474104171	0.464630126953125
2359.95474104169	0.4652099609375
2359.96474104166	0.465789794921875
2359.97474104164	0.466339111328125
2359.98474104161	0.4669189453125
2359.99474104159	0.46746826171875
2360.00474104156	0.468048095703125
2360.01474104154	0.468597412109375
2360.02474104151	0.469146728515625
2360.03474104149	0.4697265625
2360.04474104146	0.47027587890625
2360.05474104143	0.470855712890625
2360.06474104141	0.471405029296875
2360.07474104138	0.47198486328125
2360.08474104136	0.472564697265625
2360.09474104133	0.473114013671875
2360.10474104131	0.47369384765625
2360.11474104128	0.4742431640625
2360.12474104126	0.474822998046875
2360.13474104123	0.47540283203125
2360.14474104121	0.475982666015625
2360.15474104118	0.476531982421875
2360.16474104116	0.477081298828125
2360.17474104113	0.4776611328125
2360.18474104111	0.478240966796875
2360.19474104108	0.478790283203125
2360.20474104106	0.4793701171875
2360.21474104103	0.479949951171875
2360.22474104101	0.480499267578125
2360.23474104098	0.4810791015625
2360.24474104095	0.481658935546875
2360.25474104093	0.482208251953125
2360.2647410409	0.4827880859375
2360.27474104088	0.483367919921875
2360.28474104085	0.48394775390625
2360.29474104083	0.484466552734375
2360.3047410408	0.48504638671875
2360.31474104078	0.485595703125
2360.32474104075	0.486175537109375
2360.33474104073	0.48675537109375
2360.3447410407	0.487335205078125
2360.35474104068	0.487884521484375
2360.36474104065	0.48846435546875
2360.37474104063	0.489044189453125
2360.3847410406	0.4896240234375
2360.39474104058	0.490203857421875
2360.40474104055	0.490753173828125
2360.41474104053	0.4913330078125
2360.4247410405	0.491912841796875
2360.43474104048	0.492462158203125
2360.44474104045	0.4930419921875
2360.45474104042	0.493621826171875
2360.4647410404	0.49420166015625
2360.47474104037	0.494781494140625
2360.48474104035	0.495361328125
2360.49474104032	0.495941162109375
2360.5047410403	0.496490478515625
2360.51474104027	0.497100830078125
2360.52474104025	0.4976806640625
2360.53474104022	0.49822998046875
2360.5447410402	0.498809814453125
2360.55474104017	0.4993896484375
2360.56474104015	0.4998779296875
2360.57474104012	0.50048828125
2360.5847410401	0.5010986328125
2360.59474104007	0.501708984375
2360.60474104005	0.5023193359375
2360.61474104002	0.50262451171875
2360.62474104	0.50323486328125
2360.63474103997	0.50384521484375
2360.64474103995	0.50445556640625
2360.65474103992	0.50506591796875
2360.66474103989	0.50567626953125
2360.67474103987	0.50628662109375
2360.68474103984	0.50689697265625
2360.69474103982	0.50750732421875
2360.70474103979	0.50811767578125
2360.71474103977	0.50872802734375
2360.72474103974	0.50933837890625
2360.73474103972	0.5096435546875
2360.74474103969	0.51025390625
2360.75474103967	0.5108642578125
2360.76474103964	0.511474609375
2360.77474103962	0.5120849609375
2360.78474103959	0.5126953125
2360.79474103957	0.5133056640625
2360.80474103954	0.513916015625
2360.81474103952	0.5145263671875
2360.82474103949	0.51513671875
2360.83474103947	0.51544189453125
2360.84474103944	0.51605224609375
2360.85474103941	0.51666259765625
2360.86474103939	0.51727294921875
2360.87474103936	0.51788330078125
2360.88474103934	0.51849365234375
2360.89474103931	0.51910400390625
2360.90474103929	0.51971435546875
2360.91474103926	0.52032470703125
2360.92474103924	0.52093505859375
2360.93474103921	0.52154541015625
2360.94474103919	0.52215576171875
2360.95474103916	0.52276611328125
2360.96474103914	0.52337646484375
2360.97474103911	0.523681640625
2360.98474103909	0.5242919921875
2360.99474103906	0.52490234375
2361.00474103904	0.5255126953125
2361.01474103901	0.526123046875
2361.02474103899	0.5267333984375
2361.03474103896	0.52734375
2361.04474103894	0.5279541015625
2361.05474103891	0.528564453125
2361.06474103888	0.5291748046875
2361.07474103886	0.52978515625
2361.08474103883	0.5303955078125
2361.09474103881	0.531005859375
2361.10474103878	0.5316162109375
2361.11474103876	0.53192138671875
2361.12474103873	0.53253173828125
2361.13474103871	0.53314208984375
2361.14474103868	0.53375244140625
2361.15474103866	0.53436279296875
2361.16474103863	0.53497314453125
2361.17474103861	0.53558349609375
2361.18474103858	0.53619384765625
2361.19474103856	0.53680419921875
2361.20474103853	0.53741455078125
2361.21474103851	0.53802490234375
2361.22474103848	0.53863525390625
2361.23474103846	0.53924560546875
2361.24474103843	0.53955078125
2361.2547410384	0.5401611328125
2361.26474103838	0.540771484375
2361.27474103835	0.5413818359375
2361.28474103833	0.5419921875
2361.2947410383	0.5426025390625
2361.30474103828	0.543212890625
2361.31474103825	0.5438232421875
2361.32474103823	0.54443359375
2361.3347410382	0.5450439453125
2361.34474103818	0.545654296875
2361.35474103815	0.5462646484375
2361.36474103813	0.546875
2361.3747410381	0.54718017578125
2361.38474103808	0.54779052734375
2361.39474103805	0.54840087890625
2361.40474103803	0.54901123046875
2361.414741038	0.54962158203125
2361.42474103798	0.55023193359375
2361.43474103795	0.55084228515625
2361.44474103793	0.55145263671875
2361.4547410379	0.5517578125
2361.46474103787	0.5523681640625
2361.47474103785	0.552978515625
2361.48474103782	0.5535888671875
2361.4947410378	0.55419921875
2361.50474103777	0.5548095703125
2361.51474103775	0.555419921875
2361.52474103772	0.5560302734375
2361.5347410377	0.556640625
2361.54474103767	0.5572509765625
2361.55474103765	0.557861328125
2361.56474103762	0.5584716796875
2361.5747410376	0.55908203125
2361.58474103757	0.5596923828125
2361.59474103755	0.55999755859375
2361.60474103752	0.56060791015625
2361.6147410375	0.56121826171875
2361.62474103747	0.56182861328125
2361.63474103745	0.56243896484375
2361.64474103742	0.56304931640625
2361.6547410374	0.56365966796875
2361.66474103737	0.56427001953125
2361.67474103734	0.56488037109375
2361.68474103732	0.56549072265625
2361.69474103729	0.56610107421875
2361.70474103727	0.56671142578125
2361.71474103724	0.56732177734375
2361.72474103722	0.56793212890625
2361.73474103719	0.56854248046875
2361.74474103717	0.56915283203125
2361.75474103714	0.5694580078125
2361.76474103712	0.570068359375
2361.77474103709	0.5706787109375
2361.78474103707	0.5712890625
2361.79474103704	0.5718994140625
2361.80474103702	0.572509765625
2361.81474103699	0.5731201171875
2361.82474103697	0.57373046875
2361.83474103694	0.5743408203125
2361.84474103692	0.574951171875
2361.85474103689	0.5755615234375
2361.86474103686	0.576171875
2361.87474103684	0.5767822265625
2361.88474103681	0.57708740234375
2361.89474103679	0.57769775390625
2361.90474103676	0.57830810546875
2361.91474103674	0.57891845703125
2361.92474103671	0.57952880859375
2361.93474103669	0.58013916015625
2361.94474103666	0.58074951171875
2361.95474103664	0.58135986328125
2361.96474103661	0.58197021484375
2361.97474103659	0.58258056640625
2361.98474103656	0.58319091796875
2361.99474103654	0.58380126953125
2362.00474103651	0.58441162109375
2362.01474103649	0.58502197265625
2362.02474103646	0.58563232421875
2362.03474103644	0.5859375
2362.04474103641	0.5865478515625
2362.05474103639	0.587158203125
2362.06474103636	0.5877685546875
2362.07474103633	0.58837890625
2362.08474103631	0.5889892578125
2362.09474103628	0.589599609375
2362.10474103626	0.5902099609375
2362.11474103623	0.5908203125
2362.12474103621	0.5914306640625
2362.13474103618	0.592041015625
2362.14474103616	0.5926513671875
2362.15474103613	0.59295654296875
2362.16474103611	0.59356689453125
2362.17474103608	0.59417724609375
2362.18474103606	0.59478759765625
2362.19474103603	0.59539794921875
2362.20474103601	0.59600830078125
2362.21474103598	0.59661865234375
2362.22474103596	0.59722900390625
2362.23474103593	0.59783935546875
2362.24474103591	0.59844970703125
2362.25474103588	0.59906005859375
2362.26474103585	0.599365234375
2362.27474103583	0.5999755859375
2362.2847410358	0.6005859375
2362.29474103578	0.6011962890625
2362.30474103575	0.601806640625
2362.31474103573	0.6024169921875
2362.3247410357	0.60302734375
2362.33474103568	0.6036376953125
2362.34474103565	0.604248046875
2362.35474103563	0.6048583984375
2362.3647410356	0.60546875
2362.37474103558	0.60577392578125
2362.38474103555	0.60638427734375
2362.39474103553	0.60699462890625
2362.4047410355	0.60760498046875
2362.41474103548	0.60821533203125
2362.42474103545	0.60882568359375
2362.43474103543	0.60943603515625
2362.4447410354	0.61004638671875
2362.45474103538	0.61065673828125
2362.46474103535	0.61126708984375
2362.47474103532	0.611572265625
2362.4847410353	0.6121826171875
2362.49474103527	0.61279296875
2362.50474103525	0.6134033203125
2362.51474103522	0.614013671875
2362.5247410352	0.6146240234375
2362.53474103517	0.615234375
2362.54474103515	0.61553955078125
2362.55474103512	0.61614990234375
2362.5647410351	0.61676025390625
2362.57474103507	0.61737060546875
2362.58474103505	0.61798095703125
2362.59474103502	0.61859130859375
2362.604741035	0.61920166015625
2362.61474103497	0.6195068359375
2362.62474103495	0.6201171875
2362.63474103492	0.6207275390625
2362.6447410349	0.621337890625
2362.65474103487	0.6219482421875
2362.66474103485	0.62255859375
2362.67474103482	0.6231689453125
2362.68474103479	0.623779296875
2362.69474103477	0.6243896484375
2362.70474103474	0.62469482421875
2362.71474103472	0.62530517578125
2362.72474103469	0.6256103515625
2362.73474103467	0.626220703125
2362.74474103464	0.6268310546875
2362.75474103462	0.62744140625
2362.76474103459	0.6280517578125
2362.77474103457	0.628662109375
2362.78474103454	0.62896728515625
2362.79474103452	0.62957763671875
2362.80474103449	0.63018798828125
2362.81474103447	0.63079833984375
2362.82474103444	0.63140869140625
2362.83474103442	0.63201904296875
2362.84474103439	0.63262939453125
2362.85474103437	0.6329345703125
2362.86474103434	0.633544921875
2362.87474103431	0.6341552734375
2362.88474103429	0.634765625
2362.89474103426	0.6353759765625
2362.90474103424	0.63568115234375
2362.91474103421	0.63629150390625
2362.92474103419	0.63690185546875
2362.93474103416	0.63751220703125
2362.94474103414	0.63812255859375
2362.95474103411	0.638427734375
2362.96474103409	0.6390380859375
2362.97474103406	0.6396484375
2362.98474103404	0.6402587890625
2362.99474103401	0.640869140625
2363.00474103399	0.64117431640625
2363.01474103396	0.64178466796875
2363.02474103394	0.64239501953125
2363.03474103391	0.64300537109375
2363.04474103389	0.64361572265625
2363.05474103386	0.64422607421875
2363.06474103384	0.64453125
2363.07474103381	0.6451416015625
2363.08474103378	0.645751953125
2363.09474103376	0.6463623046875
2363.10474103373	0.64666748046875
2363.11474103371	0.64727783203125
2363.12474103368	0.64788818359375
2363.13474103366	0.64849853515625
2363.14474103363	0.64910888671875
2363.15474103361	0.6494140625
2363.16474103358	0.6500244140625
2363.17474103356	0.650634765625
2363.18474103353	0.6512451171875
2363.19474103351	0.65155029296875
2363.20474103348	0.65216064453125
2363.21474103346	0.65277099609375
2363.22474103343	0.65338134765625
2363.23474103341	0.65399169921875
2363.24474103338	0.654296875
2363.25474103336	0.6549072265625
2363.26474103333	0.655517578125
2363.2747410333	0.6561279296875
2363.28474103328	0.65643310546875
2363.29474103325	0.65704345703125
2363.30474103323	0.65765380859375
2363.3147410332	0.657958984375
2363.32474103318	0.6585693359375
2363.33474103315	0.6591796875
2363.34474103313	0.6597900390625
2363.3547410331	0.660400390625
2363.36474103308	0.66070556640625
2363.37474103305	0.66131591796875
2363.38474103303	0.66192626953125
2363.394741033	0.66253662109375
2363.40474103298	0.662841796875
2363.41474103295	0.6634521484375
2363.42474103293	0.6640625
2363.4347410329	0.66436767578125
2363.44474103288	0.66497802734375
2363.45474103285	0.66558837890625
2363.46474103283	0.66619873046875
2363.4747410328	0.66650390625
2363.48474103277	0.6671142578125
2363.49474103275	0.667724609375
2363.50474103272	0.6683349609375
2363.5147410327	0.66864013671875
2363.52474103267	0.66925048828125
2363.53474103265	0.66986083984375
2363.54474103262	0.67047119140625
2363.5547410326	0.6707763671875
2363.56474103257	0.67138671875
2363.57474103255	0.6719970703125
2363.58474103252	0.67230224609375
2363.5947410325	0.67291259765625
2363.60474103247	0.67352294921875
2363.61474103245	0.67413330078125
2363.62474103242	0.6744384765625
2363.6347410324	0.675048828125
2363.64474103237	0.6756591796875
2363.65474103235	0.67596435546875
2363.66474103232	0.67657470703125
2363.6747410323	0.67718505859375
2363.68474103227	0.677490234375
2363.69474103224	0.6781005859375
2363.70474103222	0.6787109375
2363.71474103219	0.67901611328125
2363.72474103217	0.67962646484375
2363.73474103214	0.68023681640625
2363.74474103212	0.68084716796875
2363.75474103209	0.68115234375
2363.76474103207	0.6817626953125
2363.77474103204	0.682373046875
2363.78474103202	0.68267822265625
2363.79474103199	0.68328857421875
2363.80474103197	0.68389892578125
2363.81474103194	0.6842041015625
2363.82474103192	0.684814453125
2363.83474103189	0.6854248046875
2363.84474103187	0.68572998046875
2363.85474103184	0.68634033203125
2363.86474103182	0.68695068359375
2363.87474103179	0.68756103515625
2363.88474103176	0.6878662109375
2363.89474103174	0.6884765625
2363.90474103171	0.6890869140625
2363.91474103169	0.68939208984375
2363.92474103166	0.69000244140625
2363.93474103164	0.6903076171875
2363.94474103161	0.69091796875
2363.95474103159	0.6915283203125
2363.96474103156	0.69183349609375
2363.97474103154	0.69244384765625
2363.98474103151	0.69305419921875
2363.99474103149	0.69366455078125
2364.00474103146	0.6939697265625
2364.01474103144	0.694580078125
2364.02474103141	0.69488525390625
2364.03474103139	0.69549560546875
2364.04474103136	0.69610595703125
2364.05474103134	0.6964111328125
2364.06474103131	0.697021484375
2364.07474103129	0.6976318359375
2364.08474103126	0.69793701171875
2364.09474103123	0.69854736328125
2364.10474103121	0.69915771484375
2364.11474103118	0.699462890625
2364.12474103116	0.7000732421875
2364.13474103113	0.70068359375
2364.14474103111	0.70098876953125
2364.15474103108	0.70159912109375
2364.16474103106	0.70220947265625
2364.17474103103	0.7025146484375
2364.18474103101	0.703125
2364.19474103098	0.70343017578125
2364.20474103096	0.70404052734375
2364.21474103093	0.704345703125
2364.22474103091	0.7049560546875
2364.23474103088	0.70526123046875
2364.24474103086	0.70587158203125
2364.25474103083	0.70648193359375
2364.26474103081	0.706787109375
2364.27474103078	0.7073974609375
2364.28474103075	0.70770263671875
2364.29474103073	0.70831298828125
2364.3047410307	0.70892333984375
2364.31474103068	0.709228515625
2364.32474103065	0.7098388671875
2364.33474103063	0.71044921875
2364.3447410306	0.71075439453125
2364.35474103058	0.71136474609375
2364.36474103055	0.711669921875
2364.37474103053	0.7122802734375
2364.3847410305	0.712890625
2364.39474103048	0.71319580078125
2364.40474103045	0.71380615234375
2364.41474103043	0.714111328125
2364.4247410304	0.7147216796875
2364.43474103038	0.71533203125
2364.44474103035	0.71563720703125
2364.45474103033	0.71624755859375
2364.4647410303	0.716552734375
2364.47474103028	0.7171630859375
2364.48474103025	0.71746826171875
2364.49474103022	0.71807861328125
2364.5047410302	0.71868896484375
2364.51474103017	0.718994140625
2364.52474103015	0.7196044921875
2364.53474103012	0.71990966796875
2364.5447410301	0.72052001953125
2364.55474103007	0.72113037109375
2364.56474103005	0.721435546875
2364.57474103002	0.7220458984375
2364.58474103	0.72235107421875
2364.59474102997	0.72296142578125
2364.60474102995	0.7232666015625
2364.61474102992	0.723876953125
2364.6247410299	0.7244873046875
2364.63474102987	0.72479248046875
2364.64474102985	0.72540283203125
2364.65474102982	0.7257080078125
2364.6647410298	0.726318359375
2364.67474102977	0.72662353515625
2364.68474102975	0.72723388671875
2364.69474102972	0.72784423828125
2364.70474102969	0.7281494140625
2364.71474102967	0.728759765625
2364.72474102964	0.72906494140625
2364.73474102962	0.72967529296875
2364.74474102959	0.72998046875
2364.75474102957	0.7305908203125
2364.76474102954	0.73089599609375
2364.77474102952	0.73150634765625
2364.78474102949	0.73211669921875
2364.79474102947	0.732421875
2364.80474102944	0.7330322265625
2364.81474102942	0.73333740234375
2364.82474102939	0.73394775390625
2364.83474102937	0.7342529296875
2364.84474102934	0.73486328125
2364.85474102932	0.73516845703125
2364.86474102929	0.73577880859375
2364.87474102927	0.736083984375
2364.88474102924	0.7366943359375
2364.89474102921	0.73699951171875
2364.90474102919	0.73760986328125
2364.91474102916	0.7379150390625
2364.92474102914	0.738525390625
2364.93474102911	0.7391357421875
2364.94474102909	0.73944091796875
2364.95474102906	0.74005126953125
2364.96474102904	0.7403564453125
2364.97474102901	0.740966796875
2364.98474102899	0.74127197265625
2364.99474102896	0.74188232421875
2365.00474102894	0.7421875
2365.01474102891	0.7427978515625
2365.02474102889	0.74310302734375
2365.03474102886	0.74371337890625
2365.04474102884	0.7440185546875
2365.05474102881	0.74462890625
2365.06474102879	0.74493408203125
2365.07474102876	0.74554443359375
2365.08474102874	0.745849609375
2365.09474102871	0.7464599609375
2365.10474102868	0.74676513671875
2365.11474102866	0.74737548828125
2365.12474102863	0.7476806640625
2365.13474102861	0.748291015625
2365.14474102858	0.74859619140625
2365.15474102856	0.74920654296875
2365.16474102853	0.74951171875
2365.17474102851	0.7501220703125
2365.18474102848	0.75042724609375
2365.19474102846	0.75103759765625
2365.20474102843	0.7513427734375
2365.21474102841	0.751953125
2365.22474102838	0.75225830078125
2365.23474102836	0.75286865234375
2365.24474102833	0.753173828125
2365.25474102831	0.7537841796875
2365.26474102828	0.75408935546875
2365.27474102826	0.75469970703125
2365.28474102823	0.7550048828125
2365.2947410282	0.75531005859375
2365.30474102818	0.75592041015625
2365.31474102815	0.7562255859375
2365.32474102813	0.7568359375
2365.3347410281	0.75714111328125
2365.34474102808	0.75775146484375
2365.35474102805	0.758056640625
2365.36474102803	0.7586669921875
2365.374741028	0.75897216796875
2365.38474102798	0.75958251953125
2365.39474102795	0.7598876953125
2365.40474102793	0.760498046875
2365.4147410279	0.76080322265625
2365.42474102788	0.7611083984375
2365.43474102785	0.76171875
2365.44474102783	0.76202392578125
2365.4547410278	0.76263427734375
2365.46474102778	0.762939453125
2365.47474102775	0.7635498046875
2365.48474102773	0.76385498046875
2365.4947410277	0.76446533203125
2365.50474102767	0.7647705078125
2365.51474102765	0.76507568359375
2365.52474102762	0.76568603515625
2365.5347410276	0.7659912109375
2365.54474102757	0.7666015625
2365.55474102755	0.76690673828125
2365.56474102752	0.7672119140625
2365.5747410275	0.767822265625
2365.58474102747	0.76812744140625
2365.59474102745	0.76873779296875
2365.60474102742	0.76904296875
2365.6147410274	0.76934814453125
2365.62474102737	0.76995849609375
2365.63474102735	0.770263671875
2365.64474102732	0.7708740234375
2365.6547410273	0.77117919921875
2365.66474102727	0.77178955078125
2365.67474102725	0.7720947265625
2365.68474102722	0.77239990234375
2365.6947410272	0.77301025390625
2365.70474102717	0.7733154296875
2365.71474102714	0.77362060546875
2365.72474102712	0.77423095703125
2365.73474102709	0.7745361328125
2365.74474102707	0.775146484375
2365.75474102704	0.77545166015625
2365.76474102702	0.7757568359375
2365.77474102699	0.7763671875
2365.78474102697	0.77667236328125
2365.79474102694	0.7769775390625
2365.80474102692	0.777587890625
2365.81474102689	0.77789306640625
2365.82474102687	0.77850341796875
2365.83474102684	0.77880859375
2365.84474102682	0.77911376953125
2365.85474102679	0.77972412109375
2365.86474102677	0.780029296875
2365.87474102674	0.7806396484375
2365.88474102672	0.78094482421875
2365.89474102669	0.78125
2365.90474102666	0.78155517578125
2365.91474102664	0.7818603515625
2365.92474102661	0.78216552734375
2365.93474102659	0.782470703125
2365.94474102656	0.78277587890625
2365.95474102654	0.78338623046875
2365.96474102651	0.78369140625
2365.97474102649	0.78399658203125
2365.98474102646	0.78460693359375
2365.99474102644	0.784912109375
2366.00474102641	0.7855224609375
2366.01474102639	0.78582763671875
2366.02474102636	0.7861328125
2366.03474102634	0.78643798828125
2366.04474102631	0.78704833984375
2366.05474102629	0.787353515625
2366.06474102626	0.78765869140625
2366.07474102624	0.78826904296875
2366.08474102621	0.78857421875
2366.09474102619	0.78887939453125
2366.10474102616	0.78948974609375
2366.11474102613	0.789794921875
2366.12474102611	0.79010009765625
2366.13474102608	0.79071044921875
2366.14474102606	0.791015625
2366.15474102603	0.79132080078125
2366.16474102601	0.79193115234375
2366.17474102598	0.792236328125
2366.18474102596	0.79254150390625
2366.19474102593	0.7928466796875
2366.20474102591	0.79345703125
2366.21474102588	0.79376220703125
2366.22474102586	0.7940673828125
2366.23474102583	0.794677734375
2366.24474102581	0.79498291015625
2366.25474102578	0.7952880859375
2366.26474102576	0.79559326171875
2366.27474102573	0.79620361328125
2366.28474102571	0.7965087890625
2366.29474102568	0.79681396484375
2366.30474102565	0.79742431640625
2366.31474102563	0.7977294921875
2366.3247410256	0.79803466796875
2366.33474102558	0.79833984375
2366.34474102555	0.79864501953125
2366.35474102553	0.79925537109375
2366.3647410255	0.799560546875
2366.37474102548	0.79986572265625
2366.38474102545	0.8001708984375
2366.39474102543	0.80078125
2366.4047410254	0.80108642578125
2366.41474102538	0.8013916015625
