Time (s)	WE(1).Potential (V)
2368.33142302054	0.73760986328125
2368.34142302051	0.73699951171875
2368.35142302049	0.736083984375
2368.36142302046	0.7354736328125
2368.37142302044	0.73455810546875
2368.38142302041	0.73394775390625
2368.39142302039	0.7330322265625
2368.40142302036	0.732421875
2368.41142302034	0.73150634765625
2368.42142302031	0.73089599609375
2368.43142302029	0.72998046875
2368.44142302026	0.7293701171875
2368.45142302023	0.72845458984375
2368.46142302021	0.72784423828125
2368.47142302018	0.7269287109375
2368.48142302016	0.726318359375
2368.49142302013	0.72540283203125
2368.50142302011	0.72479248046875
2368.51142302008	0.723876953125
2368.52142302006	0.7232666015625
2368.53142302003	0.72235107421875
2368.54142302001	0.72174072265625
2368.55142301998	0.72113037109375
2368.56142301996	0.72021484375
2368.57142301993	0.7196044921875
2368.58142301991	0.71868896484375
2368.59142301988	0.71807861328125
2368.60142301986	0.7171630859375
2368.61142301983	0.716552734375
2368.62142301981	0.71563720703125
2368.63142301978	0.71502685546875
2368.64142301976	0.714111328125
2368.65142301973	0.7135009765625
2368.6614230197	0.712890625
2368.67142301968	0.71197509765625
2368.68142301965	0.71136474609375
2368.69142301963	0.71044921875
2368.7014230196	0.7098388671875
2368.71142301958	0.70892333984375
2368.72142301955	0.70831298828125
2368.73142301953	0.7073974609375
2368.7414230195	0.706787109375
2368.75142301948	0.7061767578125
2368.76142301945	0.70526123046875
2368.77142301943	0.70465087890625
2368.7814230194	0.7037353515625
2368.79142301938	0.703125
2368.80142301935	0.7025146484375
2368.81142301933	0.701904296875
2368.8214230193	0.70098876953125
2368.83142301928	0.70037841796875
2368.84142301925	0.699462890625
2368.85142301922	0.6988525390625
2368.8614230192	0.69793701171875
2368.87142301917	0.69732666015625
2368.88142301915	0.69671630859375
2368.89142301912	0.69580078125
2368.9014230191	0.6951904296875
2368.91142301907	0.69427490234375
2368.92142301905	0.69366455078125
2368.93142301902	0.69305419921875
2368.941423019	0.692138671875
2368.95142301897	0.6915283203125
2368.96142301895	0.69061279296875
2368.97142301892	0.69000244140625
2368.9814230189	0.68939208984375
2368.99142301887	0.6884765625
2369.00142301885	0.6878662109375
2369.01142301882	0.68695068359375
2369.0214230188	0.68634033203125
2369.03142301877	0.68572998046875
2369.04142301875	0.684814453125
2369.05142301872	0.6842041015625
2369.06142301869	0.68328857421875
2369.07142301867	0.68267822265625
2369.08142301864	0.68206787109375
2369.09142301862	0.68115234375
2369.10142301859	0.6805419921875
2369.11142301857	0.67962646484375
2369.12142301854	0.67901611328125
2369.13142301852	0.67840576171875
2369.14142301849	0.677490234375
2369.15142301847	0.6768798828125
2369.16142301844	0.67596435546875
2369.17142301842	0.67535400390625
2369.18142301839	0.67474365234375
2369.19142301837	0.673828125
2369.20142301834	0.6732177734375
2369.21142301832	0.672607421875
2369.22142301829	0.67169189453125
2369.23142301827	0.67108154296875
2369.24142301824	0.67047119140625
2369.25142301822	0.6695556640625
2369.26142301819	0.6689453125
2369.27142301816	0.66802978515625
2369.28142301814	0.66741943359375
2369.29142301811	0.66680908203125
2369.30142301809	0.6658935546875
2369.31142301806	0.665283203125
2369.32142301804	0.6646728515625
2369.33142301801	0.66375732421875
2369.34142301799	0.66314697265625
2369.35142301796	0.6622314453125
2369.36142301794	0.66162109375
2369.37142301791	0.6610107421875
2369.38142301789	0.66009521484375
2369.39142301786	0.65948486328125
2369.40142301784	0.65887451171875
2369.41142301781	0.657958984375
2369.42142301779	0.6573486328125
2369.43142301776	0.65673828125
2369.44142301774	0.65582275390625
2369.45142301771	0.65521240234375
2369.46142301768	0.65460205078125
2369.47142301766	0.6536865234375
2369.48142301763	0.653076171875
2369.49142301761	0.65216064453125
2369.50142301758	0.65155029296875
2369.51142301756	0.65093994140625
2369.52142301753	0.6500244140625
2369.53142301751	0.6494140625
2369.54142301748	0.6488037109375
2369.55142301746	0.64788818359375
2369.56142301743	0.64727783203125
2369.57142301741	0.64666748046875
2369.58142301738	0.645751953125
2369.59142301736	0.6451416015625
2369.60142301733	0.64453125
2369.61142301731	0.64361572265625
2369.62142301728	0.64300537109375
2369.63142301726	0.64239501953125
2369.64142301723	0.6414794921875
2369.65142301721	0.640869140625
2369.66142301718	0.6402587890625
2369.67142301715	0.63934326171875
2369.68142301713	0.63873291015625
2369.6914230171	0.63812255859375
2369.70142301708	0.63720703125
2369.71142301705	0.6365966796875
2369.72142301703	0.635986328125
2369.731423017	0.6353759765625
2369.74142301698	0.63446044921875
2369.75142301695	0.63385009765625
2369.76142301693	0.63323974609375
2369.7714230169	0.63232421875
2369.78142301688	0.6317138671875
2369.79142301685	0.631103515625
2369.80142301683	0.63018798828125
2369.8114230168	0.62957763671875
2369.82142301678	0.62896728515625
2369.83142301675	0.6280517578125
2369.84142301673	0.62744140625
2369.8514230167	0.6268310546875
2369.86142301667	0.62591552734375
2369.87142301665	0.62530517578125
2369.88142301662	0.62469482421875
2369.8914230166	0.62408447265625
2369.90142301657	0.62347412109375
2369.91142301655	0.62255859375
2369.92142301652	0.6219482421875
2369.9314230165	0.621337890625
2369.94142301647	0.62042236328125
2369.95142301645	0.61981201171875
2369.96142301642	0.61920166015625
2369.9714230164	0.6182861328125
2369.98142301637	0.61767578125
2369.99142301635	0.6170654296875
2370.00142301632	0.616455078125
2370.0114230163	0.61553955078125
2370.02142301627	0.61492919921875
2370.03142301625	0.61431884765625
2370.04142301622	0.6134033203125
2370.0514230162	0.61279296875
2370.06142301617	0.6121826171875
2370.07142301614	0.611572265625
2370.08142301612	0.61065673828125
2370.09142301609	0.61004638671875
2370.10142301607	0.60943603515625
2370.11142301604	0.6085205078125
2370.12142301602	0.60791015625
2370.13142301599	0.6072998046875
2370.14142301597	0.606689453125
2370.15142301594	0.60577392578125
2370.16142301592	0.60516357421875
2370.17142301589	0.60455322265625
2370.18142301587	0.6036376953125
2370.19142301584	0.60302734375
2370.20142301582	0.6024169921875
2370.21142301579	0.601806640625
2370.22142301577	0.60089111328125
2370.23142301574	0.60028076171875
2370.24142301572	0.59967041015625
2370.25142301569	0.59906005859375
2370.26142301567	0.59814453125
2370.27142301564	0.5975341796875
2370.28142301561	0.596923828125
2370.29142301559	0.59600830078125
2370.30142301556	0.59539794921875
2370.31142301554	0.59478759765625
2370.32142301551	0.59417724609375
2370.33142301549	0.59326171875
2370.34142301546	0.5926513671875
2370.35142301544	0.592041015625
2370.36142301541	0.5914306640625
2370.37142301539	0.59051513671875
2370.38142301536	0.58990478515625
2370.39142301534	0.58929443359375
2370.40142301531	0.58868408203125
2370.41142301529	0.5877685546875
2370.42142301526	0.587158203125
2370.43142301524	0.5865478515625
2370.44142301521	0.58563232421875
2370.45142301519	0.58502197265625
2370.46142301516	0.58441162109375
2370.47142301513	0.58380126953125
2370.48142301511	0.5828857421875
2370.49142301508	0.582275390625
2370.50142301506	0.5816650390625
2370.51142301503	0.5810546875
2370.52142301501	0.5804443359375
2370.53142301498	0.57952880859375
2370.54142301496	0.57891845703125
2370.55142301493	0.57830810546875
2370.56142301491	0.577392578125
2370.57142301488	0.5767822265625
2370.58142301486	0.576171875
2370.59142301483	0.5755615234375
2370.60142301481	0.574951171875
2370.61142301478	0.57403564453125
2370.62142301476	0.57342529296875
2370.63142301473	0.57281494140625
2370.64142301471	0.57220458984375
2370.65142301468	0.5712890625
2370.66142301466	0.5706787109375
2370.67142301463	0.570068359375
2370.6814230146	0.5694580078125
2370.69142301458	0.56884765625
2370.70142301455	0.56793212890625
2370.71142301453	0.56732177734375
2370.7214230145	0.56671142578125
2370.73142301448	0.56610107421875
2370.74142301445	0.565185546875
2370.75142301443	0.5645751953125
2370.7614230144	0.56396484375
2370.77142301438	0.5633544921875
2370.78142301435	0.562744140625
2370.79142301433	0.56182861328125
2370.8014230143	0.56121826171875
2370.81142301428	0.56060791015625
2370.82142301425	0.55999755859375
2370.83142301423	0.55908203125
2370.8414230142	0.5584716796875
2370.85142301418	0.557861328125
2370.86142301415	0.5572509765625
2370.87142301412	0.556640625
2370.8814230141	0.55572509765625
2370.89142301407	0.55511474609375
2370.90142301405	0.55450439453125
2370.91142301402	0.55389404296875
2370.921423014	0.55328369140625
2370.93142301397	0.55267333984375
2370.94142301395	0.5517578125
2370.95142301392	0.5511474609375
2370.9614230139	0.550537109375
2370.97142301387	0.5499267578125
2370.98142301385	0.54931640625
2370.99142301382	0.5487060546875
2371.0014230138	0.54779052734375
2371.01142301377	0.54718017578125
2371.02142301375	0.54656982421875
2371.03142301372	0.54595947265625
2371.0414230137	0.54534912109375
2371.05142301367	0.54473876953125
2371.06142301365	0.54412841796875
2371.07142301362	0.54351806640625
2371.08142301359	0.5426025390625
2371.09142301357	0.5419921875
2371.10142301354	0.5413818359375
2371.11142301352	0.540771484375
2371.12142301349	0.53985595703125
2371.13142301347	0.53924560546875
2371.14142301344	0.53863525390625
2371.15142301342	0.53802490234375
2371.16142301339	0.53741455078125
2371.17142301337	0.53680419921875
2371.18142301334	0.53619384765625
2371.19142301332	0.5352783203125
2371.20142301329	0.53466796875
2371.21142301327	0.5340576171875
2371.22142301324	0.533447265625
2371.23142301322	0.5328369140625
2371.24142301319	0.5322265625
2371.25142301317	0.53131103515625
2371.26142301314	0.53070068359375
2371.27142301312	0.53009033203125
2371.28142301309	0.52947998046875
2371.29142301306	0.52886962890625
2371.30142301304	0.52825927734375
2371.31142301301	0.52734375
2371.32142301299	0.5267333984375
2371.33142301296	0.526123046875
2371.34142301294	0.5255126953125
2371.35142301291	0.52490234375
2371.36142301289	0.5242919921875
2371.37142301286	0.523681640625
2371.38142301284	0.52276611328125
2371.39142301281	0.52215576171875
2371.40142301279	0.52154541015625
2371.41142301276	0.52093505859375
2371.42142301274	0.52032470703125
2371.43142301271	0.51971435546875
2371.44142301269	0.51910400390625
2371.45142301266	0.5181884765625
2371.46142301264	0.517578125
2371.47142301261	0.5169677734375
2371.48142301258	0.516357421875
2371.49142301256	0.5157470703125
2371.50142301253	0.51513671875
2371.51142301251	0.51422119140625
2371.52142301248	0.51361083984375
2371.53142301246	0.51300048828125
2371.54142301243	0.51239013671875
2371.55142301241	0.51177978515625
2371.56142301238	0.51116943359375
2371.57142301236	0.51025390625
2371.58142301233	0.50994873046875
2371.59142301231	0.509033203125
2371.60142301228	0.5084228515625
2371.61142301226	0.5078125
2371.62142301223	0.5072021484375
2371.63142301221	0.506591796875
2371.64142301218	0.50567626953125
2371.65142301216	0.50506591796875
2371.66142301213	0.50445556640625
2371.67142301211	0.50384521484375
2371.68142301208	0.50323486328125
2371.69142301205	0.50262451171875
2371.70142301203	0.50201416015625
2371.711423012	0.50140380859375
2371.72142301198	0.50079345703125
2371.73142301195	0.4998779296875
2371.74142301193	0.49945068359375
2371.7514230119	0.498809814453125
2371.76142301188	0.4981689453125
2371.77142301185	0.49749755859375
2371.78142301183	0.496856689453125
2371.7914230118	0.4962158203125
2371.80142301178	0.495574951171875
2371.81142301175	0.49493408203125
2371.82142301173	0.4942626953125
2371.8314230117	0.493621826171875
2371.84142301168	0.49298095703125
2371.85142301165	0.492340087890625
2371.86142301163	0.491729736328125
2371.8714230116	0.4910888671875
2371.88142301157	0.490447998046875
2371.89142301155	0.48980712890625
2371.90142301152	0.489166259765625
2371.9114230115	0.488525390625
2371.92142301147	0.487884521484375
2371.93142301145	0.48724365234375
2371.94142301142	0.486602783203125
2371.9514230114	0.4859619140625
2371.96142301137	0.485321044921875
2371.97142301135	0.48468017578125
2371.98142301132	0.484100341796875
2371.9914230113	0.48345947265625
2372.00142301127	0.482818603515625
2372.01142301125	0.482177734375
2372.02142301122	0.4815673828125
2372.0314230112	0.480926513671875
2372.04142301117	0.48028564453125
2372.05142301115	0.479644775390625
2372.06142301112	0.47900390625
2372.0714230111	0.4783935546875
2372.08142301107	0.477752685546875
2372.09142301104	0.47711181640625
2372.10142301102	0.47650146484375
2372.11142301099	0.47589111328125
2372.12142301097	0.475250244140625
2372.13142301094	0.474609375
2372.14142301092	0.4739990234375
2372.15142301089	0.473358154296875
2372.16142301087	0.472747802734375
2372.17142301084	0.47210693359375
2372.18142301082	0.471466064453125
2372.19142301079	0.470855712890625
2372.20142301077	0.470245361328125
2372.21142301074	0.4696044921875
2372.22142301072	0.468994140625
2372.23142301069	0.4683837890625
2372.24142301067	0.4677734375
2372.25142301064	0.4671630859375
2372.26142301062	0.466522216796875
2372.27142301059	0.465911865234375
2372.28142301057	0.465301513671875
2372.29142301054	0.46466064453125
2372.30142301051	0.46405029296875
2372.31142301049	0.46343994140625
2372.32142301046	0.46282958984375
2372.33142301044	0.462188720703125
2372.34142301041	0.461578369140625
2372.35142301039	0.460968017578125
2372.36142301036	0.460357666015625
2372.37142301034	0.459747314453125
2372.38142301031	0.459136962890625
2372.39142301029	0.458526611328125
2372.40142301026	0.457916259765625
2372.41142301024	0.457305908203125
2372.42142301021	0.456695556640625
2372.43142301019	0.456085205078125
2372.44142301016	0.455474853515625
2372.45142301014	0.454864501953125
2372.46142301011	0.454254150390625
2372.47142301009	0.453643798828125
2372.48142301006	0.45306396484375
2372.49142301003	0.452484130859375
2372.50142301001	0.451873779296875
2372.51142300998	0.451263427734375
2372.52142300996	0.45068359375
2372.53142300993	0.4500732421875
2372.54142300991	0.449462890625
2372.55142300988	0.4488525390625
2372.56142300986	0.448272705078125
2372.57142300983	0.447662353515625
2372.58142300981	0.447052001953125
2372.59142300978	0.44647216796875
2372.60142300976	0.44586181640625
2372.61142300973	0.445281982421875
2372.62142300971	0.4447021484375
2372.63142300968	0.444091796875
2372.64142300966	0.443511962890625
2372.65142300963	0.442901611328125
2372.66142300961	0.44232177734375
2372.67142300958	0.44171142578125
2372.68142300956	0.441131591796875
2372.69142300953	0.440521240234375
2372.7014230095	0.43994140625
2372.71142300948	0.439361572265625
2372.72142300945	0.438751220703125
2372.73142300943	0.43817138671875
2372.7414230094	0.437591552734375
2372.75142300938	0.43701171875
2372.76142300935	0.436431884765625
2372.77142300933	0.43585205078125
2372.7814230093	0.435272216796875
2372.79142300928	0.4346923828125
2372.80142300925	0.434112548828125
2372.81142300923	0.43353271484375
2372.8214230092	0.432952880859375
2372.83142300918	0.432373046875
2372.84142300915	0.431793212890625
2372.85142300913	0.43121337890625
2372.8614230091	0.430633544921875
2372.87142300908	0.4300537109375
2372.88142300905	0.42950439453125
2372.89142300902	0.428924560546875
2372.901423009	0.4283447265625
2372.91142300897	0.427764892578125
2372.92142300895	0.427215576171875
2372.93142300892	0.4266357421875
2372.9414230089	0.426055908203125
2372.95142300887	0.425506591796875
2372.96142300885	0.4249267578125
2372.97142300882	0.424346923828125
2372.9814230088	0.423797607421875
2372.99142300877	0.4232177734375
2373.00142300875	0.42266845703125
2373.01142300872	0.422088623046875
2373.0214230087	0.42156982421875
2373.03142300867	0.4210205078125
2373.04142300865	0.420440673828125
2373.05142300862	0.419891357421875
2373.0614230086	0.419342041015625
2373.07142300857	0.41876220703125
2373.08142300855	0.418212890625
2373.09142300852	0.41766357421875
2373.10142300849	0.417083740234375
2373.11142300847	0.416534423828125
2373.12142300844	0.415985107421875
2373.13142300842	0.415435791015625
2373.14142300839	0.414886474609375
2373.15142300837	0.414337158203125
2373.16142300834	0.413787841796875
2373.17142300832	0.413238525390625
2373.18142300829	0.412689208984375
2373.19142300827	0.412139892578125
2373.20142300824	0.411590576171875
2373.21142300822	0.411041259765625
2373.22142300819	0.410491943359375
2373.23142300817	0.409942626953125
2373.24142300814	0.409393310546875
2373.25142300812	0.408843994140625
2373.26142300809	0.4083251953125
2373.27142300807	0.40777587890625
2373.28142300804	0.4072265625
2373.29142300802	0.40667724609375
2373.30142300799	0.406158447265625
2373.31142300796	0.4056396484375
2373.32142300794	0.40509033203125
2373.33142300791	0.404541015625
2373.34142300789	0.404022216796875
2373.35142300786	0.403472900390625
2373.36142300784	0.4029541015625
2373.37142300781	0.40240478515625
2373.38142300779	0.40185546875
2373.39142300776	0.401336669921875
2373.40142300774	0.400787353515625
2373.41142300771	0.4002685546875
2373.42142300769	0.39971923828125
2373.43142300766	0.399200439453125
2373.44142300764	0.398651123046875
2373.45142300761	0.398162841796875
2373.46142300759	0.397613525390625
2373.47142300756	0.3970947265625
2373.48142300754	0.39654541015625
2373.49142300751	0.396026611328125
2373.50142300748	0.3955078125
2373.51142300746	0.39495849609375
2373.52142300743	0.394439697265625
2373.53142300741	0.3939208984375
2373.54142300738	0.39337158203125
2373.55142300736	0.392852783203125
2373.56142300733	0.392333984375
2373.57142300731	0.391815185546875
2373.58142300728	0.39129638671875
2373.59142300726	0.390777587890625
2373.60142300723	0.390289306640625
2373.61142300721	0.3897705078125
2373.62142300718	0.38922119140625
2373.63142300716	0.388702392578125
2373.64142300713	0.38818359375
2373.65142300711	0.387664794921875
2373.66142300708	0.38714599609375
2373.67142300706	0.386627197265625
2373.68142300703	0.3861083984375
2373.69142300701	0.385589599609375
2373.70142300698	0.38507080078125
2373.71142300695	0.384552001953125
2373.72142300693	0.384033203125
2373.7314230069	0.383544921875
2373.74142300688	0.383026123046875
2373.75142300685	0.38250732421875
2373.76142300683	0.381988525390625
2373.7714230068	0.3814697265625
2373.78142300678	0.3809814453125
2373.79142300675	0.380462646484375
2373.80142300673	0.37994384765625
2373.8114230067	0.379425048828125
2373.82142300668	0.37890625
2373.83142300665	0.37841796875
2373.84142300663	0.377899169921875
2373.8514230066	0.37738037109375
2373.86142300658	0.37689208984375
2373.87142300655	0.376373291015625
2373.88142300653	0.3758544921875
2373.8914230065	0.3753662109375
2373.90142300647	0.3748779296875
2373.91142300645	0.374359130859375
2373.92142300642	0.373870849609375
2373.9314230064	0.37335205078125
2373.94142300637	0.37286376953125
2373.95142300635	0.372344970703125
2373.96142300632	0.371856689453125
2373.9714230063	0.371337890625
2373.98142300627	0.370849609375
2373.99142300625	0.370330810546875
2374.00142300622	0.369842529296875
2374.0114230062	0.36932373046875
2374.02142300617	0.36883544921875
2374.03142300615	0.36834716796875
2374.04142300612	0.367828369140625
2374.0514230061	0.367340087890625
2374.06142300607	0.366851806640625
2374.07142300605	0.366363525390625
2374.08142300602	0.3658447265625
2374.091423006	0.3653564453125
2374.10142300597	0.3648681640625
2374.11142300594	0.364349365234375
2374.12142300592	0.363861083984375
2374.13142300589	0.363372802734375
2374.14142300587	0.36285400390625
2374.15142300584	0.36236572265625
2374.16142300582	0.36187744140625
2374.17142300579	0.36138916015625
2374.18142300577	0.36090087890625
2374.19142300574	0.360382080078125
2374.20142300572	0.359893798828125
2374.21142300569	0.35943603515625
2374.22142300567	0.35894775390625
2374.23142300564	0.35845947265625
2374.24142300562	0.35797119140625
2374.25142300559	0.35748291015625
2374.26142300557	0.35699462890625
2374.27142300554	0.35650634765625
2374.28142300552	0.35601806640625
2374.29142300549	0.35552978515625
2374.30142300547	0.35504150390625
2374.31142300544	0.35455322265625
2374.32142300541	0.35406494140625
2374.33142300539	0.35357666015625
2374.34142300536	0.35308837890625
2374.35142300534	0.35260009765625
2374.36142300531	0.35211181640625
2374.37142300529	0.35162353515625
2374.38142300526	0.351165771484375
2374.39142300524	0.350677490234375
2374.40142300521	0.350189208984375
2374.41142300519	0.349700927734375
2374.42142300516	0.349212646484375
2374.43142300514	0.348724365234375
2374.44142300511	0.348236083984375
2374.45142300509	0.3477783203125
2374.46142300506	0.3472900390625
2374.47142300504	0.3468017578125
2374.48142300501	0.3463134765625
2374.49142300499	0.3458251953125
2374.50142300496	0.345367431640625
2374.51142300493	0.344879150390625
2374.52142300491	0.344390869140625
2374.53142300488	0.34393310546875
2374.54142300486	0.343475341796875
2374.55142300483	0.342987060546875
2374.56142300481	0.342498779296875
2374.57142300478	0.342010498046875
2374.58142300476	0.341552734375
2374.59142300473	0.341064453125
2374.60142300471	0.340576171875
2374.61142300468	0.340118408203125
2374.62142300466	0.339630126953125
2374.63142300463	0.33917236328125
2374.64142300461	0.33868408203125
2374.65142300458	0.33819580078125
2374.66142300456	0.337738037109375
2374.67142300453	0.337249755859375
2374.68142300451	0.3367919921875
2374.69142300448	0.3363037109375
2374.70142300446	0.335845947265625
2374.71142300443	0.33538818359375
2374.7214230044	0.33489990234375
2374.73142300438	0.334442138671875
2374.74142300435	0.333953857421875
2374.75142300433	0.33349609375
2374.7614230043	0.3330078125
2374.77142300428	0.332550048828125
2374.78142300425	0.33209228515625
2374.79142300423	0.33160400390625
2374.8014230042	0.331146240234375
2374.81142300418	0.3306884765625
2374.82142300415	0.3302001953125
2374.83142300413	0.329742431640625
2374.8414230041	0.32928466796875
2374.85142300408	0.32879638671875
2374.86142300405	0.328338623046875
2374.87142300403	0.327911376953125
2374.881423004	0.32745361328125
2374.89142300398	0.326995849609375
2374.90142300395	0.3265380859375
2374.91142300392	0.326080322265625
2374.9214230039	0.32562255859375
2374.93142300387	0.325164794921875
2374.94142300385	0.324676513671875
2374.95142300382	0.32421875
2374.9614230038	0.323760986328125
2374.97142300377	0.32330322265625
2374.98142300375	0.322845458984375
2374.99142300372	0.3223876953125
2375.0014230037	0.32196044921875
2375.01142300367	0.321502685546875
2375.02142300365	0.321044921875
2375.03142300362	0.320587158203125
2375.0414230036	0.32012939453125
2375.05142300357	0.3197021484375
2375.06142300355	0.319244384765625
2375.07142300352	0.31878662109375
2375.0814230035	0.318328857421875
2375.09142300347	0.31787109375
2375.10142300345	0.31744384765625
2375.11142300342	0.316986083984375
2375.12142300339	0.3165283203125
2375.13142300337	0.31610107421875
2375.14142300334	0.315643310546875
2375.15142300332	0.315216064453125
2375.16142300329	0.31475830078125
2375.17142300327	0.3143310546875
2375.18142300324	0.313873291015625
2375.19142300322	0.313446044921875
2375.20142300319	0.31298828125
2375.21142300317	0.31256103515625
2375.22142300314	0.3121337890625
2375.23142300312	0.31170654296875
2375.24142300309	0.311279296875
2375.25142300307	0.310821533203125
2375.26142300304	0.310394287109375
2375.27142300302	0.309967041015625
2375.28142300299	0.309539794921875
2375.29142300297	0.30908203125
2375.30142300294	0.30865478515625
2375.31142300292	0.3082275390625
2375.32142300289	0.30780029296875
2375.33142300286	0.307373046875
2375.34142300284	0.30694580078125
2375.35142300281	0.3065185546875
2375.36142300279	0.30609130859375
2375.37142300276	0.3056640625
2375.38142300274	0.30523681640625
2375.39142300271	0.304840087890625
2375.40142300269	0.304412841796875
2375.41142300266	0.303985595703125
2375.42142300264	0.3035888671875
2375.43142300261	0.30316162109375
2375.44142300259	0.302734375
2375.45142300256	0.30230712890625
2375.46142300254	0.301910400390625
2375.47142300251	0.301483154296875
2375.48142300249	0.30108642578125
2375.49142300246	0.3006591796875
2375.50142300244	0.300262451171875
2375.51142300241	0.299835205078125
2375.52142300238	0.2994384765625
2375.53142300236	0.29901123046875
2375.54142300233	0.298614501953125
2375.55142300231	0.298187255859375
2375.56142300228	0.29779052734375
2375.57142300226	0.297393798828125
2375.58142300223	0.2969970703125
2375.59142300221	0.296600341796875
2375.60142300218	0.29620361328125
2375.61142300216	0.295806884765625
2375.62142300213	0.29541015625
2375.63142300211	0.295013427734375
2375.64142300208	0.294586181640625
2375.65142300206	0.294189453125
2375.66142300203	0.293792724609375
2375.67142300201	0.29339599609375
2375.68142300198	0.292999267578125
2375.69142300196	0.2926025390625
2375.70142300193	0.292205810546875
2375.71142300191	0.29180908203125
2375.72142300188	0.291412353515625
2375.73142300185	0.291015625
2375.74142300183	0.290618896484375
2375.7514230018	0.29022216796875
2375.76142300178	0.289825439453125
2375.77142300175	0.2894287109375
2375.78142300173	0.289031982421875
2375.7914230017	0.288665771484375
2375.80142300168	0.28826904296875
2375.81142300165	0.287872314453125
2375.82142300163	0.2874755859375
2375.8314230016	0.287078857421875
2375.84142300158	0.28668212890625
2375.85142300155	0.28631591796875
2375.86142300153	0.285919189453125
2375.8714230015	0.2855224609375
2375.88142300148	0.285125732421875
2375.89142300145	0.28472900390625
2375.90142300143	0.28436279296875
2375.9114230014	0.283966064453125
2375.92142300137	0.2835693359375
2375.93142300135	0.283172607421875
2375.94142300132	0.28277587890625
2375.9514230013	0.28240966796875
2375.96142300127	0.282012939453125
2375.97142300125	0.2816162109375
2375.98142300122	0.28125
2375.9914230012	0.2808837890625
2376.00142300117	0.280487060546875
2376.01142300115	0.28009033203125
2376.02142300112	0.279693603515625
2376.0314230011	0.279296875
2376.04142300107	0.278900146484375
2376.05142300105	0.278533935546875
2376.06142300102	0.27813720703125
2376.071423001	0.277740478515625
2376.08142300097	0.27734375
2376.09142300095	0.276947021484375
2376.10142300092	0.27655029296875
2376.1114230009	0.276153564453125
2376.12142300087	0.2757568359375
2376.13142300084	0.275390625
2376.14142300082	0.274993896484375
2376.15142300079	0.27459716796875
2376.16142300077	0.274200439453125
2376.17142300074	0.2738037109375
2376.18142300072	0.273406982421875
2376.19142300069	0.27301025390625
2376.20142300067	0.272613525390625
2376.21142300064	0.272216796875
2376.22142300062	0.271820068359375
2376.23142300059	0.27142333984375
2376.24142300057	0.271026611328125
2376.25142300054	0.2706298828125
2376.26142300052	0.27020263671875
2376.27142300049	0.269805908203125
2376.28142300047	0.2694091796875
2376.29142300044	0.269012451171875
2376.30142300042	0.268585205078125
2376.31142300039	0.2681884765625
2376.32142300037	0.267791748046875
2376.33142300034	0.267364501953125
2376.34142300031	0.2669677734375
2376.35142300029	0.266571044921875
2376.36142300026	0.266143798828125
2376.37142300024	0.2657470703125
2376.38142300021	0.265380859375
2376.39142300019	0.26495361328125
2376.40142300016	0.264556884765625
2376.41142300014	0.264129638671875
2376.42142300011	0.263702392578125
2376.43142300009	0.2633056640625
2376.44142300006	0.26287841796875
2376.45142300004	0.262481689453125
2376.46142300001	0.262054443359375
2376.47142299999	0.261627197265625
2376.48142299996	0.261199951171875
2376.49142299994	0.26080322265625
2376.50142299991	0.2603759765625
2376.51142299989	0.25994873046875
2376.52142299986	0.259521484375
2376.53142299983	0.25909423828125
2376.54142299981	0.2586669921875
2376.55142299978	0.25823974609375
2376.56142299976	0.257843017578125
2376.57142299973	0.257415771484375
2376.58142299971	0.2569580078125
2376.59142299968	0.25653076171875
2376.60142299966	0.256103515625
2376.61142299963	0.25567626953125
2376.62142299961	0.2552490234375
2376.63142299958	0.25482177734375
2376.64142299956	0.25439453125
2376.65142299953	0.253936767578125
2376.66142299951	0.253509521484375
2376.67142299948	0.253082275390625
2376.68142299946	0.25262451171875
2376.69142299943	0.252197265625
2376.70142299941	0.251739501953125
2376.71142299938	0.251312255859375
2376.72142299936	0.2508544921875
2376.73142299933	0.25042724609375
2376.7414229993	0.25
2376.75142299928	0.24957275390625
2376.76142299925	0.2491455078125
2376.77142299923	0.248687744140625
2376.7814229992	0.24822998046875
2376.79142299918	0.247802734375
2376.80142299915	0.247344970703125
2376.81142299913	0.24688720703125
2376.8214229991	0.2464599609375
2376.83142299908	0.246002197265625
2376.84142299905	0.24554443359375
2376.85142299903	0.245086669921875
2376.861422999	0.24462890625
2376.87142299898	0.24420166015625
2376.88142299895	0.243743896484375
2376.89142299893	0.2432861328125
2376.9014229989	0.242828369140625
2376.91142299888	0.24237060546875
2376.92142299885	0.241943359375
2376.93142299882	0.241485595703125
2376.9414229988	0.24102783203125
2376.95142299877	0.240570068359375
2376.96142299875	0.2401123046875
2376.97142299872	0.239654541015625
2376.9814229987	0.23919677734375
2376.99142299867	0.238739013671875
2377.00142299865	0.23828125
2377.01142299862	0.237823486328125
2377.0214229986	0.23736572265625
2377.03142299857	0.236907958984375
2377.04142299855	0.2364501953125
2377.05142299852	0.2359619140625
2377.0614229985	0.235504150390625
2377.07142299847	0.23504638671875
2377.08142299845	0.234588623046875
2377.09142299842	0.234161376953125
2377.1014229984	0.23370361328125
2377.11142299837	0.233245849609375
2377.12142299835	0.2327880859375
2377.13142299832	0.232330322265625
2377.14142299829	0.231842041015625
2377.15142299827	0.23138427734375
2377.16142299824	0.230926513671875
2377.17142299822	0.23046875
2377.18142299819	0.22998046875
2377.19142299817	0.229522705078125
2377.20142299814	0.22906494140625
2377.21142299812	0.228607177734375
2377.22142299809	0.228118896484375
2377.23142299807	0.2276611328125
2377.24142299804	0.227203369140625
2377.25142299802	0.226715087890625
2377.26142299799	0.226287841796875
2377.27142299797	0.225799560546875
2377.28142299794	0.225341796875
2377.29142299792	0.224884033203125
2377.30142299789	0.224395751953125
2377.31142299787	0.22393798828125
2377.32142299784	0.22344970703125
2377.33142299782	0.222991943359375
2377.34142299779	0.2225341796875
2377.35142299776	0.2220458984375
2377.36142299774	0.221588134765625
2377.37142299771	0.221099853515625
2377.38142299769	0.22064208984375
2377.39142299766	0.220184326171875
2377.40142299764	0.219696044921875
2377.41142299761	0.21923828125
2377.42142299759	0.218780517578125
2377.43142299756	0.21832275390625
2377.44142299754	0.21783447265625
2377.45142299751	0.217376708984375
2377.46142299749	0.216888427734375
2377.47142299746	0.2164306640625
2377.48142299744	0.2159423828125
2377.49142299741	0.215484619140625
2377.50142299739	0.214996337890625
2377.51142299736	0.21453857421875
2377.52142299734	0.21405029296875
2377.53142299731	0.213592529296875
2377.54142299728	0.213104248046875
2377.55142299726	0.212646484375
2377.56142299723	0.212158203125
2377.57142299721	0.211700439453125
2377.58142299718	0.211212158203125
2377.59142299716	0.21075439453125
2377.60142299713	0.210296630859375
2377.61142299711	0.209808349609375
2377.62142299708	0.2093505859375
2377.63142299706	0.2088623046875
2377.64142299703	0.208404541015625
2377.65142299701	0.207916259765625
2377.66142299698	0.207427978515625
2377.67142299696	0.20697021484375
2377.68142299693	0.20648193359375
2377.69142299691	0.206024169921875
2377.70142299688	0.205535888671875
2377.71142299686	0.205047607421875
2377.72142299683	0.20458984375
2377.73142299681	0.2041015625
2377.74142299678	0.203643798828125
2377.75142299675	0.20318603515625
2377.76142299673	0.202728271484375
2377.7714229967	0.202239990234375
2377.78142299668	0.2017822265625
2377.79142299665	0.2012939453125
2377.80142299663	0.2008056640625
2377.8114229966	0.200347900390625
2377.82142299658	0.199859619140625
2377.83142299655	0.19940185546875
2377.84142299653	0.19891357421875
2377.8514229965	0.19842529296875
2377.86142299648	0.19793701171875
2377.87142299645	0.197479248046875
2377.88142299643	0.196990966796875
2377.8914229964	0.196502685546875
2377.90142299638	0.196044921875
2377.91142299635	0.195556640625
2377.92142299633	0.195098876953125
2377.9314229963	0.194610595703125
2377.94142299627	0.194122314453125
2377.95142299625	0.19366455078125
2377.96142299622	0.19317626953125
2377.9714229962	0.19268798828125
2377.98142299617	0.19219970703125
2377.99142299615	0.191741943359375
2378.00142299612	0.191253662109375
2378.0114229961	0.190765380859375
2378.02142299607	0.190277099609375
2378.03142299605	0.1898193359375
2378.04142299602	0.1893310546875
2378.051422996	0.1888427734375
2378.06142299597	0.1883544921875
2378.07142299595	0.1878662109375
2378.08142299592	0.187408447265625
2378.0914229959	0.186920166015625
2378.10142299587	0.18646240234375
2378.11142299585	0.18597412109375
2378.12142299582	0.18548583984375
2378.1314229958	0.18499755859375
2378.14142299577	0.18450927734375
2378.15142299574	0.18402099609375
2378.16142299572	0.18353271484375
2378.17142299569	0.183074951171875
2378.18142299567	0.182586669921875
2378.19142299564	0.182098388671875
2378.20142299562	0.181610107421875
2378.21142299559	0.181121826171875
2378.22142299557	0.180633544921875
2378.23142299554	0.180145263671875
2378.24142299552	0.1796875
2378.25142299549	0.17919921875
2378.26142299547	0.1787109375
2378.27142299544	0.17822265625
2378.28142299542	0.177734375
2378.29142299539	0.17724609375
2378.30142299537	0.1767578125
2378.31142299534	0.17626953125
2378.32142299532	0.17578125
2378.33142299529	0.17529296875
2378.34142299527	0.1748046875
2378.35142299524	0.17431640625
2378.36142299521	0.173828125
2378.37142299519	0.17333984375
2378.38142299516	0.1728515625
2378.39142299514	0.17236328125
2378.40142299511	0.171875
2378.41142299509	0.171417236328125
2378.42142299506	0.170928955078125
2378.43142299504	0.170440673828125
2378.44142299501	0.169921875
2378.45142299499	0.16943359375
2378.46142299496	0.1689453125
2378.47142299494	0.16845703125
2378.48142299491	0.16796875
2378.49142299489	0.16748046875
2378.50142299486	0.1669921875
2378.51142299484	0.166473388671875
2378.52142299481	0.165985107421875
2378.53142299479	0.165496826171875
2378.54142299476	0.165008544921875
2378.55142299473	0.16448974609375
2378.56142299471	0.16400146484375
2378.57142299468	0.16351318359375
2378.58142299466	0.16302490234375
2378.59142299463	0.16253662109375
2378.60142299461	0.16204833984375
2378.61142299458	0.161529541015625
2378.62142299456	0.161041259765625
2378.63142299453	0.160552978515625
2378.64142299451	0.1600341796875
2378.65142299448	0.1595458984375
2378.66142299446	0.1590576171875
2378.67142299443	0.158538818359375
2378.68142299441	0.158050537109375
2378.69142299438	0.15753173828125
2378.70142299436	0.15704345703125
2378.71142299433	0.15655517578125
2378.72142299431	0.15606689453125
2378.73142299428	0.15557861328125
2378.74142299426	0.155059814453125
2378.75142299423	0.154571533203125
2378.7614229942	0.154052734375
2378.77142299418	0.153564453125
2378.78142299415	0.153045654296875
2378.79142299413	0.152557373046875
2378.8014229941	0.15203857421875
2378.81142299408	0.15155029296875
2378.82142299405	0.151031494140625
2378.83142299403	0.150543212890625
2378.841422994	0.1500244140625
2378.85142299398	0.1495361328125
2378.86142299395	0.149017333984375
2378.87142299393	0.148529052734375
2378.8814229939	0.14801025390625
2378.89142299388	0.14752197265625
2378.90142299385	0.147003173828125
2378.91142299383	0.146484375
2378.9214229938	0.14599609375
2378.93142299378	0.145477294921875
2378.94142299375	0.144989013671875
2378.95142299372	0.14447021484375
2378.9614229937	0.143951416015625
2378.97142299367	0.143463134765625
2378.98142299365	0.1429443359375
2378.99142299362	0.142425537109375
2379.0014229936	0.14190673828125
2379.01142299357	0.14141845703125
2379.02142299355	0.140899658203125
2379.03142299352	0.14044189453125
2379.0414229935	0.139923095703125
2379.05142299347	0.139404296875
2379.06142299345	0.138885498046875
2379.07142299342	0.138397216796875
2379.0814229934	0.13787841796875
2379.09142299337	0.137359619140625
2379.10142299335	0.1368408203125
2379.11142299332	0.136322021484375
2379.1214229933	0.135833740234375
2379.13142299327	0.13531494140625
2379.14142299325	0.134796142578125
2379.15142299322	0.13427734375
2379.16142299319	0.133758544921875
2379.17142299317	0.13323974609375
2379.18142299314	0.13275146484375
2379.19142299312	0.132232666015625
2379.20142299309	0.1317138671875
2379.21142299307	0.131195068359375
2379.22142299304	0.13067626953125
2379.23142299302	0.13018798828125
2379.24142299299	0.129669189453125
2379.25142299297	0.129150390625
2379.26142299294	0.128631591796875
2379.27142299292	0.12811279296875
2379.28142299289	0.127593994140625
2379.29142299287	0.1270751953125
2379.30142299284	0.126556396484375
2379.31142299282	0.12603759765625
2379.32142299279	0.125518798828125
2379.33142299277	0.125030517578125
2379.34142299274	0.12451171875
2379.35142299272	0.123992919921875
2379.36142299269	0.12347412109375
2379.37142299266	0.122955322265625
2379.38142299264	0.1224365234375
2379.39142299261	0.121917724609375
2379.40142299259	0.12139892578125
2379.41142299256	0.120880126953125
2379.42142299254	0.120361328125
2379.43142299251	0.119842529296875
2379.44142299249	0.11932373046875
2379.45142299246	0.1187744140625
2379.46142299244	0.118255615234375
2379.47142299241	0.11773681640625
2379.48142299239	0.11724853515625
2379.49142299236	0.116729736328125
2379.50142299234	0.1162109375
2379.51142299231	0.115692138671875
2379.52142299229	0.115142822265625
2379.53142299226	0.1146240234375
2379.54142299224	0.114105224609375
2379.55142299221	0.11358642578125
2379.56142299218	0.113067626953125
2379.57142299216	0.112548828125
2379.58142299213	0.112030029296875
2379.59142299211	0.11151123046875
2379.60142299208	0.110992431640625
2379.61142299206	0.1104736328125
2379.62142299203	0.109954833984375
2379.63142299201	0.10943603515625
2379.64142299198	0.10894775390625
2379.65142299196	0.108428955078125
2379.66142299193	0.10791015625
2379.67142299191	0.107391357421875
2379.68142299188	0.106842041015625
2379.69142299186	0.1063232421875
2379.70142299183	0.105804443359375
2379.71142299181	0.10528564453125
2379.72142299178	0.104766845703125
2379.73142299176	0.104248046875
2379.74142299173	0.103729248046875
2379.75142299171	0.103179931640625
2379.76142299168	0.1026611328125
2379.77142299165	0.102142333984375
2379.78142299163	0.10162353515625
2379.7914229916	0.101104736328125
2379.80142299158	0.1005859375
2379.81142299155	0.100067138671875
2379.82142299153	0.09954833984375
2379.8314229915	0.099029541015625
2379.84142299148	0.0985107421875
2379.85142299145	0.097991943359375
2379.86142299143	0.097442626953125
2379.8714229914	0.096923828125
2379.88142299138	0.096405029296875
2379.89142299135	0.09588623046875
2379.90142299133	0.095367431640625
2379.9114229913	0.0948486328125
2379.92142299128	0.094329833984375
2379.93142299125	0.09381103515625
2379.94142299123	0.09332275390625
2379.9514229912	0.0927734375
2379.96142299117	0.092254638671875
2379.97142299115	0.09173583984375
2379.98142299112	0.091217041015625
2379.9914229911	0.0906982421875
2380.00142299107	0.090179443359375
2380.01142299105	0.08966064453125
2380.02142299102	0.089141845703125
2380.031422991	0.088623046875
2380.04142299097	0.088104248046875
2380.05142299095	0.08758544921875
2380.06142299092	0.087066650390625
2380.0714229909	0.0865478515625
2380.08142299087	0.086029052734375
2380.09142299085	0.08551025390625
2380.10142299082	0.084991455078125
2380.1114229908	0.08447265625
2380.12142299077	0.083953857421875
2380.13142299075	0.08343505859375
2380.14142299072	0.082916259765625
2380.1514229907	0.0823974609375
2380.16142299067	0.081878662109375
2380.17142299064	0.08135986328125
2380.18142299062	0.080841064453125
2380.19142299059	0.080322265625
2380.20142299057	0.079803466796875
2380.21142299054	0.07928466796875
2380.22142299052	0.078765869140625
2380.23142299049	0.078277587890625
2380.24142299047	0.077789306640625
2380.25142299044	0.0772705078125
2380.26142299042	0.076751708984375
2380.27142299039	0.07623291015625
2380.28142299037	0.075714111328125
2380.29142299034	0.075225830078125
2380.30142299032	0.07470703125
2380.31142299029	0.074188232421875
2380.32142299027	0.07366943359375
2380.33142299024	0.073150634765625
2380.34142299022	0.0726318359375
2380.35142299019	0.072113037109375
2380.36142299017	0.071624755859375
2380.37142299014	0.07110595703125
2380.38142299011	0.070587158203125
2380.39142299009	0.070098876953125
2380.40142299006	0.069580078125
2380.41142299004	0.069061279296875
2380.42142299001	0.068572998046875
2380.43142298999	0.06805419921875
2380.44142298996	0.067535400390625
2380.45142298994	0.0670166015625
2380.46142298991	0.0665283203125
2380.47142298989	0.066009521484375
2380.48142298986	0.06549072265625
2380.49142298984	0.06500244140625
2380.50142298981	0.064483642578125
2380.51142298979	0.06396484375
2380.52142298976	0.0634765625
2380.53142298974	0.062957763671875
2380.54142298971	0.062469482421875
2380.55142298969	0.061981201171875
2380.56142298966	0.06146240234375
2380.57142298963	0.060943603515625
2380.58142298961	0.060455322265625
2380.59142298958	0.0599365234375
2380.60142298956	0.0594482421875
2380.61142298953	0.058929443359375
2380.62142298951	0.058441162109375
2380.63142298948	0.05792236328125
2380.64142298946	0.05743408203125
2380.65142298943	0.056915283203125
2380.66142298941	0.056396484375
2380.67142298938	0.055908203125
2380.68142298936	0.055419921875
2380.69142298933	0.054901123046875
2380.70142298931	0.054412841796875
2380.71142298928	0.053924560546875
2380.72142298926	0.05340576171875
2380.73142298923	0.05291748046875
2380.74142298921	0.052398681640625
2380.75142298918	0.051910400390625
2380.76142298916	0.051422119140625
2380.77142298913	0.0509033203125
2380.7814229891	0.0504150390625
2380.79142298908	0.0499267578125
2380.80142298905	0.0494140625
2380.81142298903	0.04891357421875
2380.821422989	0.0484161376953125
2380.83142298898	0.0479217529296875
2380.84142298895	0.0474273681640625
2380.85142298893	0.046929931640625
2380.8614229889	0.046435546875
2380.87142298888	0.045941162109375
2380.88142298885	0.0454437255859375
2380.89142298883	0.044952392578125
2380.9014229888	0.0444549560546875
2380.91142298878	0.0439605712890625
2380.92142298875	0.04346923828125
2380.93142298873	0.042974853515625
2380.9414229887	0.04248046875
2380.95142298868	0.0419921875
2380.96142298865	0.0414947509765625
2380.97142298862	0.04100341796875
2380.9814229886	0.0405120849609375
2380.99142298857	0.040020751953125
2381.00142298855	0.0395294189453125
2381.01142298852	0.0390411376953125
2381.0214229885	0.0385498046875
2381.03142298847	0.0380615234375
2381.04142298845	0.0375701904296875
2381.05142298842	0.0370819091796875
2381.0614229884	0.036590576171875
2381.07142298837	0.036102294921875
2381.08142298835	0.035614013671875
2381.09142298832	0.035125732421875
2381.1014229883	0.034637451171875
2381.11142298827	0.0341522216796875
2381.12142298825	0.0336669921875
2381.13142298822	0.0331817626953125
2381.1414229882	0.032696533203125
2381.15142298817	0.0322113037109375
2381.16142298815	0.0317230224609375
2381.17142298812	0.03123779296875
2381.18142298809	0.0307525634765625
2381.19142298807	0.030267333984375
2381.20142298804	0.02978515625
2381.21142298802	0.029302978515625
2381.22142298799	0.02882080078125
2381.23142298797	0.028338623046875
2381.24142298794	0.0278594970703125
2381.25142298792	0.0273773193359375
2381.26142298789	0.0268951416015625
2381.27142298787	0.026416015625
2381.28142298784	0.0259368896484375
2381.29142298782	0.025457763671875
2381.30142298779	0.0249786376953125
2381.31142298777	0.0245025634765625
2381.32142298774	0.0240234375
2381.33142298772	0.02354736328125
2381.34142298769	0.0230712890625
2381.35142298767	0.02259521484375
2381.36142298764	0.022119140625
2381.37142298762	0.02164306640625
2381.38142298759	0.0211669921875
2381.39142298756	0.02069091796875
2381.40142298754	0.020220947265625
2381.41142298751	0.0197479248046875
2381.42142298749	0.01927490234375
2381.43142298746	0.0188018798828125
2381.44142298744	0.018328857421875
2381.45142298741	0.01785888671875
2381.46142298739	0.0173858642578125
2381.47142298736	0.0169219970703125
2381.48142298734	0.016448974609375
2381.49142298731	0.01597900390625
2381.50142298729	0.0155120849609375
2381.51142298726	0.015045166015625
2381.52142298724	0.0145751953125
2381.53142298721	0.0141082763671875
2381.54142298719	0.0136444091796875
2381.55142298716	0.0131805419921875
2381.56142298714	0.012713623046875
2381.57142298711	0.012249755859375
2381.58142298708	0.0117828369140625
2381.59142298706	0.0113189697265625
2381.60142298703	0.0108612060546875
2381.61142298701	0.0103973388671875
2381.62142298698	0.0099365234375
2381.63142298696	0.0094757080078125
2381.64142298693	0.009014892578125
2381.65142298691	0.00855407714843751
2381.66142298688	0.00809326171874999
2381.67142298686	0.00763854980468751
2381.68142298683	0.007183837890625
2381.69142298681	0.00672607421875
2381.70142298678	0.006268310546875
2381.71142298676	0.0058135986328125
2381.72142298673	0.00535888671875
2381.73142298671	0.00490417480468749
2381.74142298668	0.0044525146484375
2381.75142298666	0.003997802734375
2381.76142298663	0.00354614257812499
2381.77142298661	0.0030975341796875
2381.78142298658	0.002642822265625
2381.79142298655	0.002197265625
2381.80142298653	0.00174560546874999
2381.8114229865	0.0012969970703125
2381.82142298648	0.000848388671875006
2381.83142298645	0.000399780273437497
2381.84142298643	-4.27246093750028E-05
2381.8514229864	-0.000491333007812497
2381.86142298638	-0.000936889648437494
2381.87142298635	-0.00138244628906251
