Time (s)	WE(1).Potential (V)
2284.26338823279	0.758056640625
2284.27338823276	0.7574462890625
2284.28338823274	0.7568359375
2284.29338823271	0.7562255859375
2284.30338823269	0.75592041015625
2284.31338823266	0.75531005859375
2284.32338823264	0.75469970703125
2284.33338823261	0.75439453125
2284.34338823259	0.7537841796875
2284.35338823256	0.753173828125
2284.36338823254	0.7525634765625
2284.37338823251	0.75225830078125
2284.38338823249	0.75164794921875
2284.39338823246	0.75103759765625
2284.40338823244	0.750732421875
2284.41338823241	0.7501220703125
2284.42338823239	0.74951171875
2284.43338823236	0.7489013671875
2284.44338823233	0.74859619140625
2284.45338823231	0.74798583984375
2284.46338823228	0.74737548828125
2284.47338823226	0.7470703125
2284.48338823223	0.7464599609375
2284.49338823221	0.745849609375
2284.50338823218	0.74554443359375
2284.51338823216	0.74493408203125
2284.52338823213	0.74432373046875
2284.53338823211	0.74371337890625
2284.54338823208	0.743408203125
2284.55338823206	0.7427978515625
2284.56338823203	0.7421875
2284.57338823201	0.74188232421875
2284.58338823198	0.74127197265625
2284.59338823196	0.74066162109375
2284.60338823193	0.7403564453125
2284.61338823191	0.73974609375
2284.62338823188	0.7391357421875
2284.63338823185	0.73883056640625
2284.64338823183	0.73822021484375
2284.6533882318	0.73760986328125
2284.66338823178	0.7373046875
2284.67338823175	0.7366943359375
2284.68338823173	0.736083984375
2284.6933882317	0.73577880859375
2284.70338823168	0.73516845703125
2284.71338823165	0.73455810546875
2284.72338823163	0.7342529296875
2284.7333882316	0.733642578125
2284.74338823158	0.7330322265625
2284.75338823155	0.73272705078125
2284.76338823153	0.73211669921875
2284.7733882315	0.7318115234375
2284.78338823148	0.731201171875
2284.79338823145	0.7305908203125
2284.80338823143	0.73028564453125
2284.8133882314	0.72967529296875
2284.82338823138	0.72906494140625
2284.83338823135	0.728759765625
2284.84338823132	0.7281494140625
2284.8533882313	0.7275390625
2284.86338823127	0.72723388671875
2284.87338823125	0.72662353515625
2284.88338823122	0.726318359375
2284.8933882312	0.7257080078125
2284.90338823117	0.72509765625
2284.91338823115	0.72479248046875
2284.92338823112	0.72418212890625
2284.9333882311	0.72357177734375
2284.94338823107	0.7232666015625
2284.95338823105	0.72265625
2284.96338823102	0.7220458984375
2284.973388231	0.72174072265625
2284.98338823097	0.72113037109375
2284.99338823095	0.7208251953125
2285.00338823092	0.72021484375
2285.0133882309	0.7196044921875
2285.02338823087	0.71929931640625
2285.03338823085	0.71868896484375
2285.04338823082	0.7183837890625
2285.05338823079	0.7177734375
2285.06338823077	0.7171630859375
2285.07338823074	0.71685791015625
2285.08338823072	0.71624755859375
2285.09338823069	0.71563720703125
2285.10338823067	0.71533203125
2285.11338823064	0.7147216796875
2285.12338823062	0.71441650390625
2285.13338823059	0.71380615234375
2285.14338823057	0.71319580078125
2285.15338823054	0.712890625
2285.16338823052	0.7122802734375
2285.17338823049	0.71197509765625
2285.18338823047	0.71136474609375
2285.19338823044	0.71075439453125
2285.20338823042	0.71044921875
2285.21338823039	0.7098388671875
2285.22338823037	0.70953369140625
2285.23338823034	0.70892333984375
2285.24338823031	0.70831298828125
2285.25338823029	0.7080078125
2285.26338823026	0.7073974609375
2285.27338823024	0.70709228515625
2285.28338823021	0.70648193359375
2285.29338823019	0.70587158203125
2285.30338823016	0.70556640625
2285.31338823014	0.7049560546875
2285.32338823011	0.70465087890625
2285.33338823009	0.70404052734375
2285.34338823006	0.7037353515625
2285.35338823004	0.703125
2285.36338823001	0.70281982421875
2285.37338822999	0.70220947265625
2285.38338822996	0.701904296875
2285.39338822994	0.7012939453125
2285.40338822991	0.70068359375
2285.41338822989	0.70037841796875
2285.42338822986	0.69976806640625
2285.43338822984	0.699462890625
2285.44338822981	0.6988525390625
2285.45338822978	0.6982421875
2285.46338822976	0.69793701171875
2285.47338822973	0.69732666015625
2285.48338822971	0.697021484375
2285.49338822968	0.6964111328125
2285.50338822966	0.69580078125
2285.51338822963	0.69549560546875
2285.52338822961	0.69488525390625
2285.53338822958	0.694580078125
2285.54338822956	0.6939697265625
2285.55338822953	0.69366455078125
2285.56338822951	0.69305419921875
2285.57338822948	0.6927490234375
2285.58338822946	0.692138671875
2285.59338822943	0.6915283203125
2285.60338822941	0.69122314453125
2285.61338822938	0.69061279296875
2285.62338822936	0.6903076171875
2285.63338822933	0.689697265625
2285.6433882293	0.6890869140625
2285.65338822928	0.68878173828125
2285.66338822925	0.68817138671875
2285.67338822923	0.6878662109375
2285.6833882292	0.687255859375
2285.69338822918	0.68695068359375
2285.70338822915	0.68634033203125
2285.71338822913	0.68572998046875
2285.7233882291	0.6854248046875
2285.73338822908	0.684814453125
2285.74338822905	0.68450927734375
2285.75338822903	0.68389892578125
2285.763388229	0.68359375
2285.77338822898	0.6829833984375
2285.78338822895	0.68267822265625
2285.79338822893	0.68206787109375
2285.8033882289	0.68145751953125
2285.81338822888	0.68115234375
2285.82338822885	0.6805419921875
2285.83338822883	0.68023681640625
2285.8433882288	0.67962646484375
2285.85338822877	0.6793212890625
2285.86338822875	0.6787109375
2285.87338822872	0.6781005859375
2285.8833882287	0.67779541015625
2285.89338822867	0.67718505859375
2285.90338822865	0.6768798828125
2285.91338822862	0.67626953125
2285.9233882286	0.67596435546875
2285.93338822857	0.67535400390625
2285.94338822855	0.675048828125
2285.95338822852	0.6744384765625
2285.9633882285	0.67413330078125
2285.97338822847	0.67352294921875
2285.98338822845	0.67291259765625
2285.99338822842	0.672607421875
2286.0033882284	0.6719970703125
2286.01338822837	0.67169189453125
2286.02338822835	0.67108154296875
2286.03338822832	0.6707763671875
2286.0433882283	0.670166015625
2286.05338822827	0.66986083984375
2286.06338822824	0.66925048828125
2286.07338822822	0.6689453125
2286.08338822819	0.6683349609375
2286.09338822817	0.667724609375
2286.10338822814	0.66741943359375
2286.11338822812	0.66680908203125
2286.12338822809	0.66650390625
2286.13338822807	0.6658935546875
2286.14338822804	0.66558837890625
2286.15338822802	0.66497802734375
2286.16338822799	0.6646728515625
2286.17338822797	0.6640625
2286.18338822794	0.66375732421875
2286.19338822792	0.66314697265625
2286.20338822789	0.66253662109375
2286.21338822787	0.6622314453125
2286.22338822784	0.66162109375
2286.23338822782	0.66131591796875
2286.24338822779	0.66070556640625
2286.25338822776	0.660400390625
2286.26338822774	0.6597900390625
2286.27338822771	0.65948486328125
2286.28338822769	0.65887451171875
2286.29338822766	0.6585693359375
2286.30338822764	0.657958984375
2286.31338822761	0.65765380859375
2286.32338822759	0.65704345703125
2286.33338822756	0.65643310546875
2286.34338822754	0.6561279296875
2286.35338822751	0.655517578125
2286.36338822749	0.65521240234375
2286.37338822746	0.65460205078125
2286.38338822744	0.654296875
2286.39338822741	0.6536865234375
2286.40338822739	0.65338134765625
2286.41338822736	0.65277099609375
2286.42338822734	0.6524658203125
2286.43338822731	0.65185546875
2286.44338822729	0.65155029296875
2286.45338822726	0.65093994140625
2286.46338822723	0.650634765625
2286.47338822721	0.6500244140625
2286.48338822718	0.64971923828125
2286.49338822716	0.64910888671875
2286.50338822713	0.6488037109375
2286.51338822711	0.648193359375
2286.52338822708	0.64788818359375
2286.53338822706	0.64727783203125
2286.54338822703	0.64697265625
2286.55338822701	0.6463623046875
2286.56338822698	0.64605712890625
2286.57338822696	0.64544677734375
2286.58338822693	0.64483642578125
2286.59338822691	0.64453125
2286.60338822688	0.6439208984375
2286.61338822686	0.64361572265625
2286.62338822683	0.64300537109375
2286.63338822681	0.6427001953125
2286.64338822678	0.64208984375
2286.65338822675	0.64178466796875
2286.66338822673	0.64117431640625
2286.6733882267	0.640869140625
2286.68338822668	0.6402587890625
2286.69338822665	0.63995361328125
2286.70338822663	0.63934326171875
2286.7133882266	0.6390380859375
2286.72338822658	0.638427734375
2286.73338822655	0.63812255859375
2286.74338822653	0.63751220703125
2286.7533882265	0.63720703125
2286.76338822648	0.6365966796875
2286.77338822645	0.63629150390625
2286.78338822643	0.63568115234375
2286.7933882264	0.6353759765625
2286.80338822638	0.634765625
2286.81338822635	0.63446044921875
2286.82338822633	0.63385009765625
2286.8333882263	0.633544921875
2286.84338822628	0.6329345703125
2286.85338822625	0.63262939453125
2286.86338822622	0.63201904296875
2286.8733882262	0.6317138671875
2286.88338822617	0.631103515625
2286.89338822615	0.63079833984375
2286.90338822612	0.63018798828125
2286.9133882261	0.6298828125
2286.92338822607	0.6292724609375
2286.93338822605	0.62896728515625
2286.94338822602	0.62835693359375
2286.953388226	0.6280517578125
2286.96338822597	0.62744140625
2286.97338822595	0.62713623046875
2286.98338822592	0.62652587890625
2286.9933882259	0.626220703125
2287.00338822587	0.6256103515625
2287.01338822585	0.62530517578125
2287.02338822582	0.625
2287.0333882258	0.6243896484375
2287.04338822577	0.62408447265625
2287.05338822575	0.62347412109375
2287.06338822572	0.6231689453125
2287.07338822569	0.62255859375
2287.08338822567	0.62225341796875
2287.09338822564	0.62164306640625
2287.10338822562	0.621337890625
2287.11338822559	0.6207275390625
2287.12338822557	0.62042236328125
2287.13338822554	0.61981201171875
2287.14338822552	0.6195068359375
2287.15338822549	0.618896484375
2287.16338822547	0.61859130859375
2287.17338822544	0.61798095703125
2287.18338822542	0.61767578125
2287.19338822539	0.6170654296875
2287.20338822537	0.61676025390625
2287.21338822534	0.61614990234375
2287.22338822532	0.6158447265625
2287.23338822529	0.61553955078125
2287.24338822527	0.61492919921875
2287.25338822524	0.6146240234375
2287.26338822521	0.614013671875
2287.27338822519	0.61370849609375
2287.28338822516	0.61309814453125
2287.29338822514	0.61279296875
2287.30338822511	0.6121826171875
2287.31338822509	0.61187744140625
2287.32338822506	0.61126708984375
2287.33338822504	0.6109619140625
2287.34338822501	0.6103515625
2287.35338822499	0.61004638671875
2287.36338822496	0.60943603515625
2287.37338822494	0.609130859375
2287.38338822491	0.6085205078125
2287.39338822489	0.60821533203125
2287.40338822486	0.60760498046875
2287.41338822484	0.6072998046875
2287.42338822481	0.606689453125
2287.43338822479	0.60638427734375
2287.44338822476	0.60577392578125
2287.45338822474	0.60546875
2287.46338822471	0.6048583984375
2287.47338822468	0.60455322265625
2287.48338822466	0.60394287109375
2287.49338822463	0.6036376953125
2287.50338822461	0.60302734375
2287.51338822458	0.60272216796875
2287.52338822456	0.6024169921875
2287.53338822453	0.601806640625
2287.54338822451	0.60150146484375
2287.55338822448	0.60089111328125
2287.56338822446	0.6005859375
2287.57338822443	0.5999755859375
2287.58338822441	0.59967041015625
2287.59338822438	0.59906005859375
2287.60338822436	0.5987548828125
2287.61338822433	0.59814453125
2287.62338822431	0.59783935546875
2287.63338822428	0.59722900390625
2287.64338822426	0.596923828125
2287.65338822423	0.5963134765625
2287.6633882242	0.59600830078125
2287.67338822418	0.59539794921875
2287.68338822415	0.5950927734375
2287.69338822413	0.594482421875
2287.7033882241	0.59417724609375
2287.71338822408	0.59356689453125
2287.72338822405	0.59326171875
2287.73338822403	0.59295654296875
2287.743388224	0.59234619140625
2287.75338822398	0.592041015625
2287.76338822395	0.5914306640625
2287.77338822393	0.59112548828125
2287.7833882239	0.59051513671875
2287.79338822388	0.5902099609375
2287.80338822385	0.589599609375
2287.81338822383	0.58929443359375
2287.8233882238	0.58868408203125
2287.83338822378	0.58837890625
2287.84338822375	0.58807373046875
2287.85338822373	0.58746337890625
2287.8633882237	0.587158203125
2287.87338822367	0.5865478515625
2287.88338822365	0.58624267578125
2287.89338822362	0.58563232421875
2287.9033882236	0.5853271484375
2287.91338822357	0.584716796875
2287.92338822355	0.58441162109375
2287.93338822352	0.58380126953125
2287.9433882235	0.58349609375
2287.95338822347	0.5828857421875
2287.96338822345	0.58258056640625
2287.97338822342	0.582275390625
2287.9833882234	0.5816650390625
2287.99338822337	0.58135986328125
2288.00338822335	0.58074951171875
2288.01338822332	0.5804443359375
2288.0233882233	0.579833984375
2288.03338822327	0.57952880859375
2288.04338822325	0.57891845703125
2288.05338822322	0.57861328125
2288.0633882232	0.5780029296875
2288.07338822317	0.57769775390625
2288.08338822314	0.577392578125
2288.09338822312	0.5767822265625
2288.10338822309	0.57647705078125
2288.11338822307	0.57586669921875
2288.12338822304	0.5755615234375
2288.13338822302	0.574951171875
2288.14338822299	0.57464599609375
2288.15338822297	0.57403564453125
2288.16338822294	0.57373046875
2288.17338822292	0.57342529296875
2288.18338822289	0.57281494140625
2288.19338822287	0.572509765625
2288.20338822284	0.5718994140625
2288.21338822282	0.57159423828125
2288.22338822279	0.57098388671875
2288.23338822277	0.5706787109375
2288.24338822274	0.570068359375
2288.25338822272	0.56976318359375
2288.26338822269	0.5694580078125
2288.27338822266	0.56884765625
2288.28338822264	0.56854248046875
2288.29338822261	0.56793212890625
2288.30338822259	0.567626953125
2288.31338822256	0.5670166015625
2288.32338822254	0.56671142578125
2288.33338822251	0.56640625
2288.34338822249	0.5657958984375
2288.35338822246	0.56549072265625
2288.36338822244	0.56488037109375
2288.37338822241	0.5645751953125
2288.38338822239	0.56396484375
2288.39338822236	0.56365966796875
2288.40338822234	0.56304931640625
2288.41338822231	0.562744140625
2288.42338822229	0.56243896484375
2288.43338822226	0.56182861328125
2288.44338822224	0.5615234375
2288.45338822221	0.5609130859375
2288.46338822219	0.56060791015625
2288.47338822216	0.55999755859375
2288.48338822213	0.5596923828125
2288.49338822211	0.55938720703125
2288.50338822208	0.55877685546875
2288.51338822206	0.5584716796875
2288.52338822203	0.557861328125
2288.53338822201	0.55755615234375
2288.54338822198	0.5572509765625
2288.55338822196	0.556640625
2288.56338822193	0.55633544921875
2288.57338822191	0.55572509765625
2288.58338822188	0.555419921875
2288.59338822186	0.5548095703125
2288.60338822183	0.55450439453125
2288.61338822181	0.55419921875
2288.62338822178	0.5535888671875
2288.63338822176	0.55328369140625
2288.64338822173	0.55267333984375
2288.65338822171	0.5523681640625
2288.66338822168	0.55206298828125
2288.67338822165	0.55145263671875
2288.68338822163	0.5511474609375
2288.6933882216	0.550537109375
2288.70338822158	0.55023193359375
2288.71338822155	0.54962158203125
2288.72338822153	0.54931640625
2288.7333882215	0.54901123046875
2288.74338822148	0.54840087890625
2288.75338822145	0.548095703125
2288.76338822143	0.5474853515625
2288.7733882214	0.54718017578125
2288.78338822138	0.546875
2288.79338822135	0.54656982421875
2288.80338822133	0.54595947265625
2288.8133882213	0.545654296875
2288.82338822128	0.5450439453125
2288.83338822125	0.54473876953125
2288.84338822123	0.54412841796875
2288.8533882212	0.5438232421875
2288.86338822118	0.54351806640625
2288.87338822115	0.54290771484375
2288.88338822112	0.5426025390625
2288.8933882211	0.5419921875
2288.90338822107	0.54168701171875
2288.91338822105	0.5413818359375
2288.92338822102	0.540771484375
2288.933388221	0.54046630859375
2288.94338822097	0.53985595703125
2288.95338822095	0.53955078125
2288.96338822092	0.53924560546875
2288.9733882209	0.53863525390625
2288.98338822087	0.538330078125
2288.99338822085	0.5377197265625
2289.00338822082	0.53741455078125
2289.0133882208	0.53680419921875
2289.02338822077	0.5364990234375
2289.03338822075	0.53619384765625
2289.04338822072	0.53558349609375
2289.0533882207	0.5352783203125
2289.06338822067	0.53497314453125
2289.07338822065	0.53436279296875
2289.08338822062	0.5340576171875
2289.09338822059	0.533447265625
2289.10338822057	0.53314208984375
2289.11338822054	0.53253173828125
2289.12338822052	0.5322265625
2289.13338822049	0.53192138671875
2289.14338822047	0.53131103515625
2289.15338822044	0.531005859375
2289.16338822042	0.53070068359375
2289.17338822039	0.53009033203125
2289.18338822037	0.52978515625
2289.19338822034	0.5291748046875
2289.20338822032	0.52886962890625
2289.21338822029	0.528564453125
2289.22338822027	0.5279541015625
2289.23338822024	0.52764892578125
2289.24338822022	0.52703857421875
2289.25338822019	0.5267333984375
2289.26338822017	0.52642822265625
2289.27338822014	0.52581787109375
2289.28338822011	0.5255126953125
2289.29338822009	0.52490234375
2289.30338822006	0.52459716796875
2289.31338822004	0.5242919921875
2289.32338822001	0.523681640625
2289.33338821999	0.52337646484375
2289.34338821996	0.52276611328125
2289.35338821994	0.5224609375
2289.36338821991	0.52215576171875
2289.37338821989	0.52154541015625
2289.38338821986	0.521240234375
2289.39338821984	0.5206298828125
2289.40338821981	0.52032470703125
2289.41338821979	0.52001953125
2289.42338821976	0.5194091796875
2289.43338821974	0.51910400390625
2289.44338821971	0.51849365234375
2289.45338821969	0.5181884765625
2289.46338821966	0.51788330078125
2289.47338821964	0.51727294921875
2289.48338821961	0.5169677734375
2289.49338821958	0.516357421875
2289.50338821956	0.51605224609375
2289.51338821953	0.5157470703125
2289.52338821951	0.51513671875
2289.53338821948	0.51483154296875
2289.54338821946	0.5145263671875
2289.55338821943	0.513916015625
2289.56338821941	0.51361083984375
2289.57338821938	0.51300048828125
2289.58338821936	0.5126953125
2289.59338821933	0.51239013671875
2289.60338821931	0.51177978515625
2289.61338821928	0.511474609375
2289.62338821926	0.5108642578125
2289.63338821923	0.51055908203125
2289.64338821921	0.51025390625
2289.65338821918	0.5096435546875
2289.66338821916	0.50933837890625
2289.67338821913	0.50872802734375
2289.6833882191	0.5084228515625
2289.69338821908	0.50811767578125
2289.70338821905	0.50750732421875
2289.71338821903	0.5072021484375
2289.723388219	0.50689697265625
2289.73338821898	0.50628662109375
2289.74338821895	0.5059814453125
2289.75338821893	0.50537109375
2289.7633882189	0.50506591796875
2289.77338821888	0.5047607421875
2289.78338821885	0.504150390625
2289.79338821883	0.50384521484375
2289.8033882188	0.50323486328125
2289.81338821878	0.5029296875
2289.82338821875	0.50262451171875
2289.83338821873	0.50201416015625
2289.8433882187	0.501708984375
2289.85338821868	0.50140380859375
2289.86338821865	0.50079345703125
2289.87338821863	0.50048828125
2289.8833882186	0.4998779296875
2289.89338821857	0.49969482421875
2289.90338821855	0.499298095703125
2289.91338821852	0.498870849609375
2289.9233882185	0.498443603515625
2289.93338821847	0.498046875
2289.94338821845	0.49761962890625
2289.95338821842	0.4971923828125
2289.9633882184	0.49676513671875
2289.97338821837	0.496368408203125
2289.98338821835	0.495941162109375
2289.99338821832	0.495513916015625
2290.0033882183	0.4951171875
2290.01338821827	0.49468994140625
2290.02338821825	0.4942626953125
2290.03338821822	0.493865966796875
2290.0433882182	0.493438720703125
2290.05338821817	0.4930419921875
2290.06338821815	0.49261474609375
2290.07338821812	0.492218017578125
2290.0833882181	0.491790771484375
2290.09338821807	0.491363525390625
2290.10338821804	0.490966796875
2290.11338821802	0.49053955078125
2290.12338821799	0.490142822265625
2290.13338821797	0.489715576171875
2290.14338821794	0.48931884765625
2290.15338821792	0.4888916015625
2290.16338821789	0.488494873046875
2290.17338821787	0.488067626953125
2290.18338821784	0.4876708984375
2290.19338821782	0.48724365234375
2290.20338821779	0.48681640625
2290.21338821777	0.486419677734375
2290.22338821774	0.485992431640625
2290.23338821772	0.485595703125
2290.24338821769	0.48516845703125
2290.25338821767	0.484771728515625
2290.26338821764	0.484375
2290.27338821762	0.483978271484375
2290.28338821759	0.48358154296875
2290.29338821756	0.483154296875
2290.30338821754	0.482757568359375
2290.31338821751	0.48236083984375
2290.32338821749	0.48193359375
2290.33338821746	0.481536865234375
2290.34338821744	0.481109619140625
2290.35338821741	0.480712890625
2290.36338821739	0.48028564453125
2290.37338821736	0.479888916015625
2290.38338821734	0.4794921875
2290.39338821731	0.47906494140625
2290.40338821729	0.478668212890625
2290.41338821726	0.478240966796875
2290.42338821724	0.47784423828125
2290.43338821721	0.477447509765625
2290.44338821719	0.47705078125
2290.45338821716	0.47662353515625
2290.46338821714	0.476226806640625
2290.47338821711	0.475830078125
2290.48338821709	0.475433349609375
2290.49338821706	0.47503662109375
2290.50338821703	0.474609375
2290.51338821701	0.474212646484375
2290.52338821698	0.47381591796875
2290.53338821696	0.473388671875
2290.54338821693	0.472991943359375
2290.55338821691	0.47259521484375
2290.56338821688	0.472198486328125
2290.57338821686	0.4718017578125
2290.58338821683	0.47137451171875
2290.59338821681	0.470977783203125
2290.60338821678	0.4705810546875
2290.61338821676	0.470184326171875
2290.62338821673	0.46978759765625
2290.63338821671	0.4693603515625
2290.64338821668	0.468963623046875
2290.65338821666	0.468597412109375
2290.66338821663	0.46820068359375
2290.67338821661	0.467803955078125
2290.68338821658	0.4674072265625
2290.69338821655	0.467010498046875
2290.70338821653	0.46661376953125
2290.7133882165	0.4661865234375
2290.72338821648	0.465789794921875
2290.73338821645	0.46539306640625
2290.74338821643	0.464996337890625
2290.7533882164	0.464599609375
2290.76338821638	0.464202880859375
2290.77338821635	0.46380615234375
2290.78338821633	0.463409423828125
2290.7933882163	0.4630126953125
2290.80338821628	0.462615966796875
2290.81338821625	0.46221923828125
2290.82338821623	0.461822509765625
2290.8333882162	0.46142578125
2290.84338821618	0.461029052734375
2290.85338821615	0.460662841796875
2290.86338821613	0.46026611328125
2290.8733882161	0.459869384765625
2290.88338821608	0.45947265625
2290.89338821605	0.459075927734375
2290.90338821602	0.45867919921875
2290.913388216	0.458282470703125
2290.92338821597	0.457916259765625
2290.93338821595	0.45751953125
2290.94338821592	0.457122802734375
2290.9533882159	0.45672607421875
2290.96338821587	0.456329345703125
2290.97338821585	0.4559326171875
2290.98338821582	0.455535888671875
2290.9933882158	0.455169677734375
2291.00338821577	0.45477294921875
2291.01338821575	0.454376220703125
2291.02338821572	0.4539794921875
2291.0333882157	0.453582763671875
2291.04338821567	0.453216552734375
2291.05338821565	0.452850341796875
2291.06338821562	0.452484130859375
2291.0733882156	0.45208740234375
2291.08338821557	0.451690673828125
2291.09338821555	0.4512939453125
2291.10338821552	0.450927734375
2291.11338821549	0.450531005859375
2291.12338821547	0.45013427734375
2291.13338821544	0.44976806640625
2291.14338821542	0.449371337890625
2291.15338821539	0.448974609375
2291.16338821537	0.448577880859375
2291.17338821534	0.448211669921875
2291.18338821532	0.44781494140625
2291.19338821529	0.44744873046875
2291.20338821527	0.447052001953125
2291.21338821524	0.446685791015625
2291.22338821522	0.4462890625
2291.23338821519	0.4459228515625
2291.24338821517	0.445526123046875
2291.25338821514	0.445159912109375
2291.26338821512	0.44476318359375
2291.27338821509	0.44439697265625
2291.28338821507	0.444000244140625
2291.29338821504	0.443634033203125
2291.30338821501	0.4432373046875
2291.31338821499	0.44287109375
2291.32338821496	0.4425048828125
2291.33338821494	0.442108154296875
2291.34338821491	0.441741943359375
2291.35338821489	0.44134521484375
2291.36338821486	0.44097900390625
2291.37338821484	0.440582275390625
2291.38338821481	0.440216064453125
2291.39338821479	0.439849853515625
2291.40338821476	0.439453125
2291.41338821474	0.4390869140625
2291.42338821471	0.438720703125
2291.43338821469	0.438323974609375
2291.44338821466	0.437957763671875
2291.45338821464	0.437591552734375
2291.46338821461	0.437225341796875
2291.47338821459	0.436859130859375
2291.48338821456	0.43646240234375
2291.49338821454	0.43609619140625
2291.50338821451	0.43572998046875
2291.51338821448	0.43536376953125
2291.52338821446	0.434967041015625
2291.53338821443	0.434600830078125
2291.54338821441	0.434234619140625
2291.55338821438	0.433868408203125
2291.56338821436	0.433502197265625
2291.57338821433	0.433135986328125
2291.58338821431	0.432769775390625
2291.59338821428	0.432373046875
2291.60338821426	0.4320068359375
2291.61338821423	0.431640625
2291.62338821421	0.4312744140625
2291.63338821418	0.430908203125
2291.64338821416	0.4305419921875
2291.65338821413	0.43017578125
2291.66338821411	0.4298095703125
2291.67338821408	0.429443359375
2291.68338821406	0.4290771484375
2291.69338821403	0.4287109375
2291.703388214	0.4283447265625
2291.71338821398	0.427978515625
2291.72338821395	0.427642822265625
2291.73338821393	0.427276611328125
2291.7433882139	0.426910400390625
2291.75338821388	0.426544189453125
2291.76338821385	0.426177978515625
2291.77338821383	0.425811767578125
2291.7833882138	0.425445556640625
2291.79338821378	0.425079345703125
2291.80338821375	0.424713134765625
2291.81338821373	0.42437744140625
2291.8233882137	0.42401123046875
2291.83338821368	0.42364501953125
2291.84338821365	0.42327880859375
2291.85338821363	0.42291259765625
2291.8633882136	0.422576904296875
2291.87338821358	0.422210693359375
2291.88338821355	0.421875
2291.89338821353	0.421539306640625
2291.9033882135	0.421173095703125
2291.91338821347	0.420806884765625
2291.92338821345	0.420440673828125
2291.93338821342	0.42010498046875
2291.9433882134	0.41973876953125
2291.95338821337	0.41937255859375
2291.96338821335	0.419036865234375
2291.97338821332	0.418670654296875
2291.9833882133	0.418304443359375
2291.99338821327	0.41796875
2292.00338821325	0.4176025390625
2292.01338821322	0.417266845703125
2292.0233882132	0.416900634765625
2292.03338821317	0.416534423828125
2292.04338821315	0.41619873046875
2292.05338821312	0.41583251953125
2292.0633882131	0.415496826171875
2292.07338821307	0.415130615234375
2292.08338821305	0.414794921875
2292.09338821302	0.4144287109375
2292.103388213	0.414093017578125
2292.11338821297	0.41375732421875
2292.12338821294	0.41339111328125
2292.13338821292	0.413055419921875
2292.14338821289	0.412689208984375
2292.15338821287	0.412353515625
2292.16338821284	0.4119873046875
2292.17338821282	0.411651611328125
2292.18338821279	0.41131591796875
2292.19338821277	0.41094970703125
2292.20338821274	0.410614013671875
2292.21338821272	0.410247802734375
2292.22338821269	0.409912109375
2292.23338821267	0.409576416015625
2292.24338821264	0.409210205078125
2292.25338821262	0.40887451171875
2292.26338821259	0.408538818359375
2292.27338821257	0.408172607421875
2292.28338821254	0.4078369140625
2292.29338821252	0.407501220703125
2292.30338821249	0.407135009765625
2292.31338821246	0.40679931640625
2292.32338821244	0.406463623046875
2292.33338821241	0.4061279296875
2292.34338821239	0.405792236328125
2292.35338821236	0.40545654296875
2292.36338821234	0.405120849609375
2292.37338821231	0.404754638671875
2292.38338821229	0.4044189453125
2292.39338821226	0.404083251953125
2292.40338821224	0.40374755859375
2292.41338821221	0.403411865234375
2292.42338821219	0.403045654296875
2292.43338821216	0.4027099609375
2292.44338821214	0.402374267578125
2292.45338821211	0.40203857421875
2292.46338821209	0.401702880859375
2292.47338821206	0.4013671875
2292.48338821204	0.4010009765625
2292.49338821201	0.400665283203125
2292.50338821199	0.40032958984375
2292.51338821196	0.399993896484375
2292.52338821193	0.399658203125
2292.53338821191	0.399322509765625
2292.54338821188	0.39898681640625
2292.55338821186	0.398651123046875
2292.56338821183	0.3983154296875
2292.57338821181	0.397979736328125
2292.58338821178	0.39764404296875
2292.59338821176	0.397308349609375
2292.60338821173	0.39697265625
2292.61338821171	0.396636962890625
2292.62338821168	0.39630126953125
2292.63338821166	0.395965576171875
2292.64338821163	0.3956298828125
2292.65338821161	0.395294189453125
2292.66338821158	0.39495849609375
2292.67338821156	0.394622802734375
2292.68338821153	0.394287109375
2292.69338821151	0.393951416015625
2292.70338821148	0.39361572265625
2292.71338821145	0.393280029296875
2292.72338821143	0.3929443359375
2292.7333882114	0.392608642578125
2292.74338821138	0.39227294921875
2292.75338821135	0.391937255859375
2292.76338821133	0.3916015625
2292.7733882113	0.391265869140625
2292.78338821128	0.39093017578125
2292.79338821125	0.390625
2292.80338821123	0.39031982421875
2292.8133882112	0.389984130859375
2292.82338821118	0.3896484375
2292.83338821115	0.389312744140625
2292.84338821113	0.38897705078125
2292.8533882111	0.388641357421875
2292.86338821108	0.388336181640625
2292.87338821105	0.38800048828125
2292.88338821103	0.387664794921875
2292.893388211	0.3873291015625
2292.90338821098	0.386993408203125
2292.91338821095	0.38665771484375
2292.92338821092	0.386322021484375
2292.9333882109	0.386016845703125
2292.94338821087	0.38568115234375
2292.95338821085	0.385345458984375
2292.96338821082	0.385009765625
2292.9733882108	0.384674072265625
2292.98338821077	0.384368896484375
2292.99338821075	0.384033203125
2293.00338821072	0.383697509765625
2293.0133882107	0.38336181640625
2293.02338821067	0.383056640625
2293.03338821065	0.382720947265625
2293.04338821062	0.382415771484375
2293.0533882106	0.382080078125
2293.06338821057	0.381744384765625
2293.07338821055	0.381439208984375
2293.08338821052	0.381103515625
2293.0933882105	0.380767822265625
2293.10338821047	0.380462646484375
2293.11338821045	0.380126953125
2293.12338821042	0.379791259765625
2293.13338821039	0.379486083984375
2293.14338821037	0.379150390625
2293.15338821034	0.378814697265625
2293.16338821032	0.378509521484375
2293.17338821029	0.378173828125
2293.18338821027	0.377838134765625
2293.19338821024	0.377532958984375
2293.20338821022	0.377197265625
2293.21338821019	0.376861572265625
2293.22338821017	0.376556396484375
2293.23338821014	0.376220703125
2293.24338821012	0.375885009765625
2293.25338821009	0.375579833984375
2293.26338821007	0.375244140625
2293.27338821004	0.374969482421875
2293.28338821002	0.3746337890625
2293.29338820999	0.374298095703125
2293.30338820997	0.373992919921875
2293.31338820994	0.3736572265625
2293.32338820991	0.37335205078125
2293.33338820989	0.373016357421875
2293.34338820986	0.372711181640625
2293.35338820984	0.37237548828125
2293.36338820981	0.3720703125
2293.37338820979	0.371734619140625
2293.38338820976	0.371429443359375
2293.39338820974	0.37109375
2293.40338820971	0.370758056640625
2293.41338820969	0.370452880859375
2293.42338820966	0.370147705078125
2293.43338820964	0.36981201171875
2293.44338820961	0.3695068359375
2293.45338820959	0.369171142578125
2293.46338820956	0.368865966796875
2293.47338820954	0.3685302734375
2293.48338820951	0.36822509765625
2293.49338820949	0.367889404296875
2293.50338820946	0.367584228515625
2293.51338820944	0.367279052734375
2293.52338820941	0.366943359375
2293.53338820938	0.36663818359375
2293.54338820936	0.3663330078125
2293.55338820933	0.365997314453125
2293.56338820931	0.365692138671875
2293.57338820928	0.3653564453125
2293.58338820926	0.36505126953125
2293.59338820923	0.36474609375
2293.60338820921	0.364410400390625
2293.61338820918	0.364105224609375
2293.62338820916	0.36376953125
2293.63338820913	0.36346435546875
2293.64338820911	0.3631591796875
2293.65338820908	0.362823486328125
2293.66338820906	0.362518310546875
2293.67338820903	0.362213134765625
2293.68338820901	0.36187744140625
2293.69338820898	0.361572265625
2293.70338820896	0.36126708984375
2293.71338820893	0.360931396484375
2293.7233882089	0.360626220703125
2293.73338820888	0.360321044921875
2293.74338820885	0.3599853515625
2293.75338820883	0.35968017578125
2293.7633882088	0.359405517578125
2293.77338820878	0.359100341796875
2293.78338820875	0.358795166015625
2293.79338820873	0.35845947265625
2293.8033882087	0.358154296875
2293.81338820868	0.35784912109375
2293.82338820865	0.357513427734375
2293.83338820863	0.357208251953125
2293.8433882086	0.356903076171875
2293.85338820858	0.356597900390625
2293.86338820855	0.356292724609375
2293.87338820853	0.35595703125
2293.8833882085	0.35565185546875
2293.89338820848	0.3553466796875
2293.90338820845	0.355010986328125
2293.91338820843	0.354705810546875
2293.9233882084	0.354400634765625
2293.93338820837	0.354095458984375
2293.94338820835	0.353790283203125
2293.95338820832	0.35345458984375
2293.9633882083	0.3531494140625
2293.97338820827	0.35284423828125
2293.98338820825	0.3525390625
2293.99338820822	0.35223388671875
2294.0033882082	0.351898193359375
2294.01338820817	0.351593017578125
2294.02338820815	0.351318359375
2294.03338820812	0.350982666015625
2294.0433882081	0.350677490234375
2294.05338820807	0.350372314453125
2294.06338820805	0.350067138671875
2294.07338820802	0.349761962890625
2294.083388208	0.34942626953125
2294.09338820797	0.34912109375
2294.10338820795	0.34881591796875
2294.11338820792	0.3485107421875
2294.1233882079	0.34820556640625
2294.13338820787	0.347900390625
2294.14338820784	0.34759521484375
2294.15338820782	0.347259521484375
2294.16338820779	0.346954345703125
2294.17338820777	0.346649169921875
2294.18338820774	0.346343994140625
2294.19338820772	0.346038818359375
2294.20338820769	0.345733642578125
2294.21338820767	0.345428466796875
2294.22338820764	0.345123291015625
2294.23338820762	0.344818115234375
2294.24338820759	0.344512939453125
2294.25338820757	0.344207763671875
2294.26338820754	0.343902587890625
2294.27338820752	0.3436279296875
2294.28338820749	0.343292236328125
2294.29338820747	0.342987060546875
2294.30338820744	0.342681884765625
2294.31338820742	0.342376708984375
2294.32338820739	0.342071533203125
2294.33338820736	0.341766357421875
2294.34338820734	0.341461181640625
2294.35338820731	0.341156005859375
2294.36338820729	0.340850830078125
2294.37338820726	0.340545654296875
2294.38338820724	0.340240478515625
2294.39338820721	0.339935302734375
2294.40338820719	0.339630126953125
2294.41338820716	0.339324951171875
2294.42338820714	0.339019775390625
2294.43338820711	0.338714599609375
2294.44338820709	0.338409423828125
2294.45338820706	0.338104248046875
2294.46338820704	0.337799072265625
2294.47338820701	0.337493896484375
2294.48338820699	0.337188720703125
2294.49338820696	0.336883544921875
2294.50338820694	0.336578369140625
2294.51338820691	0.336273193359375
2294.52338820689	0.33599853515625
2294.53338820686	0.335693359375
2294.54338820683	0.33538818359375
2294.55338820681	0.3350830078125
2294.56338820678	0.33477783203125
2294.57338820676	0.33447265625
2294.58338820673	0.33416748046875
2294.59338820671	0.333892822265625
2294.60338820668	0.333587646484375
2294.61338820666	0.333282470703125
2294.62338820663	0.332977294921875
2294.63338820661	0.332672119140625
2294.64338820658	0.332366943359375
2294.65338820656	0.332061767578125
2294.66338820653	0.331756591796875
2294.67338820651	0.33148193359375
2294.68338820648	0.3311767578125
2294.69338820646	0.33087158203125
2294.70338820643	0.33056640625
2294.71338820641	0.330291748046875
2294.72338820638	0.329986572265625
2294.73338820635	0.329681396484375
2294.74338820633	0.329376220703125
2294.7533882063	0.329071044921875
2294.76338820628	0.328765869140625
2294.77338820625	0.3284912109375
2294.78338820623	0.32818603515625
2294.7933882062	0.32794189453125
2294.80338820618	0.32763671875
2294.81338820615	0.32733154296875
2294.82338820613	0.3270263671875
2294.8333882061	0.326751708984375
2294.84338820608	0.326446533203125
2294.85338820605	0.326141357421875
2294.86338820603	0.32586669921875
2294.873388206	0.3255615234375
2294.88338820598	0.32525634765625
2294.89338820595	0.324981689453125
2294.90338820593	0.324676513671875
2294.9133882059	0.324371337890625
2294.92338820588	0.3240966796875
2294.93338820585	0.32379150390625
2294.94338820582	0.323486328125
2294.9533882058	0.323211669921875
2294.96338820577	0.322906494140625
2294.97338820575	0.3226318359375
2294.98338820572	0.32232666015625
2294.9933882057	0.322021484375
2295.00338820567	0.321746826171875
2295.01338820565	0.321441650390625
2295.02338820562	0.3211669921875
2295.0333882056	0.32086181640625
2295.04338820557	0.320587158203125
2295.05338820555	0.3203125
2295.06338820552	0.32000732421875
2295.0733882055	0.319732666015625
2295.08338820547	0.319427490234375
2295.09338820545	0.31915283203125
2295.10338820542	0.31884765625
2295.1133882054	0.318572998046875
2295.12338820537	0.318267822265625
2295.13338820534	0.3179931640625
2295.14338820532	0.31768798828125
2295.15338820529	0.317413330078125
2295.16338820527	0.317138671875
2295.17338820524	0.31683349609375
2295.18338820522	0.316558837890625
2295.19338820519	0.3162841796875
2295.20338820517	0.31597900390625
2295.21338820514	0.315704345703125
2295.22338820512	0.315399169921875
2295.23338820509	0.31512451171875
2295.24338820507	0.314849853515625
2295.25338820504	0.3145751953125
2295.26338820502	0.31427001953125
2295.27338820499	0.313995361328125
2295.28338820497	0.313720703125
2295.29338820494	0.313446044921875
2295.30338820492	0.31317138671875
2295.31338820489	0.3128662109375
2295.32338820487	0.312591552734375
2295.33338820484	0.31231689453125
2295.34338820481	0.312042236328125
2295.35338820479	0.311767578125
2295.36338820476	0.311492919921875
2295.37338820474	0.31121826171875
2295.38338820471	0.3109130859375
2295.39338820469	0.310638427734375
2295.40338820466	0.31036376953125
2295.41338820464	0.310089111328125
2295.42338820461	0.309814453125
2295.43338820459	0.309539794921875
2295.44338820456	0.30926513671875
2295.45338820454	0.308990478515625
2295.46338820451	0.3087158203125
2295.47338820449	0.308441162109375
2295.48338820446	0.30816650390625
2295.49338820444	0.307891845703125
2295.50338820441	0.3076171875
2295.51338820439	0.307342529296875
2295.52338820436	0.30706787109375
2295.53338820434	0.306793212890625
2295.54338820431	0.3065185546875
2295.55338820428	0.306243896484375
2295.56338820426	0.30596923828125
2295.57338820423	0.305694580078125
2295.58338820421	0.305419921875
2295.59338820418	0.305145263671875
2295.60338820416	0.304901123046875
2295.61338820413	0.30462646484375
2295.62338820411	0.304351806640625
2295.63338820408	0.304107666015625
2295.64338820406	0.3038330078125
2295.65338820403	0.303558349609375
2295.66338820401	0.30328369140625
2295.67338820398	0.303009033203125
2295.68338820396	0.302764892578125
2295.69338820393	0.302490234375
2295.70338820391	0.302215576171875
2295.71338820388	0.30194091796875
2295.72338820386	0.30169677734375
2295.73338820383	0.301422119140625
2295.7433882038	0.3011474609375
2295.75338820378	0.3009033203125
2295.76338820375	0.300628662109375
2295.77338820373	0.30035400390625
2295.7833882037	0.30010986328125
2295.79338820368	0.299835205078125
2295.80338820365	0.299560546875
2295.81338820363	0.29931640625
2295.8233882036	0.299041748046875
2295.83338820358	0.298797607421875
2295.84338820355	0.29852294921875
2295.85338820353	0.29827880859375
2295.8633882035	0.298004150390625
2295.87338820348	0.297760009765625
2295.88338820345	0.2974853515625
2295.89338820343	0.2972412109375
2295.9033882034	0.296966552734375
2295.91338820338	0.2967529296875
2295.92338820335	0.296478271484375
2295.93338820333	0.296234130859375
2295.9433882033	0.295989990234375
2295.95338820327	0.29571533203125
2295.96338820325	0.29547119140625
2295.97338820322	0.295196533203125
2295.9833882032	0.294952392578125
2295.99338820317	0.294708251953125
2296.00338820315	0.29443359375
2296.01338820312	0.294189453125
2296.0233882031	0.293914794921875
2296.03338820307	0.293670654296875
2296.04338820305	0.293426513671875
2296.05338820302	0.29315185546875
2296.063388203	0.29290771484375
2296.07338820297	0.29266357421875
2296.08338820295	0.292388916015625
2296.09338820292	0.292144775390625
2296.1033882029	0.291900634765625
2296.11338820287	0.291656494140625
2296.12338820285	0.2913818359375
2296.13338820282	0.2911376953125
2296.14338820279	0.2908935546875
2296.15338820277	0.290618896484375
2296.16338820274	0.290374755859375
2296.17338820272	0.290130615234375
2296.18338820269	0.289886474609375
2296.19338820267	0.28961181640625
2296.20338820264	0.28936767578125
2296.21338820262	0.28912353515625
2296.22338820259	0.28887939453125
2296.23338820257	0.28863525390625
2296.24338820254	0.28839111328125
2296.25338820252	0.28814697265625
2296.26338820249	0.28790283203125
2296.27338820247	0.287628173828125
2296.28338820244	0.287384033203125
2296.29338820242	0.287139892578125
2296.30338820239	0.286895751953125
2296.31338820237	0.286651611328125
2296.32338820234	0.286376953125
2296.33338820232	0.2861328125
2296.34338820229	0.285888671875
2296.35338820226	0.28564453125
2296.36338820224	0.285400390625
2296.37338820221	0.28515625
2296.38338820219	0.284881591796875
2296.39338820216	0.284637451171875
2296.40338820214	0.284393310546875
2296.41338820211	0.284149169921875
2296.42338820209	0.283905029296875
2296.43338820206	0.283660888671875
2296.44338820204	0.283416748046875
2296.45338820201	0.283172607421875
2296.46338820199	0.28289794921875
2296.47338820196	0.28265380859375
2296.48338820194	0.28240966796875
2296.49338820191	0.28216552734375
2296.50338820189	0.28192138671875
2296.51338820186	0.28167724609375
2296.52338820184	0.281402587890625
2296.53338820181	0.28118896484375
2296.54338820179	0.28094482421875
2296.55338820176	0.28070068359375
2296.56338820173	0.28045654296875
2296.57338820171	0.28021240234375
2296.58338820168	0.27996826171875
2296.59338820166	0.279693603515625
2296.60338820163	0.279449462890625
2296.61338820161	0.279205322265625
2296.62338820158	0.278961181640625
2296.63338820156	0.278717041015625
2296.64338820153	0.278472900390625
2296.65338820151	0.2781982421875
2296.66338820148	0.2779541015625
2296.67338820146	0.2777099609375
2296.68338820143	0.2774658203125
2296.69338820141	0.2772216796875
2296.70338820138	0.276947021484375
2296.71338820136	0.276702880859375
2296.72338820133	0.276458740234375
2296.73338820131	0.276214599609375
2296.74338820128	0.275970458984375
2296.75338820125	0.275726318359375
2296.76338820123	0.27545166015625
2296.7733882012	0.27520751953125
2296.78338820118	0.27496337890625
2296.79338820115	0.27471923828125
2296.80338820113	0.274444580078125
2296.8133882011	0.274200439453125
2296.82338820108	0.273956298828125
2296.83338820105	0.273712158203125
2296.84338820103	0.273468017578125
2296.853388201	0.273223876953125
2296.86338820098	0.27294921875
2296.87338820095	0.272705078125
2296.88338820093	0.2724609375
2296.8933882009	0.272186279296875
2296.90338820088	0.271942138671875
2296.91338820085	0.271697998046875
2296.92338820083	0.27142333984375
2296.9333882008	0.27117919921875
2296.94338820078	0.270904541015625
2296.95338820075	0.270660400390625
2296.96338820072	0.270416259765625
2296.9733882007	0.270172119140625
2296.98338820067	0.2698974609375
2296.99338820065	0.2696533203125
2297.00338820062	0.269378662109375
2297.0133882006	0.269134521484375
2297.02338820057	0.26885986328125
2297.03338820055	0.26861572265625
2297.04338820052	0.26837158203125
2297.0533882005	0.268096923828125
2297.06338820047	0.267852783203125
2297.07338820045	0.267578125
2297.08338820042	0.267333984375
2297.0933882004	0.267059326171875
2297.10338820037	0.266815185546875
2297.11338820035	0.26654052734375
2297.12338820032	0.26629638671875
2297.1333882003	0.266021728515625
2297.14338820027	0.2657470703125
2297.15338820024	0.265533447265625
2297.16338820022	0.265289306640625
2297.17338820019	0.2650146484375
2297.18338820017	0.264739990234375
2297.19338820014	0.264495849609375
2297.20338820012	0.26422119140625
2297.21338820009	0.263946533203125
2297.22338820007	0.263702392578125
2297.23338820004	0.263427734375
2297.24338820002	0.263153076171875
2297.25338819999	0.262908935546875
2297.26338819997	0.26263427734375
2297.27338819994	0.262359619140625
2297.28338819992	0.262115478515625
2297.29338819989	0.2618408203125
2297.30338819987	0.261566162109375
2297.31338819984	0.26129150390625
2297.32338819982	0.26104736328125
2297.33338819979	0.260772705078125
2297.34338819977	0.260498046875
2297.35338819974	0.260223388671875
2297.36338819971	0.259979248046875
2297.37338819969	0.25970458984375
2297.38338819966	0.259429931640625
2297.39338819964	0.2591552734375
2297.40338819961	0.258880615234375
2297.41338819959	0.25860595703125
2297.42338819956	0.258331298828125
2297.43338819954	0.258056640625
2297.44338819951	0.2578125
2297.45338819949	0.257537841796875
2297.46338819946	0.25726318359375
2297.47338819944	0.256988525390625
2297.48338819941	0.2567138671875
2297.49338819939	0.256439208984375
2297.50338819936	0.25616455078125
2297.51338819934	0.255889892578125
2297.52338819931	0.255615234375
2297.53338819929	0.255340576171875
2297.54338819926	0.25506591796875
2297.55338819924	0.254791259765625
2297.56338819921	0.2545166015625
2297.57338819918	0.254241943359375
2297.58338819916	0.25396728515625
2297.59338819913	0.253692626953125
2297.60338819911	0.25341796875
2297.61338819908	0.253143310546875
2297.62338819906	0.25286865234375
2297.63338819903	0.252593994140625
2297.64338819901	0.2523193359375
2297.65338819898	0.25201416015625
2297.66338819896	0.251739501953125
2297.67338819893	0.25146484375
2297.68338819891	0.251190185546875
2297.69338819888	0.25091552734375
2297.70338819886	0.250640869140625
2297.71338819883	0.250335693359375
2297.72338819881	0.25006103515625
2297.73338819878	0.24981689453125
2297.74338819876	0.249542236328125
2297.75338819873	0.249267578125
2297.7633881987	0.248992919921875
2297.77338819868	0.248687744140625
2297.78338819865	0.2484130859375
2297.79338819863	0.248138427734375
2297.8033881986	0.247833251953125
2297.81338819858	0.24755859375
2297.82338819855	0.247283935546875
2297.83338819853	0.24700927734375
2297.8433881985	0.2467041015625
2297.85338819848	0.246429443359375
2297.86338819845	0.24615478515625
2297.87338819843	0.245849609375
2297.8833881984	0.245574951171875
2297.89338819838	0.24530029296875
2297.90338819835	0.2449951171875
2297.91338819833	0.244720458984375
2297.9233881983	0.24444580078125
2297.93338819828	0.244140625
2297.94338819825	0.243865966796875
2297.95338819823	0.243560791015625
2297.9633881982	0.2432861328125
2297.97338819817	0.243011474609375
2297.98338819815	0.242706298828125
2297.99338819812	0.242431640625
2298.0033881981	0.242156982421875
2298.01338819807	0.241851806640625
2298.02338819805	0.2415771484375
2298.03338819802	0.241302490234375
2298.043388198	0.240997314453125
2298.05338819797	0.24072265625
2298.06338819795	0.24041748046875
2298.07338819792	0.240142822265625
2298.0833881979	0.239837646484375
2298.09338819787	0.23956298828125
2298.10338819785	0.2392578125
2298.11338819782	0.238983154296875
2298.1233881978	0.238677978515625
2298.13338819777	0.2384033203125
2298.14338819775	0.23809814453125
2298.15338819772	0.237823486328125
2298.16338819769	0.237518310546875
2298.17338819767	0.23724365234375
2298.18338819764	0.2369384765625
2298.19338819762	0.236663818359375
2298.20338819759	0.236358642578125
2298.21338819757	0.236083984375
2298.22338819754	0.23577880859375
2298.23338819752	0.235504150390625
2298.24338819749	0.235198974609375
2298.25338819747	0.23492431640625
2298.26338819744	0.234619140625
2298.27338819742	0.234375
2298.28338819739	0.234100341796875
2298.29338819737	0.233795166015625
2298.30338819734	0.233489990234375
2298.31338819732	0.23321533203125
2298.32338819729	0.23291015625
2298.33338819727	0.232635498046875
2298.34338819724	0.232330322265625
2298.35338819722	0.232025146484375
2298.36338819719	0.23175048828125
2298.37338819716	0.2314453125
2298.38338819714	0.231170654296875
2298.39338819711	0.230865478515625
2298.40338819709	0.2305908203125
2298.41338819706	0.23028564453125
2298.42338819704	0.22998046875
2298.43338819701	0.229705810546875
2298.44338819699	0.229400634765625
2298.45338819696	0.229095458984375
2298.46338819694	0.22882080078125
2298.47338819691	0.228515625
2298.48338819689	0.228240966796875
2298.49338819686	0.227935791015625
2298.50338819684	0.227630615234375
2298.51338819681	0.22735595703125
2298.52338819679	0.22705078125
2298.53338819676	0.22674560546875
2298.54338819674	0.226470947265625
2298.55338819671	0.2261962890625
2298.56338819669	0.22589111328125
2298.57338819666	0.2255859375
2298.58338819663	0.225311279296875
2298.59338819661	0.225006103515625
2298.60338819658	0.224700927734375
2298.61338819656	0.22442626953125
2298.62338819653	0.22412109375
2298.63338819651	0.22381591796875
2298.64338819648	0.223541259765625
2298.65338819646	0.223236083984375
2298.66338819643	0.222930908203125
2298.67338819641	0.22265625
2298.68338819638	0.22235107421875
2298.69338819636	0.2220458984375
2298.70338819633	0.221771240234375
2298.71338819631	0.221466064453125
2298.72338819628	0.221160888671875
2298.73338819626	0.220855712890625
2298.74338819623	0.2205810546875
2298.75338819621	0.22027587890625
2298.76338819618	0.219970703125
2298.77338819615	0.219696044921875
2298.78338819613	0.219390869140625
2298.7933881961	0.219085693359375
2298.80338819608	0.21881103515625
2298.81338819605	0.218536376953125
2298.82338819603	0.218231201171875
2298.833388196	0.217926025390625
2298.84338819598	0.2176513671875
2298.85338819595	0.21734619140625
2298.86338819593	0.217041015625
2298.8733881959	0.216766357421875
2298.88338819588	0.216461181640625
2298.89338819585	0.216156005859375
2298.90338819583	0.215850830078125
2298.9133881958	0.215576171875
2298.92338819578	0.21527099609375
2298.93338819575	0.2149658203125
2298.94338819573	0.21466064453125
2298.9533881957	0.214385986328125
2298.96338819568	0.214080810546875
2298.97338819565	0.213775634765625
2298.98338819562	0.2135009765625
2298.9933881956	0.21319580078125
2299.00338819557	0.212890625
2299.01338819555	0.21258544921875
2299.02338819552	0.212310791015625
2299.0333881955	0.212005615234375
2299.04338819547	0.211700439453125
2299.05338819545	0.211395263671875
2299.06338819542	0.21112060546875
2299.0733881954	0.2108154296875
2299.08338819537	0.210540771484375
2299.09338819535	0.210235595703125
2299.10338819532	0.209930419921875
2299.1133881953	0.209625244140625
2299.12338819527	0.2093505859375
2299.13338819525	0.20904541015625
2299.14338819522	0.208740234375
2299.1533881952	0.20843505859375
2299.16338819517	0.2081298828125
2299.17338819514	0.207855224609375
2299.18338819512	0.207550048828125
2299.19338819509	0.207244873046875
2299.20338819507	0.206939697265625
2299.21338819504	0.2066650390625
2299.22338819502	0.20635986328125
2299.23338819499	0.2060546875
2299.24338819497	0.20574951171875
2299.25338819494	0.205474853515625
2299.26338819492	0.205169677734375
2299.27338819489	0.204864501953125
2299.28338819487	0.204559326171875
2299.29338819484	0.20428466796875
2299.30338819482	0.2039794921875
2299.31338819479	0.20367431640625
2299.32338819477	0.203369140625
2299.33338819474	0.203094482421875
2299.34338819472	0.20281982421875
2299.35338819469	0.2025146484375
2299.36338819467	0.20220947265625
2299.37338819464	0.201934814453125
2299.38338819461	0.201629638671875
2299.39338819459	0.201324462890625
2299.40338819456	0.201019287109375
2299.41338819454	0.200714111328125
2299.42338819451	0.200439453125
2299.43338819449	0.20013427734375
2299.44338819446	0.1998291015625
2299.45338819444	0.19952392578125
2299.46338819441	0.19921875
2299.47338819439	0.19891357421875
2299.48338819436	0.198638916015625
2299.49338819434	0.198333740234375
2299.50338819431	0.198028564453125
2299.51338819429	0.197723388671875
2299.52338819426	0.197418212890625
2299.53338819424	0.1971435546875
2299.54338819421	0.19683837890625
2299.55338819419	0.196533203125
2299.56338819416	0.19622802734375
2299.57338819414	0.1959228515625
2299.58338819411	0.19561767578125
2299.59338819408	0.195343017578125
2299.60338819406	0.195037841796875
2299.61338819403	0.19476318359375
2299.62338819401	0.194427490234375
2299.63338819398	0.19415283203125
2299.64338819396	0.19384765625
2299.65338819393	0.19354248046875
2299.66338819391	0.1932373046875
2299.67338819388	0.19293212890625
2299.68338819386	0.192626953125
2299.69338819383	0.192352294921875
2299.70338819381	0.192047119140625
2299.71338819378	0.191741943359375
2299.72338819376	0.191436767578125
2299.73338819373	0.191131591796875
2299.74338819371	0.190826416015625
2299.75338819368	0.190521240234375
2299.76338819366	0.190216064453125
2299.77338819363	0.18994140625
2299.7833881936	0.18963623046875
2299.79338819358	0.1893310546875
2299.80338819355	0.18902587890625
2299.81338819353	0.188720703125
2299.8233881935	0.18841552734375
2299.83338819348	0.1881103515625
2299.84338819345	0.18780517578125
2299.85338819343	0.187530517578125
2299.8633881934	0.187225341796875
2299.87338819338	0.186920166015625
2299.88338819335	0.186614990234375
2299.89338819333	0.186309814453125
2299.9033881933	0.186004638671875
2299.91338819328	0.185699462890625
2299.92338819325	0.1854248046875
2299.93338819323	0.18511962890625
2299.9433881932	0.184814453125
2299.95338819318	0.18450927734375
2299.96338819315	0.1842041015625
2299.97338819313	0.18389892578125
2299.9833881931	0.18359375
2299.99338819307	0.18328857421875
2300.00338819305	0.1829833984375
2300.01338819302	0.18267822265625
2300.023388193	0.182373046875
2300.03338819297	0.18206787109375
2300.04338819295	0.1817626953125
2300.05338819292	0.18145751953125
2300.0633881929	0.18115234375
2300.07338819287	0.18084716796875
2300.08338819285	0.1805419921875
2300.09338819282	0.18023681640625
2300.1033881928	0.179931640625
2300.11338819277	0.179656982421875
2300.12338819275	0.179351806640625
2300.13338819272	0.179046630859375
2300.1433881927	0.178741455078125
2300.15338819267	0.178436279296875
2300.16338819265	0.178131103515625
2300.17338819262	0.177825927734375
2300.18338819259	0.177520751953125
2300.19338819257	0.177215576171875
2300.20338819254	0.176910400390625
2300.21338819252	0.17657470703125
2300.22338819249	0.17626953125
2300.23338819247	0.17596435546875
2300.24338819244	0.1756591796875
2300.25338819242	0.17535400390625
2300.26338819239	0.175048828125
2300.27338819237	0.17474365234375
2300.28338819234	0.1744384765625
2300.29338819232	0.17413330078125
2300.30338819229	0.173828125
2300.31338819227	0.17352294921875
2300.32338819224	0.1732177734375
2300.33338819222	0.17291259765625
2300.34338819219	0.172607421875
2300.35338819217	0.17230224609375
2300.36338819214	0.1719970703125
2300.37338819212	0.171722412109375
2300.38338819209	0.171417236328125
2300.39338819206	0.171112060546875
2300.40338819204	0.1707763671875
2300.41338819201	0.17047119140625
2300.42338819199	0.170166015625
2300.43338819196	0.16986083984375
2300.44338819194	0.1695556640625
2300.45338819191	0.16925048828125
2300.46338819189	0.1689453125
2300.47338819186	0.168609619140625
2300.48338819184	0.168304443359375
2300.49338819181	0.167999267578125
2300.50338819179	0.167694091796875
2300.51338819176	0.167388916015625
2300.52338819174	0.167083740234375
2300.53338819171	0.166748046875
2300.54338819169	0.16644287109375
2300.55338819166	0.1661376953125
2300.56338819164	0.16583251953125
2300.57338819161	0.16552734375
2300.58338819159	0.165191650390625
2300.59338819156	0.164886474609375
2300.60338819153	0.164581298828125
2300.61338819151	0.164276123046875
2300.62338819148	0.163970947265625
2300.63338819146	0.163665771484375
2300.64338819143	0.163360595703125
2300.65338819141	0.16302490234375
2300.66338819138	0.1627197265625
2300.67338819136	0.16241455078125
2300.68338819133	0.162109375
2300.69338819131	0.161773681640625
2300.70338819128	0.161468505859375
2300.71338819126	0.161163330078125
2300.72338819123	0.160858154296875
2300.73338819121	0.1605224609375
2300.74338819118	0.16021728515625
2300.75338819116	0.159912109375
2300.76338819113	0.15960693359375
2300.77338819111	0.159271240234375
2300.78338819108	0.158966064453125
2300.79338819105	0.158660888671875
2300.80338819103	0.158355712890625
2300.813388191	0.15802001953125
2300.82338819098	0.15771484375
2300.83338819095	0.15740966796875
2300.84338819093	0.157073974609375
2300.8533881909	0.156768798828125
2300.86338819088	0.156463623046875
2300.87338819085	0.156158447265625
2300.88338819083	0.155853271484375
2300.8933881908	0.155548095703125
2300.90338819078	0.15521240234375
2300.91338819075	0.1549072265625
2300.92338819073	0.15460205078125
2300.9333881907	0.154266357421875
2300.94338819068	0.153961181640625
2300.95338819065	0.153656005859375
2300.96338819063	0.1533203125
2300.9733881906	0.15301513671875
2300.98338819058	0.1527099609375
2300.99338819055	0.152374267578125
2301.00338819052	0.152069091796875
2301.0133881905	0.151763916015625
2301.02338819047	0.15142822265625
2301.03338819045	0.151123046875
2301.04338819042	0.150787353515625
2301.0533881904	0.150482177734375
2301.06338819037	0.150146484375
2301.07338819035	0.14984130859375
2301.08338819032	0.1495361328125
2301.0933881903	0.149200439453125
2301.10338819027	0.148895263671875
2301.11338819025	0.148590087890625
2301.12338819022	0.148284912109375
2301.1333881902	0.14794921875
2301.14338819017	0.14764404296875
2301.15338819015	0.147308349609375
2301.16338819012	0.147003173828125
2301.1733881901	0.146697998046875
2301.18338819007	0.1463623046875
2301.19338819004	0.14605712890625
2301.20338819002	0.145721435546875
2301.21338818999	0.145416259765625
2301.22338818997	0.145111083984375
2301.23338818994	0.144775390625
2301.24338818992	0.14447021484375
2301.25338818989	0.144134521484375
2301.26338818987	0.143829345703125
2301.27338818984	0.14349365234375
2301.28338818982	0.1431884765625
2301.29338818979	0.142852783203125
2301.30338818977	0.142547607421875
2301.31338818974	0.1422119140625
2301.32338818972	0.14190673828125
2301.33338818969	0.141571044921875
2301.34338818967	0.141265869140625
2301.35338818964	0.140960693359375
2301.36338818962	0.140655517578125
2301.37338818959	0.140350341796875
2301.38338818957	0.1400146484375
2301.39338818954	0.13970947265625
2301.40338818951	0.139373779296875
2301.41338818949	0.139068603515625
2301.42338818946	0.13873291015625
2301.43338818944	0.138427734375
2301.44338818941	0.138092041015625
2301.45338818939	0.137786865234375
2301.46338818936	0.137451171875
2301.47338818934	0.13714599609375
2301.48338818931	0.136810302734375
2301.49338818929	0.136505126953125
2301.50338818926	0.13616943359375
2301.51338818924	0.1358642578125
2301.52338818921	0.135528564453125
2301.53338818919	0.135223388671875
2301.54338818916	0.1348876953125
2301.55338818914	0.13458251953125
2301.56338818911	0.134246826171875
2301.57338818909	0.133941650390625
2301.58338818906	0.13360595703125
2301.59338818904	0.133270263671875
2301.60338818901	0.132965087890625
2301.61338818898	0.132659912109375
2301.62338818896	0.13232421875
2301.63338818893	0.13201904296875
2301.64338818891	0.131683349609375
2301.65338818888	0.13134765625
2301.66338818886	0.13104248046875
2301.67338818883	0.130706787109375
2301.68338818881	0.130401611328125
2301.69338818878	0.13006591796875
2301.70338818876	0.1297607421875
2301.71338818873	0.129425048828125
2301.72338818871	0.12908935546875
2301.73338818868	0.1287841796875
2301.74338818866	0.128448486328125
2301.75338818863	0.12811279296875
2301.76338818861	0.1278076171875
2301.77338818858	0.127471923828125
2301.78338818856	0.127166748046875
2301.79338818853	0.1268310546875
2301.8033881885	0.12652587890625
2301.81338818848	0.126190185546875
2301.82338818845	0.1258544921875
2301.83338818843	0.12554931640625
2301.8433881884	0.125213623046875
2301.85338818838	0.124908447265625
2301.86338818835	0.124603271484375
2301.87338818833	0.124267578125
2301.8833881883	0.12396240234375
2301.89338818828	0.123626708984375
2301.90338818825	0.123291015625
2301.91338818823	0.12298583984375
2301.9233881882	0.122650146484375
2301.93338818818	0.122344970703125
2301.94338818815	0.12200927734375
2301.95338818813	0.121673583984375
2301.9633881881	0.121368408203125
2301.97338818808	0.12103271484375
2301.98338818805	0.1207275390625
2301.99338818803	0.120391845703125
2302.003388188	0.12005615234375
2302.01338818797	0.1197509765625
2302.02338818795	0.119415283203125
2302.03338818792	0.11907958984375
2302.0433881879	0.1187744140625
2302.05338818787	0.118438720703125
2302.06338818785	0.118133544921875
2302.07338818782	0.1177978515625
2302.0833881878	0.117462158203125
2302.09338818777	0.117156982421875
2302.10338818775	0.116851806640625
2302.11338818772	0.11651611328125
2302.1233881877	0.116180419921875
2302.13338818767	0.115875244140625
2302.14338818765	0.11553955078125
2302.15338818762	0.115203857421875
2302.1633881876	0.114898681640625
2302.17338818757	0.11456298828125
2302.18338818755	0.1142578125
2302.19338818752	0.113922119140625
2302.20338818749	0.113616943359375
2302.21338818747	0.11328125
2302.22338818744	0.112945556640625
2302.23338818742	0.112640380859375
2302.24338818739	0.1123046875
2302.25338818737	0.111968994140625
2302.26338818734	0.111663818359375
2302.27338818732	0.111328125
2302.28338818729	0.110992431640625
2302.29338818727	0.110687255859375
2302.30338818724	0.1103515625
2302.31338818722	0.11004638671875
2302.32338818719	0.109710693359375
2302.33338818717	0.109405517578125
2302.34338818714	0.109100341796875
2302.35338818712	0.108795166015625
2302.36338818709	0.10845947265625
2302.37338818707	0.108123779296875
2302.38338818704	0.107818603515625
2302.39338818702	0.10748291015625
2302.40338818699	0.107147216796875
2302.41338818696	0.106842041015625
2302.42338818694	0.10650634765625
2302.43338818691	0.106201171875
2302.44338818689	0.105865478515625
2302.45338818686	0.105560302734375
2302.46338818684	0.105224609375
2302.47338818681	0.104888916015625
2302.48338818679	0.104583740234375
2302.49338818676	0.104248046875
2302.50338818674	0.103912353515625
2302.51338818671	0.103607177734375
2302.52338818669	0.103271484375
2302.53338818666	0.10296630859375
2302.54338818664	0.102630615234375
2302.55338818661	0.102325439453125
2302.56338818659	0.10198974609375
2302.57338818656	0.1016845703125
2302.58338818654	0.101348876953125
2302.59338818651	0.101043701171875
2302.60338818649	0.1007080078125
2302.61338818646	0.10040283203125
2302.62338818643	0.100067138671875
2302.63338818641	0.099761962890625
2302.64338818638	0.09942626953125
2302.65338818636	0.099090576171875
2302.66338818633	0.098785400390625
2302.67338818631	0.09844970703125
2302.68338818628	0.09814453125
2302.69338818626	0.097808837890625
2302.70338818623	0.097503662109375
2302.71338818621	0.09716796875
2302.72338818618	0.096832275390625
2302.73338818616	0.096527099609375
2302.74338818613	0.09619140625
2302.75338818611	0.09588623046875
2302.76338818608	0.095550537109375
2302.77338818606	0.095245361328125
2302.78338818603	0.09490966796875
2302.79338818601	0.0946044921875
2302.80338818598	0.094268798828125
2302.81338818595	0.093963623046875
2302.82338818593	0.093658447265625
2302.8333881859	0.093353271484375
2302.84338818588	0.093017578125
2302.85338818585	0.09271240234375
2302.86338818583	0.092376708984375
2302.8733881858	0.092071533203125
2302.88338818578	0.09173583984375
2302.89338818575	0.0914306640625
2302.90338818573	0.091094970703125
2302.9133881857	0.090789794921875
2302.92338818568	0.0904541015625
2302.93338818565	0.09014892578125
2302.94338818563	0.089813232421875
2302.9533881856	0.089508056640625
2302.96338818558	0.089202880859375
2302.97338818555	0.0888671875
2302.98338818553	0.08856201171875
2302.9933881855	0.088226318359375
2303.00338818548	0.087921142578125
2303.01338818545	0.08758544921875
2303.02338818542	0.0872802734375
2303.0333881854	0.086944580078125
2303.04338818537	0.086639404296875
2303.05338818535	0.086334228515625
2303.06338818532	0.08599853515625
2303.0733881853	0.085693359375
2303.08338818527	0.08538818359375
2303.09338818525	0.085052490234375
2303.10338818522	0.084747314453125
2303.1133881852	0.084442138671875
2303.12338818517	0.0841064453125
2303.13338818515	0.08380126953125
2303.14338818512	0.08349609375
2303.1533881851	0.083160400390625
2303.16338818507	0.082855224609375
2303.17338818505	0.082550048828125
2303.18338818502	0.08221435546875
2303.193388185	0.0819091796875
2303.20338818497	0.081573486328125
2303.21338818494	0.081268310546875
2303.22338818492	0.080963134765625
2303.23338818489	0.080657958984375
2303.24338818487	0.080322265625
2303.25338818484	0.08001708984375
2303.26338818482	0.0797119140625
2303.27338818479	0.079376220703125
2303.28338818477	0.079071044921875
2303.29338818474	0.078765869140625
2303.30338818472	0.078460693359375
2303.31338818469	0.078155517578125
2303.32338818467	0.077850341796875
2303.33338818464	0.077545166015625
2303.34338818462	0.077239990234375
2303.35338818459	0.076934814453125
2303.36338818457	0.07659912109375
2303.37338818454	0.0762939453125
2303.38338818452	0.07598876953125
2303.39338818449	0.07568359375
2303.40338818447	0.075347900390625
2303.41338818444	0.075042724609375
2303.42338818441	0.074737548828125
2303.43338818439	0.074432373046875
2303.44338818436	0.074127197265625
2303.45338818434	0.073822021484375
2303.46338818431	0.073486328125
2303.47338818429	0.07318115234375
2303.48338818426	0.0728759765625
2303.49338818424	0.07257080078125
2303.50338818421	0.072265625
2303.51338818419	0.07196044921875
2303.52338818416	0.0716552734375
2303.53338818414	0.071319580078125
2303.54338818411	0.071014404296875
2303.55338818409	0.070709228515625
2303.56338818406	0.070404052734375
2303.57338818404	0.070098876953125
2303.58338818401	0.069793701171875
2303.59338818399	0.069488525390625
2303.60338818396	0.069183349609375
2303.61338818394	0.068878173828125
2303.62338818391	0.068572998046875
2303.63338818388	0.068267822265625
2303.64338818386	0.067962646484375
2303.65338818383	0.067657470703125
2303.66338818381	0.067352294921875
2303.67338818378	0.067047119140625
2303.68338818376	0.066741943359375
2303.69338818373	0.06640625
2303.70338818371	0.066131591796875
2303.71338818368	0.0657958984375
2303.72338818366	0.06549072265625
2303.73338818363	0.065185546875
2303.74338818361	0.06488037109375
2303.75338818358	0.0645751953125
2303.76338818356	0.06427001953125
2303.77338818353	0.06396484375
2303.78338818351	0.06365966796875
2303.79338818348	0.063385009765625
2303.80338818346	0.063079833984375
2303.81338818343	0.062774658203125
2303.8233881834	0.062469482421875
2303.83338818338	0.062164306640625
2303.84338818335	0.061859130859375
2303.85338818333	0.061553955078125
2303.8633881833	0.061248779296875
2303.87338818328	0.06097412109375
2303.88338818325	0.0606689453125
2303.89338818323	0.06036376953125
2303.9033881832	0.06005859375
2303.91338818318	0.05975341796875
2303.92338818315	0.0594482421875
2303.93338818313	0.05914306640625
2303.9433881831	0.058837890625
2303.95338818308	0.05853271484375
2303.96338818305	0.0582275390625
2303.97338818303	0.057952880859375
2303.983388183	0.057647705078125
2303.99338818298	0.057342529296875
2304.00338818295	0.057037353515625
2304.01338818293	0.056732177734375
2304.0233881829	0.056427001953125
2304.03338818287	0.05615234375
2304.04338818285	0.05584716796875
2304.05338818282	0.0555419921875
2304.0633881828	0.05523681640625
2304.07338818277	0.054962158203125
2304.08338818275	0.054656982421875
2304.09338818272	0.054351806640625
2304.1033881827	0.0540771484375
2304.11338818267	0.05377197265625
2304.12338818265	0.053466796875
2304.13338818262	0.05316162109375
2304.1433881826	0.052886962890625
2304.15338818257	0.052581787109375
2304.16338818255	0.052276611328125
2304.17338818252	0.051971435546875
2304.1833881825	0.05169677734375
2304.19338818247	0.0513916015625
2304.20338818245	0.05108642578125
2304.21338818242	0.050811767578125
2304.22338818239	0.050506591796875
2304.23338818237	0.050201416015625
2304.24338818234	0.0499267578125
2304.25338818232	0.049615478515625
2304.26338818229	0.0493194580078125
2304.27338818227	0.0490264892578125
2304.28338818224	0.04873046875
2304.29338818222	0.0484405517578125
2304.30338818219	0.0481475830078125
2304.31338818217	0.0478515625
2304.32338818214	0.0475616455078125
2304.33338818212	0.0472686767578125
2304.34338818209	0.04697265625
2304.35338818207	0.0466827392578125
2304.36338818204	0.0463897705078125
2304.37338818202	0.0460968017578125
2304.38338818199	0.045806884765625
2304.39338818197	0.045513916015625
2304.40338818194	0.04522705078125
2304.41338818192	0.04493408203125
2304.42338818189	0.0446441650390625
2304.43338818186	0.0443511962890625
2304.44338818184	0.044061279296875
2304.45338818181	0.043768310546875
2304.46338818179	0.0434814453125
2304.47338818176	0.0431915283203125
2304.48338818174	0.042901611328125
2304.49338818171	0.0426116943359375
2304.50338818169	0.0423187255859375
2304.51338818166	0.042034912109375
2304.52338818164	0.0417449951171875
2304.53338818161	0.041455078125
2304.54338818159	0.041168212890625
2304.55338818156	0.0408782958984375
2304.56338818154	0.0405914306640625
2304.57338818151	0.0403045654296875
2304.58338818149	0.0400177001953125
2304.59338818146	0.039727783203125
2304.60338818144	0.03944091796875
2304.61338818141	0.039154052734375
2304.62338818139	0.0388702392578125
2304.63338818136	0.0385833740234375
2304.64338818133	0.0382965087890625
2304.65338818131	0.0380096435546875
2304.66338818128	0.0377227783203125
2304.67338818126	0.0374420166015625
2304.68338818123	0.0371551513671875
2304.69338818121	0.036871337890625
2304.70338818118	0.03658447265625
2304.71338818116	0.0363006591796875
2304.72338818113	0.036016845703125
2304.73338818111	0.0357330322265625
2304.74338818108	0.0354522705078125
2304.75338818106	0.03516845703125
2304.76338818103	0.034881591796875
2304.77338818101	0.034600830078125
2304.78338818098	0.034320068359375
2304.79338818096	0.0340362548828125
2304.80338818093	0.03375244140625
2304.81338818091	0.0334716796875
2304.82338818088	0.0331878662109375
2304.83338818085	0.0329071044921875
2304.84338818083	0.03262939453125
2304.8533881808	0.0323455810546875
2304.86338818078	0.0320648193359375
2304.87338818075	0.0317840576171875
2304.88338818073	0.0315032958984375
2304.8933881807	0.031219482421875
2304.90338818068	0.0309417724609375
2304.91338818065	0.030657958984375
2304.92338818063	0.0303802490234375
2304.9333881806	0.0301025390625
2304.94338818058	0.02982177734375
2304.95338818055	0.029547119140625
2304.96338818053	0.0292694091796875
2304.9733881805	0.0289886474609375
2304.98338818048	0.0287109375
2304.99338818045	0.0284332275390625
2305.00338818043	0.028155517578125
2305.0133881804	0.0278778076171875
2305.02338818038	0.02760009765625
2305.03338818035	0.0273223876953125
2305.04338818032	0.0270477294921875
2305.0533881803	0.02677001953125
2305.06338818027	0.026495361328125
2305.07338818025	0.026220703125
2305.08338818022	0.025946044921875
2305.0933881802	0.02567138671875
2305.10338818017	0.0253936767578125
2305.11338818015	0.0251190185546875
2305.12338818012	0.0248504638671875
2305.1333881801	0.0245758056640625
2305.14338818007	0.024298095703125
2305.15338818005	0.0240264892578125
2305.16338818002	0.0237518310546875
2305.17338818	0.023480224609375
2305.18338817997	0.0232086181640625
2305.19338817995	0.02293701171875
2305.20338817992	0.0226654052734375
2305.2133881799	0.022393798828125
2305.22338817987	0.0221221923828125
2305.23338817984	0.0218475341796875
2305.24338817982	0.0215789794921875
2305.25338817979	0.021307373046875
2305.26338817977	0.0210357666015625
2305.27338817974	0.02076416015625
2305.28338817972	0.02049560546875
2305.29338817969	0.0202301025390625
2305.30338817967	0.0199615478515625
2305.31338817964	0.0196929931640625
2305.32338817962	0.01942138671875
2305.33338817959	0.01915283203125
2305.34338817957	0.01888427734375
2305.35338817954	0.01861572265625
2305.36338817952	0.01834716796875
2305.37338817949	0.01807861328125
2305.38338817947	0.0178131103515625
2305.39338817944	0.0175445556640625
2305.40338817942	0.017279052734375
2305.41338817939	0.0170166015625
2305.42338817937	0.016748046875
2305.43338817934	0.0164825439453125
2305.44338817931	0.0162200927734375
2305.45338817929	0.01595458984375
2305.46338817926	0.0156890869140625
2305.47338817924	0.0154266357421875
2305.48338817921	0.0151611328125
2305.49338817919	0.014898681640625
2305.50338817916	0.01463623046875
2305.51338817914	0.0143707275390625
2305.52338817911	0.014111328125
2305.53338817909	0.013848876953125
2305.54338817906	0.0135833740234375
2305.55338817904	0.013323974609375
2305.56338817901	0.0130615234375
2305.57338817899	0.012799072265625
2305.58338817896	0.0125396728515625
2305.59338817894	0.0122772216796875
2305.60338817891	0.012017822265625
2305.61338817889	0.0117584228515625
2305.62338817886	0.0114990234375
2305.63338817884	0.011236572265625
2305.64338817881	0.010980224609375
2305.65338817878	0.0107208251953125
2305.66338817876	0.0104644775390625
2305.67338817873	0.010205078125
2305.68338817871	0.0099456787109375
2305.69338817868	0.009686279296875
2305.70338817866	0.009429931640625
2305.71338817863	0.009173583984375
2305.72338817861	0.00891723632812499
2305.73338817858	0.00866088867187501
2305.74338817856	0.008404541015625
2305.75338817853	0.008148193359375
2305.76338817851	0.007891845703125
2305.77338817848	0.0076416015625
2305.78338817846	0.00738525390625
2305.79338817843	0.00712890625
2305.80338817841	0.006878662109375
2305.81338817838	0.006622314453125
2305.82338817836	0.00637207031250001
2305.83338817833	0.0061187744140625
2305.8433881783	0.0058624267578125
2305.85338817828	0.0056121826171875
2305.86338817825	0.00535888671875
2305.87338817823	0.005108642578125
2305.8833881782	0.0048553466796875
2305.89338817818	0.0046051025390625
2305.90338817815	0.00435485839843749
2305.91338817813	0.0041015625
2305.9233881781	0.00385437011718751
2305.93338817808	0.0036041259765625
2305.94338817805	0.00335693359375
2305.95338817803	0.00310668945312501
2305.963388178	0.0028564453125
2305.97338817798	0.0026092529296875
2305.98338817795	0.002362060546875
2305.99338817793	0.00211486816406251
2306.0033881779	0.0018646240234375
2306.01338817788	0.001617431640625
2306.02338817785	0.0013763427734375
2306.03338817783	0.001129150390625
2306.0433881778	0.000881958007812503
2306.05338817777	0.000634765625000006
2306.06338817775	0.000390625000000006
2306.07338817772	0.000146484375000006
2306.0833881777	-9.76562499999944E-05
2306.09338817767	-0.000341796874999994
2306.10338817765	-0.000588989257812506
2306.11338817762	-0.000833129882812506
