Time (s)	WE(1).Potential (V)
2239.01514834703	0.75469970703125
2239.025148347	0.75408935546875
2239.03514834698	0.7537841796875
2239.04514834695	0.753173828125
2239.05514834693	0.7525634765625
2239.0651483469	0.751953125
2239.07514834688	0.75164794921875
2239.08514834685	0.75103759765625
2239.09514834683	0.75042724609375
2239.1051483468	0.7501220703125
2239.11514834678	0.74951171875
2239.12514834675	0.7489013671875
2239.13514834673	0.74859619140625
2239.1451483467	0.74798583984375
2239.15514834668	0.74737548828125
2239.16514834665	0.7470703125
2239.17514834663	0.7464599609375
2239.1851483466	0.745849609375
2239.19514834658	0.7452392578125
2239.20514834655	0.74493408203125
2239.21514834652	0.74432373046875
2239.2251483465	0.74371337890625
2239.23514834647	0.743408203125
2239.24514834645	0.7427978515625
2239.25514834642	0.7421875
2239.2651483464	0.74188232421875
2239.27514834637	0.74127197265625
2239.28514834635	0.74066162109375
2239.29514834632	0.7403564453125
2239.3051483463	0.73974609375
2239.31514834627	0.7391357421875
2239.32514834625	0.73883056640625
2239.33514834622	0.73822021484375
2239.3451483462	0.73760986328125
2239.35514834617	0.7373046875
2239.36514834615	0.7366943359375
2239.37514834612	0.736083984375
2239.3851483461	0.73577880859375
2239.39514834607	0.73516845703125
2239.40514834605	0.73455810546875
2239.41514834602	0.7342529296875
2239.42514834599	0.733642578125
2239.43514834597	0.7330322265625
2239.44514834594	0.73272705078125
2239.45514834592	0.73211669921875
2239.46514834589	0.73150634765625
2239.47514834587	0.731201171875
2239.48514834584	0.7305908203125
2239.49514834582	0.73028564453125
2239.50514834579	0.72967529296875
2239.51514834577	0.72906494140625
2239.52514834574	0.728759765625
2239.53514834572	0.7281494140625
2239.54514834569	0.7275390625
2239.55514834567	0.72723388671875
2239.56514834564	0.72662353515625
2239.57514834562	0.726318359375
2239.58514834559	0.7257080078125
2239.59514834557	0.72509765625
2239.60514834554	0.72479248046875
2239.61514834552	0.72418212890625
2239.62514834549	0.72357177734375
2239.63514834546	0.7232666015625
2239.64514834544	0.72265625
2239.65514834541	0.72235107421875
2239.66514834539	0.72174072265625
2239.67514834536	0.72113037109375
2239.68514834534	0.7208251953125
2239.69514834531	0.72021484375
2239.70514834529	0.7196044921875
2239.71514834526	0.71929931640625
2239.72514834524	0.71868896484375
2239.73514834521	0.7183837890625
2239.74514834519	0.7177734375
2239.75514834516	0.7171630859375
2239.76514834514	0.71685791015625
2239.77514834511	0.71624755859375
2239.78514834509	0.71563720703125
2239.79514834506	0.71533203125
2239.80514834504	0.7147216796875
2239.81514834501	0.71441650390625
2239.82514834498	0.71380615234375
2239.83514834496	0.7135009765625
2239.84514834493	0.712890625
2239.85514834491	0.7122802734375
2239.86514834488	0.71197509765625
2239.87514834486	0.71136474609375
2239.88514834483	0.71075439453125
2239.89514834481	0.71044921875
2239.90514834478	0.7098388671875
2239.91514834476	0.70953369140625
2239.92514834473	0.70892333984375
2239.93514834471	0.7086181640625
2239.94514834468	0.7080078125
2239.95514834466	0.7073974609375
2239.96514834463	0.70709228515625
2239.97514834461	0.70648193359375
2239.98514834458	0.7061767578125
2239.99514834456	0.70556640625
2240.00514834453	0.7049560546875
2240.01514834451	0.70465087890625
2240.02514834448	0.70404052734375
2240.03514834445	0.7037353515625
2240.04514834443	0.703125
2240.0551483444	0.70281982421875
2240.06514834438	0.70220947265625
2240.07514834435	0.701904296875
2240.08514834433	0.7012939453125
2240.0951483443	0.70068359375
2240.10514834428	0.70037841796875
2240.11514834425	0.69976806640625
2240.12514834423	0.699462890625
2240.1351483442	0.6988525390625
2240.14514834418	0.69854736328125
2240.15514834415	0.69793701171875
2240.16514834413	0.69732666015625
2240.1751483441	0.697021484375
2240.18514834408	0.6964111328125
2240.19514834405	0.69610595703125
2240.20514834403	0.69549560546875
2240.215148344	0.6951904296875
2240.22514834397	0.694580078125
2240.23514834395	0.6939697265625
2240.24514834392	0.69366455078125
2240.2551483439	0.69305419921875
2240.26514834387	0.6927490234375
2240.27514834385	0.692138671875
2240.28514834382	0.6915283203125
2240.2951483438	0.69122314453125
2240.30514834377	0.69091796875
2240.31514834375	0.6903076171875
2240.32514834372	0.689697265625
2240.3351483437	0.68939208984375
2240.34514834367	0.68878173828125
2240.35514834365	0.6884765625
2240.36514834362	0.6878662109375
2240.3751483436	0.687255859375
2240.38514834357	0.68695068359375
2240.39514834355	0.68634033203125
2240.40514834352	0.68603515625
2240.4151483435	0.6854248046875
2240.42514834347	0.68511962890625
2240.43514834344	0.68450927734375
2240.44514834342	0.68389892578125
2240.45514834339	0.68359375
2240.46514834337	0.6829833984375
2240.47514834334	0.68267822265625
2240.48514834332	0.68206787109375
2240.49514834329	0.6817626953125
2240.50514834327	0.68115234375
2240.51514834324	0.68084716796875
2240.52514834322	0.68023681640625
2240.53514834319	0.679931640625
2240.54514834317	0.6793212890625
2240.55514834314	0.6787109375
2240.56514834312	0.67840576171875
2240.57514834309	0.67779541015625
2240.58514834307	0.677490234375
2240.59514834304	0.6768798828125
2240.60514834302	0.67657470703125
2240.61514834299	0.67596435546875
2240.62514834297	0.67535400390625
2240.63514834294	0.675048828125
2240.64514834291	0.6744384765625
2240.65514834289	0.67413330078125
2240.66514834286	0.67352294921875
2240.67514834284	0.6732177734375
2240.68514834281	0.672607421875
2240.69514834279	0.67230224609375
2240.70514834276	0.67169189453125
2240.71514834274	0.67138671875
2240.72514834271	0.6707763671875
2240.73514834269	0.67047119140625
2240.74514834266	0.66986083984375
2240.75514834264	0.66925048828125
2240.76514834261	0.6689453125
2240.77514834259	0.6683349609375
2240.78514834256	0.66802978515625
2240.79514834254	0.66741943359375
2240.80514834251	0.6671142578125
2240.81514834249	0.66650390625
2240.82514834246	0.66619873046875
2240.83514834243	0.66558837890625
2240.84514834241	0.665283203125
2240.85514834238	0.6646728515625
2240.86514834236	0.66436767578125
2240.87514834233	0.66375732421875
2240.88514834231	0.6634521484375
2240.89514834228	0.662841796875
2240.90514834226	0.6622314453125
2240.91514834223	0.66192626953125
2240.92514834221	0.66131591796875
2240.93514834218	0.6610107421875
2240.94514834216	0.660400390625
2240.95514834213	0.66009521484375
2240.96514834211	0.65948486328125
2240.97514834208	0.6591796875
2240.98514834206	0.6585693359375
2240.99514834203	0.65826416015625
2241.00514834201	0.65765380859375
2241.01514834198	0.6573486328125
2241.02514834196	0.65673828125
2241.03514834193	0.6561279296875
2241.0451483419	0.65582275390625
2241.05514834188	0.65521240234375
2241.06514834185	0.6549072265625
2241.07514834183	0.654296875
2241.0851483418	0.65399169921875
2241.09514834178	0.65338134765625
2241.10514834175	0.653076171875
2241.11514834173	0.6524658203125
2241.1251483417	0.65216064453125
2241.13514834168	0.65155029296875
2241.14514834165	0.6512451171875
2241.15514834163	0.650634765625
2241.1651483416	0.65032958984375
2241.17514834158	0.64971923828125
2241.18514834155	0.6494140625
2241.19514834153	0.6488037109375
2241.2051483415	0.64849853515625
2241.21514834148	0.64788818359375
2241.22514834145	0.6475830078125
2241.23514834142	0.64697265625
2241.2451483414	0.64666748046875
2241.25514834137	0.64605712890625
2241.26514834135	0.64544677734375
2241.27514834132	0.6451416015625
2241.2851483413	0.64453125
2241.29514834127	0.64422607421875
2241.30514834125	0.64361572265625
2241.31514834122	0.643310546875
2241.3251483412	0.6427001953125
2241.33514834117	0.64239501953125
2241.34514834115	0.64178466796875
2241.35514834112	0.6414794921875
2241.3651483411	0.640869140625
2241.37514834107	0.64056396484375
2241.38514834105	0.63995361328125
2241.39514834102	0.6396484375
2241.405148341	0.6390380859375
2241.41514834097	0.63873291015625
2241.42514834095	0.63812255859375
2241.43514834092	0.6378173828125
2241.44514834089	0.63720703125
2241.45514834087	0.63690185546875
2241.46514834084	0.63629150390625
2241.47514834082	0.635986328125
2241.48514834079	0.6353759765625
2241.49514834077	0.63507080078125
2241.50514834074	0.63446044921875
2241.51514834072	0.6341552734375
2241.52514834069	0.633544921875
2241.53514834067	0.63323974609375
2241.54514834064	0.63262939453125
2241.55514834062	0.63232421875
2241.56514834059	0.6317138671875
2241.57514834057	0.63140869140625
2241.58514834054	0.63079833984375
2241.59514834052	0.6304931640625
2241.60514834049	0.6298828125
2241.61514834047	0.62957763671875
2241.62514834044	0.62896728515625
2241.63514834042	0.628662109375
2241.64514834039	0.6280517578125
2241.65514834036	0.62774658203125
2241.66514834034	0.62713623046875
2241.67514834031	0.6268310546875
2241.68514834029	0.626220703125
2241.69514834026	0.62591552734375
2241.70514834024	0.6256103515625
2241.71514834021	0.625
2241.72514834019	0.62469482421875
2241.73514834016	0.6243896484375
2241.74514834014	0.623779296875
2241.75514834011	0.6231689453125
2241.76514834009	0.62286376953125
2241.77514834006	0.62255859375
2241.78514834004	0.6219482421875
2241.79514834001	0.62164306640625
2241.80514833999	0.62103271484375
2241.81514833996	0.62042236328125
2241.82514833994	0.6201171875
2241.83514833991	0.61981201171875
2241.84514833988	0.61920166015625
2241.85514833986	0.618896484375
2241.86514833983	0.6182861328125
2241.87514833981	0.61798095703125
2241.88514833978	0.61737060546875
2241.89514833976	0.6170654296875
2241.90514833973	0.616455078125
2241.91514833971	0.61614990234375
2241.92514833968	0.61553955078125
2241.93514833966	0.615234375
2241.94514833963	0.6146240234375
2241.95514833961	0.61431884765625
2241.96514833958	0.61370849609375
2241.97514833956	0.6134033203125
2241.98514833953	0.61279296875
2241.99514833951	0.61248779296875
2242.00514833948	0.61187744140625
2242.01514833946	0.611572265625
2242.02514833943	0.6109619140625
2242.03514833941	0.61065673828125
2242.04514833938	0.61004638671875
2242.05514833935	0.6097412109375
2242.06514833933	0.609130859375
2242.0751483393	0.60882568359375
2242.08514833928	0.60821533203125
2242.09514833925	0.60791015625
2242.10514833923	0.6072998046875
2242.1151483392	0.60699462890625
2242.12514833918	0.60638427734375
2242.13514833915	0.6060791015625
2242.14514833913	0.60577392578125
2242.1551483391	0.60516357421875
2242.16514833908	0.6048583984375
2242.17514833905	0.604248046875
2242.18514833903	0.60394287109375
2242.195148339	0.60333251953125
2242.20514833898	0.60302734375
2242.21514833895	0.6024169921875
2242.22514833893	0.60211181640625
2242.2351483389	0.60150146484375
2242.24514833887	0.6011962890625
2242.25514833885	0.6005859375
2242.26514833882	0.60028076171875
2242.2751483388	0.59967041015625
2242.28514833877	0.599365234375
2242.29514833875	0.5987548828125
2242.30514833872	0.59844970703125
2242.3151483387	0.59814453125
2242.32514833867	0.5975341796875
2242.33514833865	0.59722900390625
2242.34514833862	0.59661865234375
2242.3551483386	0.5963134765625
2242.36514833857	0.595703125
2242.37514833855	0.59539794921875
2242.38514833852	0.59478759765625
2242.3951483385	0.594482421875
2242.40514833847	0.5938720703125
2242.41514833845	0.59356689453125
2242.42514833842	0.59295654296875
2242.4351483384	0.5926513671875
2242.44514833837	0.592041015625
2242.45514833834	0.59173583984375
2242.46514833832	0.5914306640625
2242.47514833829	0.5908203125
2242.48514833827	0.59051513671875
2242.49514833824	0.58990478515625
2242.50514833822	0.589599609375
2242.51514833819	0.5889892578125
2242.52514833817	0.58868408203125
2242.53514833814	0.58807373046875
2242.54514833812	0.5877685546875
2242.55514833809	0.587158203125
2242.56514833807	0.58685302734375
2242.57514833804	0.58624267578125
2242.58514833802	0.5859375
2242.59514833799	0.58563232421875
2242.60514833797	0.58502197265625
2242.61514833794	0.584716796875
2242.62514833792	0.5841064453125
2242.63514833789	0.58380126953125
2242.64514833787	0.58319091796875
2242.65514833784	0.5828857421875
2242.66514833781	0.582275390625
2242.67514833779	0.58197021484375
2242.68514833776	0.58135986328125
2242.69514833774	0.5810546875
2242.70514833771	0.58074951171875
2242.71514833769	0.58013916015625
2242.72514833766	0.579833984375
2242.73514833764	0.5792236328125
2242.74514833761	0.57891845703125
2242.75514833759	0.57830810546875
2242.76514833756	0.5780029296875
2242.77514833754	0.577392578125
2242.78514833751	0.57708740234375
2242.79514833749	0.57647705078125
2242.80514833746	0.576171875
2242.81514833744	0.5755615234375
2242.82514833741	0.57525634765625
2242.83514833739	0.574951171875
2242.84514833736	0.5743408203125
2242.85514833733	0.57403564453125
2242.86514833731	0.57342529296875
2242.87514833728	0.5731201171875
2242.88514833726	0.57281494140625
2242.89514833723	0.57220458984375
2242.90514833721	0.5718994140625
2242.91514833718	0.5712890625
2242.92514833716	0.57098388671875
2242.93514833713	0.57037353515625
2242.94514833711	0.570068359375
2242.95514833708	0.5694580078125
2242.96514833706	0.56915283203125
2242.97514833703	0.56884765625
2242.98514833701	0.5682373046875
2242.99514833698	0.56793212890625
2243.00514833696	0.56732177734375
2243.01514833693	0.5670166015625
2243.02514833691	0.56640625
2243.03514833688	0.56610107421875
2243.04514833686	0.5657958984375
2243.05514833683	0.565185546875
2243.0651483368	0.56488037109375
2243.07514833678	0.56427001953125
2243.08514833675	0.56396484375
2243.09514833673	0.5633544921875
2243.1051483367	0.56304931640625
2243.11514833668	0.56243896484375
2243.12514833665	0.5621337890625
2243.13514833663	0.56182861328125
2243.1451483366	0.56121826171875
2243.15514833658	0.5609130859375
2243.16514833655	0.560302734375
2243.17514833653	0.55999755859375
2243.1851483365	0.55938720703125
2243.19514833648	0.55908203125
2243.20514833645	0.55877685546875
2243.21514833643	0.55816650390625
2243.2251483364	0.557861328125
2243.23514833638	0.5572509765625
2243.24514833635	0.55694580078125
2243.25514833632	0.556640625
2243.2651483363	0.5560302734375
2243.27514833627	0.55572509765625
2243.28514833625	0.55511474609375
2243.29514833622	0.5548095703125
2243.3051483362	0.55450439453125
2243.31514833617	0.55389404296875
2243.32514833615	0.5535888671875
2243.33514833612	0.552978515625
2243.3451483361	0.55267333984375
2243.35514833607	0.55206298828125
2243.36514833605	0.5517578125
2243.37514833602	0.55145263671875
2243.385148336	0.55084228515625
2243.39514833597	0.550537109375
2243.40514833595	0.5499267578125
2243.41514833592	0.54962158203125
2243.4251483359	0.54901123046875
2243.43514833587	0.5487060546875
2243.44514833585	0.54840087890625
2243.45514833582	0.54779052734375
2243.46514833579	0.5474853515625
2243.47514833577	0.54718017578125
2243.48514833574	0.546875
2243.49514833572	0.5462646484375
2243.50514833569	0.54595947265625
2243.51514833567	0.54534912109375
2243.52514833564	0.5450439453125
2243.53514833562	0.54443359375
2243.54514833559	0.54412841796875
2243.55514833557	0.5438232421875
2243.56514833554	0.543212890625
2243.57514833552	0.54290771484375
2243.58514833549	0.54229736328125
2243.59514833547	0.5419921875
2243.60514833544	0.54168701171875
2243.61514833542	0.54107666015625
2243.62514833539	0.540771484375
2243.63514833537	0.5401611328125
2243.64514833534	0.53985595703125
2243.65514833532	0.53955078125
2243.66514833529	0.5389404296875
2243.67514833526	0.53863525390625
2243.68514833524	0.53802490234375
2243.69514833521	0.5377197265625
2243.70514833519	0.537109375
2243.71514833516	0.53680419921875
2243.72514833514	0.5364990234375
2243.73514833511	0.535888671875
2243.74514833509	0.53558349609375
2243.75514833506	0.53497314453125
2243.76514833504	0.53466796875
2243.77514833501	0.53436279296875
2243.78514833499	0.53375244140625
2243.79514833496	0.533447265625
2243.80514833494	0.5328369140625
2243.81514833491	0.53253173828125
2243.82514833489	0.5322265625
2243.83514833486	0.5316162109375
2243.84514833484	0.53131103515625
2243.85514833481	0.53070068359375
2243.86514833478	0.5303955078125
2243.87514833476	0.53009033203125
2243.88514833473	0.52947998046875
2243.89514833471	0.5291748046875
2243.90514833468	0.52886962890625
2243.91514833466	0.52825927734375
2243.92514833463	0.5279541015625
2243.93514833461	0.52734375
2243.94514833458	0.52703857421875
2243.95514833456	0.5267333984375
2243.96514833453	0.526123046875
2243.97514833451	0.52581787109375
2243.98514833448	0.52520751953125
2243.99514833446	0.52490234375
2244.00514833443	0.52459716796875
2244.01514833441	0.52398681640625
2244.02514833438	0.523681640625
2244.03514833436	0.5230712890625
2244.04514833433	0.52276611328125
2244.05514833431	0.5224609375
2244.06514833428	0.5218505859375
2244.07514833425	0.52154541015625
2244.08514833423	0.52093505859375
2244.0951483342	0.5206298828125
2244.10514833418	0.52032470703125
2244.11514833415	0.51971435546875
2244.12514833413	0.5194091796875
2244.1351483341	0.518798828125
2244.14514833408	0.51849365234375
2244.15514833405	0.5181884765625
2244.16514833403	0.517578125
2244.175148334	0.51727294921875
2244.18514833398	0.5169677734375
2244.19514833395	0.516357421875
2244.20514833393	0.51605224609375
2244.2151483339	0.51544189453125
2244.22514833388	0.51513671875
2244.23514833385	0.51483154296875
2244.24514833383	0.51422119140625
2244.2551483338	0.513916015625
2244.26514833377	0.5133056640625
2244.27514833375	0.51300048828125
2244.28514833372	0.5126953125
2244.2951483337	0.5120849609375
2244.30514833367	0.51177978515625
2244.31514833365	0.511474609375
2244.32514833362	0.5108642578125
2244.3351483336	0.51055908203125
2244.34514833357	0.50994873046875
2244.35514833355	0.5096435546875
2244.36514833352	0.50933837890625
2244.3751483335	0.50872802734375
2244.38514833347	0.5084228515625
2244.39514833345	0.5078125
2244.40514833342	0.50750732421875
2244.4151483334	0.5072021484375
2244.42514833337	0.506591796875
2244.43514833335	0.50628662109375
2244.44514833332	0.50567626953125
2244.4551483333	0.50537109375
2244.46514833327	0.50506591796875
2244.47514833324	0.50445556640625
2244.48514833322	0.504150390625
2244.49514833319	0.50384521484375
2244.50514833317	0.50323486328125
2244.51514833314	0.5029296875
2244.52514833312	0.5023193359375
2244.53514833309	0.50201416015625
2244.54514833307	0.501708984375
2244.55514833304	0.5010986328125
2244.56514833302	0.50079345703125
2244.57514833299	0.50048828125
2244.58514833297	0.4998779296875
2244.59514833294	0.4996337890625
2244.60514833292	0.49920654296875
2244.61514833289	0.498779296875
2244.62514833287	0.498382568359375
2244.63514833284	0.497955322265625
2244.64514833282	0.497528076171875
2244.65514833279	0.49713134765625
2244.66514833277	0.4967041015625
2244.67514833274	0.49627685546875
2244.68514833271	0.495849609375
2244.69514833269	0.495452880859375
2244.70514833266	0.495025634765625
2244.71514833264	0.494598388671875
2244.72514833261	0.49420166015625
2244.73514833259	0.4937744140625
2244.74514833256	0.49334716796875
2244.75514833254	0.492950439453125
2244.76514833251	0.492523193359375
2244.77514833249	0.49212646484375
2244.78514833246	0.49169921875
2244.79514833244	0.491302490234375
2244.80514833241	0.490875244140625
2244.81514833239	0.490478515625
2244.82514833236	0.49005126953125
2244.83514833234	0.489654541015625
2244.84514833231	0.489227294921875
2244.85514833229	0.48883056640625
2244.86514833226	0.4884033203125
2244.87514833223	0.48797607421875
2244.88514833221	0.487579345703125
2244.89514833218	0.487152099609375
2244.90514833216	0.48675537109375
2244.91514833213	0.486328125
2244.92514833211	0.485931396484375
2244.93514833208	0.48553466796875
2244.94514833206	0.485107421875
2244.95514833203	0.484710693359375
2244.96514833201	0.48431396484375
2244.97514833198	0.483917236328125
2244.98514833196	0.4835205078125
2244.99514833193	0.48309326171875
2245.00514833191	0.482696533203125
2245.01514833188	0.482269287109375
2245.02514833186	0.48187255859375
2245.03514833183	0.4814453125
2245.04514833181	0.481048583984375
2245.05514833178	0.48065185546875
2245.06514833176	0.480224609375
2245.07514833173	0.479827880859375
2245.0851483317	0.479400634765625
2245.09514833168	0.47900390625
2245.10514833165	0.478607177734375
2245.11514833163	0.478179931640625
2245.1251483316	0.477783203125
2245.13514833158	0.477386474609375
2245.14514833155	0.476959228515625
2245.15514833153	0.4765625
2245.1651483315	0.476165771484375
2245.17514833148	0.47576904296875
2245.18514833145	0.475372314453125
2245.19514833143	0.474945068359375
2245.2051483314	0.47454833984375
2245.21514833138	0.474151611328125
2245.22514833135	0.4737548828125
2245.23514833133	0.47332763671875
2245.2451483313	0.472930908203125
2245.25514833128	0.4725341796875
2245.26514833125	0.472137451171875
2245.27514833122	0.47174072265625
2245.2851483312	0.4713134765625
2245.29514833117	0.470916748046875
2245.30514833115	0.47052001953125
2245.31514833112	0.470123291015625
2245.3251483311	0.4697265625
2245.33514833107	0.46929931640625
2245.34514833105	0.468902587890625
2245.35514833102	0.468536376953125
2245.365148331	0.4681396484375
2245.37514833097	0.467742919921875
2245.38514833095	0.46734619140625
2245.39514833092	0.466949462890625
2245.4051483309	0.466552734375
2245.41514833087	0.46612548828125
2245.42514833085	0.465728759765625
2245.43514833082	0.46533203125
2245.4451483308	0.464935302734375
2245.45514833077	0.46453857421875
2245.46514833075	0.464141845703125
2245.47514833072	0.4637451171875
2245.48514833069	0.463348388671875
2245.49514833067	0.46295166015625
2245.50514833064	0.462554931640625
2245.51514833062	0.462158203125
2245.52514833059	0.461761474609375
2245.53514833057	0.46136474609375
2245.54514833054	0.46099853515625
2245.55514833052	0.460601806640625
2245.56514833049	0.460205078125
2245.57514833047	0.459808349609375
2245.58514833044	0.45941162109375
2245.59514833042	0.459014892578125
2245.60514833039	0.4586181640625
2245.61514833037	0.458221435546875
2245.62514833034	0.45782470703125
2245.63514833032	0.45745849609375
2245.64514833029	0.457061767578125
2245.65514833027	0.4566650390625
2245.66514833024	0.456268310546875
2245.67514833022	0.45587158203125
2245.68514833019	0.455474853515625
2245.69514833016	0.455078125
2245.70514833014	0.4547119140625
2245.71514833011	0.454315185546875
2245.72514833009	0.45391845703125
2245.73514833006	0.453521728515625
2245.74514833004	0.453155517578125
2245.75514833001	0.452789306640625
2245.76514832999	0.452392578125
2245.77514832996	0.4520263671875
2245.78514832994	0.451629638671875
2245.79514832991	0.45123291015625
2245.80514832989	0.45086669921875
2245.81514832986	0.450469970703125
2245.82514832984	0.4500732421875
2245.83514832981	0.44970703125
2245.84514832979	0.449310302734375
2245.85514832976	0.44891357421875
2245.86514832974	0.44854736328125
2245.87514832971	0.448150634765625
2245.88514832968	0.44775390625
2245.89514832966	0.4473876953125
2245.90514832963	0.446990966796875
2245.91514832961	0.446624755859375
2245.92514832958	0.44622802734375
2245.93514832956	0.44586181640625
2245.94514832953	0.445465087890625
2245.95514832951	0.445098876953125
2245.96514832948	0.444732666015625
2245.97514832946	0.4443359375
2245.98514832943	0.4439697265625
2245.99514832941	0.443572998046875
2246.00514832938	0.443206787109375
2246.01514832936	0.44281005859375
2246.02514832933	0.44244384765625
2246.03514832931	0.44207763671875
2246.04514832928	0.441680908203125
2246.05514832926	0.441314697265625
2246.06514832923	0.44091796875
2246.07514832921	0.4405517578125
2246.08514832918	0.440185546875
2246.09514832915	0.439788818359375
2246.10514832913	0.439422607421875
2246.1151483291	0.439056396484375
2246.12514832908	0.43865966796875
2246.13514832905	0.43829345703125
2246.14514832903	0.43792724609375
2246.155148329	0.43756103515625
2246.16514832898	0.43719482421875
2246.17514832895	0.436798095703125
2246.18514832893	0.436431884765625
2246.1951483289	0.436065673828125
2246.20514832888	0.435699462890625
2246.21514832885	0.435302734375
2246.22514832883	0.4349365234375
2246.2351483288	0.4345703125
2246.24514832878	0.4342041015625
2246.25514832875	0.433837890625
2246.26514832873	0.4334716796875
2246.2751483287	0.433074951171875
2246.28514832867	0.432708740234375
2246.29514832865	0.432342529296875
2246.30514832862	0.431976318359375
2246.3151483286	0.431610107421875
2246.32514832857	0.431243896484375
2246.33514832855	0.430877685546875
2246.34514832852	0.430511474609375
2246.3551483285	0.430145263671875
2246.36514832847	0.429779052734375
2246.37514832845	0.429412841796875
2246.38514832842	0.429046630859375
2246.3951483284	0.428680419921875
2246.40514832837	0.428314208984375
2246.41514832835	0.427947998046875
2246.42514832832	0.427581787109375
2246.4351483283	0.42724609375
2246.44514832827	0.4268798828125
2246.45514832825	0.426513671875
2246.46514832822	0.4261474609375
2246.4751483282	0.42578125
2246.48514832817	0.4254150390625
2246.49514832814	0.425048828125
2246.50514832812	0.4246826171875
2246.51514832809	0.424346923828125
2246.52514832807	0.423980712890625
2246.53514832804	0.423614501953125
2246.54514832802	0.423248291015625
2246.55514832799	0.422882080078125
2246.56514832797	0.42254638671875
2246.57514832794	0.42218017578125
2246.58514832792	0.421844482421875
2246.59514832789	0.4215087890625
2246.60514832787	0.421142578125
2246.61514832784	0.4207763671875
2246.62514832782	0.420440673828125
2246.63514832779	0.420074462890625
2246.64514832777	0.419708251953125
2246.65514832774	0.41937255859375
2246.66514832772	0.41900634765625
2246.67514832769	0.41864013671875
2246.68514832767	0.418304443359375
2246.69514832764	0.417938232421875
2246.70514832761	0.4176025390625
2246.71514832759	0.417236328125
2246.72514832756	0.4168701171875
2246.73514832754	0.416534423828125
2246.74514832751	0.416168212890625
2246.75514832749	0.41583251953125
2246.76514832746	0.41546630859375
2246.77514832744	0.415130615234375
2246.78514832741	0.414764404296875
2246.79514832739	0.4144287109375
2246.80514832736	0.414093017578125
2246.81514832734	0.413726806640625
2246.82514832731	0.41339111328125
2246.83514832729	0.41302490234375
2246.84514832726	0.412689208984375
2246.85514832724	0.412322998046875
2246.86514832721	0.4119873046875
2246.87514832719	0.411651611328125
2246.88514832716	0.411285400390625
2246.89514832713	0.41094970703125
2246.90514832711	0.41058349609375
2246.91514832708	0.410247802734375
2246.92514832706	0.409881591796875
2246.93514832703	0.4095458984375
2246.94514832701	0.409210205078125
2246.95514832698	0.40887451171875
2246.96514832696	0.40850830078125
2246.97514832693	0.408172607421875
2246.98514832691	0.4078369140625
2246.99514832688	0.407470703125
2247.00514832686	0.407135009765625
2247.01514832683	0.40679931640625
2247.02514832681	0.406463623046875
2247.03514832678	0.4061279296875
2247.04514832676	0.405792236328125
2247.05514832673	0.40545654296875
2247.06514832671	0.405120849609375
2247.07514832668	0.404754638671875
2247.08514832666	0.4044189453125
2247.09514832663	0.404083251953125
2247.1051483266	0.40374755859375
2247.11514832658	0.40338134765625
2247.12514832655	0.403045654296875
2247.13514832653	0.4027099609375
2247.1451483265	0.402374267578125
2247.15514832648	0.40203857421875
2247.16514832645	0.40167236328125
2247.17514832643	0.401336669921875
2247.1851483264	0.4010009765625
2247.19514832638	0.400665283203125
2247.20514832635	0.40032958984375
2247.21514832633	0.399993896484375
2247.2251483263	0.399658203125
2247.23514832628	0.399322509765625
2247.24514832625	0.39898681640625
2247.25514832623	0.39862060546875
2247.2651483262	0.3983154296875
2247.27514832618	0.397979736328125
2247.28514832615	0.39764404296875
2247.29514832612	0.397308349609375
2247.3051483261	0.39697265625
2247.31514832607	0.396636962890625
2247.32514832605	0.39630126953125
2247.33514832602	0.39593505859375
2247.345148326	0.395599365234375
2247.35514832597	0.395263671875
2247.36514832595	0.394927978515625
2247.37514832592	0.39459228515625
2247.3851483259	0.394256591796875
2247.39514832587	0.3939208984375
2247.40514832585	0.393585205078125
2247.41514832582	0.39324951171875
2247.4251483258	0.392913818359375
2247.43514832577	0.392578125
2247.44514832575	0.392242431640625
2247.45514832572	0.391937255859375
2247.4651483257	0.3916015625
2247.47514832567	0.391265869140625
2247.48514832565	0.39093017578125
2247.49514832562	0.390625
2247.50514832559	0.390289306640625
2247.51514832557	0.38995361328125
2247.52514832554	0.389617919921875
2247.53514832552	0.389312744140625
2247.54514832549	0.38897705078125
2247.55514832547	0.388641357421875
2247.56514832544	0.3883056640625
2247.57514832542	0.387969970703125
2247.58514832539	0.38763427734375
2247.59514832537	0.387298583984375
2247.60514832534	0.386993408203125
2247.61514832532	0.38665771484375
2247.62514832529	0.386322021484375
2247.63514832527	0.385986328125
2247.64514832524	0.385650634765625
2247.65514832522	0.38531494140625
2247.66514832519	0.385009765625
2247.67514832517	0.384674072265625
2247.68514832514	0.38433837890625
2247.69514832512	0.384002685546875
2247.70514832509	0.383697509765625
2247.71514832506	0.38336181640625
2247.72514832504	0.383026123046875
2247.73514832501	0.382720947265625
2247.74514832499	0.38238525390625
2247.75514832496	0.382049560546875
2247.76514832494	0.3817138671875
2247.77514832491	0.38140869140625
2247.78514832489	0.381072998046875
2247.79514832486	0.3807373046875
2247.80514832484	0.38043212890625
2247.81514832481	0.380096435546875
2247.82514832479	0.3797607421875
2247.83514832476	0.37945556640625
2247.84514832474	0.379119873046875
2247.85514832471	0.3787841796875
2247.86514832469	0.37847900390625
2247.87514832466	0.378143310546875
2247.88514832464	0.3778076171875
2247.89514832461	0.37750244140625
2247.90514832458	0.377166748046875
2247.91514832456	0.3768310546875
2247.92514832453	0.37652587890625
2247.93514832451	0.376190185546875
2247.94514832448	0.3758544921875
2247.95514832446	0.37554931640625
2247.96514832443	0.375213623046875
2247.97514832441	0.37493896484375
2247.98514832438	0.374603271484375
2247.99514832436	0.374267578125
2248.00514832433	0.37396240234375
2248.01514832431	0.373626708984375
2248.02514832428	0.373321533203125
2248.03514832426	0.37298583984375
2248.04514832423	0.3726806640625
2248.05514832421	0.372344970703125
2248.06514832418	0.372039794921875
2248.07514832416	0.3717041015625
2248.08514832413	0.371368408203125
2248.09514832411	0.371063232421875
2248.10514832408	0.3707275390625
2248.11514832405	0.37042236328125
2248.12514832403	0.370086669921875
2248.135148324	0.369781494140625
2248.14514832398	0.36944580078125
2248.15514832395	0.369140625
2248.16514832393	0.368804931640625
2248.1751483239	0.368499755859375
2248.18514832388	0.368194580078125
2248.19514832385	0.36785888671875
2248.20514832383	0.3675537109375
2248.2151483238	0.36724853515625
2248.22514832378	0.366912841796875
2248.23514832375	0.366607666015625
2248.24514832373	0.36627197265625
2248.2551483237	0.365966796875
2248.26514832368	0.365631103515625
2248.27514832365	0.365325927734375
2248.28514832363	0.365020751953125
2248.2951483236	0.36468505859375
2248.30514832357	0.3643798828125
2248.31514832355	0.364044189453125
2248.32514832352	0.363739013671875
2248.3351483235	0.363433837890625
2248.34514832347	0.36309814453125
2248.35514832345	0.36279296875
2248.36514832342	0.362457275390625
2248.3751483234	0.362152099609375
2248.38514832337	0.361846923828125
2248.39514832335	0.36151123046875
2248.40514832332	0.3612060546875
2248.4151483233	0.36090087890625
2248.42514832327	0.360565185546875
2248.43514832325	0.360260009765625
2248.44514832322	0.359954833984375
2248.4551483232	0.359619140625
2248.46514832317	0.359344482421875
2248.47514832315	0.359039306640625
2248.48514832312	0.358734130859375
2248.4951483231	0.358428955078125
2248.50514832307	0.35809326171875
2248.51514832304	0.3577880859375
2248.52514832302	0.35748291015625
2248.53514832299	0.357147216796875
2248.54514832297	0.356842041015625
2248.55514832294	0.356536865234375
2248.56514832292	0.356231689453125
2248.57514832289	0.35589599609375
2248.58514832287	0.3555908203125
2248.59514832284	0.35528564453125
2248.60514832282	0.35498046875
2248.61514832279	0.354644775390625
2248.62514832277	0.354339599609375
2248.63514832274	0.354034423828125
2248.64514832272	0.353729248046875
2248.65514832269	0.3533935546875
2248.66514832267	0.35308837890625
2248.67514832264	0.352783203125
2248.68514832262	0.35247802734375
2248.69514832259	0.3521728515625
2248.70514832257	0.351837158203125
2248.71514832254	0.351531982421875
2248.72514832251	0.351226806640625
2248.73514832249	0.350921630859375
2248.74514832246	0.350616455078125
2248.75514832244	0.350311279296875
2248.76514832241	0.3499755859375
2248.77514832239	0.34967041015625
2248.78514832236	0.349365234375
2248.79514832234	0.34906005859375
2248.80514832231	0.3487548828125
2248.81514832229	0.34844970703125
2248.82514832226	0.34814453125
2248.83514832224	0.347808837890625
2248.84514832221	0.347503662109375
2248.85514832219	0.347198486328125
2248.86514832216	0.346893310546875
2248.87514832214	0.346588134765625
2248.88514832211	0.34625244140625
2248.89514832209	0.345947265625
2248.90514832206	0.34564208984375
2248.91514832203	0.3453369140625
2248.92514832201	0.34503173828125
2248.93514832198	0.3447265625
2248.94514832196	0.34442138671875
2248.95514832193	0.3441162109375
2248.96514832191	0.34381103515625
2248.97514832188	0.343536376953125
2248.98514832186	0.343231201171875
2248.99514832183	0.342926025390625
2249.00514832181	0.342620849609375
2249.01514832178	0.34228515625
2249.02514832176	0.34197998046875
2249.03514832173	0.3416748046875
2249.04514832171	0.34136962890625
2249.05514832168	0.341064453125
2249.06514832166	0.34075927734375
2249.07514832163	0.3404541015625
2249.08514832161	0.34014892578125
2249.09514832158	0.33984375
2249.10514832156	0.33953857421875
2249.11514832153	0.3392333984375
2249.1251483215	0.33892822265625
2249.13514832148	0.338623046875
2249.14514832145	0.33831787109375
2249.15514832143	0.3380126953125
2249.1651483214	0.33770751953125
2249.17514832138	0.33740234375
2249.18514832135	0.33709716796875
2249.19514832133	0.3367919921875
2249.2051483213	0.33648681640625
2249.21514832128	0.336181640625
2249.22514832125	0.33587646484375
2249.23514832123	0.335601806640625
2249.2451483212	0.335296630859375
2249.25514832118	0.334991455078125
2249.26514832115	0.334686279296875
2249.27514832113	0.334381103515625
2249.2851483211	0.334075927734375
2249.29514832108	0.333770751953125
2249.30514832105	0.333465576171875
2249.31514832102	0.333160400390625
2249.325148321	0.332855224609375
2249.33514832097	0.332550048828125
2249.34514832095	0.332275390625
2249.35514832092	0.33197021484375
2249.3651483209	0.3316650390625
2249.37514832087	0.33135986328125
2249.38514832085	0.3310546875
2249.39514832082	0.33074951171875
2249.4051483208	0.3304443359375
2249.41514832077	0.33013916015625
2249.42514832075	0.329864501953125
2249.43514832072	0.329559326171875
2249.4451483207	0.329254150390625
2249.45514832067	0.328948974609375
2249.46514832065	0.328643798828125
2249.47514832062	0.328369140625
2249.4851483206	0.328094482421875
2249.49514832057	0.327789306640625
2249.50514832055	0.3275146484375
2249.51514832052	0.32720947265625
2249.52514832049	0.326904296875
2249.53514832047	0.32659912109375
2249.54514832044	0.3262939453125
2249.55514832042	0.326019287109375
2249.56514832039	0.325714111328125
2249.57514832037	0.325408935546875
2249.58514832034	0.32513427734375
2249.59514832032	0.3248291015625
2249.60514832029	0.32452392578125
2249.61514832027	0.324249267578125
2249.62514832024	0.323944091796875
2249.63514832022	0.323638916015625
2249.64514832019	0.323333740234375
2249.65514832017	0.32305908203125
2249.66514832014	0.32275390625
2249.67514832012	0.322479248046875
2249.68514832009	0.322174072265625
2249.69514832007	0.321868896484375
2249.70514832004	0.32159423828125
2249.71514832002	0.3212890625
2249.72514831999	0.321014404296875
2249.73514831996	0.320709228515625
2249.74514831994	0.3204345703125
2249.75514831991	0.32012939453125
2249.76514831989	0.319854736328125
2249.77514831986	0.319549560546875
2249.78514831984	0.31927490234375
2249.79514831981	0.3189697265625
2249.80514831979	0.318695068359375
2249.81514831976	0.318389892578125
2249.82514831974	0.318115234375
2249.83514831971	0.31781005859375
2249.84514831969	0.317535400390625
2249.85514831966	0.317230224609375
2249.86514831964	0.31695556640625
2249.87514831961	0.316680908203125
2249.88514831959	0.316375732421875
2249.89514831956	0.31610107421875
2249.90514831954	0.3157958984375
2249.91514831951	0.315521240234375
2249.92514831948	0.31524658203125
2249.93514831946	0.31494140625
2249.94514831943	0.314666748046875
2249.95514831941	0.314361572265625
2249.96514831938	0.3140869140625
2249.97514831936	0.313812255859375
2249.98514831933	0.31353759765625
2249.99514831931	0.313232421875
2250.00514831928	0.312957763671875
2250.01514831926	0.31268310546875
2250.02514831923	0.312408447265625
2250.03514831921	0.3121337890625
2250.04514831918	0.311859130859375
2250.05514831916	0.31158447265625
2250.06514831913	0.311279296875
2250.07514831911	0.311004638671875
2250.08514831908	0.31072998046875
2250.09514831906	0.310455322265625
2250.10514831903	0.3101806640625
2250.11514831901	0.30987548828125
2250.12514831898	0.309600830078125
2250.13514831895	0.309326171875
2250.14514831893	0.309051513671875
2250.1551483189	0.30877685546875
2250.16514831888	0.308502197265625
2250.17514831885	0.3082275390625
2250.18514831883	0.307952880859375
2250.1951483188	0.30767822265625
2250.20514831878	0.307403564453125
2250.21514831875	0.30712890625
2250.22514831873	0.306854248046875
2250.2351483187	0.30657958984375
2250.24514831868	0.306304931640625
2250.25514831865	0.3060302734375
2250.26514831863	0.305755615234375
2250.2751483186	0.30548095703125
2250.28514831858	0.305206298828125
2250.29514831855	0.304931640625
2250.30514831853	0.3046875
2250.3151483185	0.304412841796875
2250.32514831847	0.30413818359375
2250.33514831845	0.303863525390625
2250.34514831842	0.3035888671875
2250.3551483184	0.3033447265625
2250.36514831837	0.30303955078125
2250.37514831835	0.30279541015625
2250.38514831832	0.302520751953125
2250.3951483183	0.30224609375
2250.40514831827	0.301971435546875
2250.41514831825	0.301727294921875
2250.42514831822	0.30145263671875
2250.4351483182	0.301177978515625
2250.44514831817	0.3009033203125
2250.45514831815	0.3006591796875
2250.46514831812	0.300384521484375
2250.4751483181	0.30010986328125
2250.48514831807	0.29986572265625
2250.49514831805	0.299591064453125
2250.50514831802	0.29931640625
2250.515148318	0.299072265625
2250.52514831797	0.298797607421875
2250.53514831794	0.298553466796875
2250.54514831792	0.29827880859375
2250.55514831789	0.298004150390625
2250.56514831787	0.297760009765625
2250.57514831784	0.2974853515625
2250.58514831782	0.2972412109375
2250.59514831779	0.296966552734375
2250.60514831777	0.2967529296875
2250.61514831774	0.2965087890625
2250.62514831772	0.296234130859375
2250.63514831769	0.295989990234375
2250.64514831767	0.29571533203125
2250.65514831764	0.29547119140625
2250.66514831762	0.295196533203125
2250.67514831759	0.294952392578125
2250.68514831757	0.294677734375
2250.69514831754	0.29443359375
2250.70514831752	0.294158935546875
2250.71514831749	0.293914794921875
2250.72514831747	0.293670654296875
2250.73514831744	0.29339599609375
2250.74514831741	0.29315185546875
2250.75514831739	0.29290771484375
2250.76514831736	0.292633056640625
2250.77514831734	0.292388916015625
2250.78514831731	0.2921142578125
2250.79514831729	0.2918701171875
2250.80514831726	0.2916259765625
2250.81514831724	0.291351318359375
2250.82514831721	0.291107177734375
2250.83514831719	0.290863037109375
2250.84514831716	0.290618896484375
2250.85514831714	0.29034423828125
2250.86514831711	0.29010009765625
2250.87514831709	0.28985595703125
2250.88514831706	0.289581298828125
2250.89514831704	0.289337158203125
2250.90514831701	0.289093017578125
2250.91514831699	0.288848876953125
2250.92514831696	0.288604736328125
2250.93514831693	0.288360595703125
2250.94514831691	0.2880859375
2250.95514831688	0.287841796875
2250.96514831686	0.28759765625
2250.97514831683	0.287353515625
2250.98514831681	0.287109375
2250.99514831678	0.286834716796875
2251.00514831676	0.286590576171875
2251.01514831673	0.286346435546875
2251.02514831671	0.286102294921875
2251.03514831668	0.28582763671875
2251.04514831666	0.28558349609375
2251.05514831663	0.28533935546875
2251.06514831661	0.28509521484375
2251.07514831658	0.28485107421875
2251.08514831656	0.284576416015625
2251.09514831653	0.284332275390625
2251.10514831651	0.284088134765625
2251.11514831648	0.283843994140625
2251.12514831646	0.283599853515625
2251.13514831643	0.2833251953125
2251.1451483164	0.2830810546875
2251.15514831638	0.2828369140625
2251.16514831635	0.2825927734375
2251.17514831633	0.2823486328125
2251.1851483163	0.2821044921875
2251.19514831628	0.2818603515625
2251.20514831625	0.281585693359375
2251.21514831623	0.281341552734375
2251.2251483162	0.2811279296875
2251.23514831618	0.2808837890625
2251.24514831615	0.2806396484375
2251.25514831613	0.280364990234375
2251.2651483161	0.280120849609375
2251.27514831608	0.279876708984375
2251.28514831605	0.279632568359375
2251.29514831603	0.279388427734375
2251.305148316	0.279144287109375
2251.31514831598	0.27886962890625
2251.32514831595	0.27862548828125
2251.33514831592	0.27838134765625
2251.3451483159	0.27813720703125
2251.35514831587	0.27789306640625
2251.36514831585	0.277618408203125
2251.37514831582	0.277374267578125
2251.3851483158	0.277130126953125
2251.39514831577	0.276885986328125
2251.40514831575	0.276611328125
2251.41514831572	0.2763671875
2251.4251483157	0.276123046875
2251.43514831567	0.27587890625
2251.44514831565	0.275604248046875
2251.45514831562	0.275360107421875
2251.4651483156	0.275115966796875
2251.47514831557	0.274871826171875
2251.48514831555	0.27459716796875
2251.49514831552	0.27435302734375
2251.5051483155	0.27410888671875
2251.51514831547	0.27386474609375
2251.52514831545	0.273590087890625
2251.53514831542	0.273345947265625
2251.54514831539	0.273101806640625
2251.55514831537	0.272857666015625
2251.56514831534	0.2725830078125
2251.57514831532	0.2723388671875
2251.58514831529	0.2720947265625
2251.59514831527	0.271820068359375
2251.60514831524	0.271575927734375
2251.61514831522	0.27130126953125
2251.62514831519	0.27105712890625
2251.63514831517	0.27081298828125
2251.64514831514	0.270538330078125
2251.65514831512	0.270294189453125
2251.66514831509	0.27001953125
2251.67514831507	0.269775390625
2251.68514831504	0.269500732421875
2251.69514831502	0.269256591796875
2251.70514831499	0.26898193359375
2251.71514831497	0.26873779296875
2251.72514831494	0.26849365234375
2251.73514831492	0.268218994140625
2251.74514831489	0.2679443359375
2251.75514831486	0.2677001953125
2251.76514831484	0.267425537109375
2251.77514831481	0.267181396484375
2251.78514831479	0.26690673828125
2251.79514831476	0.26666259765625
2251.80514831474	0.266387939453125
2251.81514831471	0.266143798828125
2251.82514831469	0.265869140625
2251.83514831466	0.265625
2251.84514831464	0.265380859375
2251.85514831461	0.26513671875
2251.86514831459	0.264862060546875
2251.87514831456	0.26458740234375
2251.88514831454	0.26434326171875
2251.89514831451	0.264068603515625
2251.90514831449	0.2637939453125
2251.91514831446	0.2635498046875
2251.92514831444	0.263275146484375
2251.93514831441	0.26300048828125
2251.94514831438	0.262725830078125
2251.95514831436	0.262481689453125
2251.96514831433	0.26220703125
2251.97514831431	0.261932373046875
2251.98514831428	0.26165771484375
2251.99514831426	0.261383056640625
2252.00514831423	0.261138916015625
2252.01514831421	0.2608642578125
2252.02514831418	0.260589599609375
2252.03514831416	0.26031494140625
2252.04514831413	0.260040283203125
2252.05514831411	0.259765625
2252.06514831408	0.259521484375
2252.07514831406	0.259246826171875
2252.08514831403	0.25897216796875
2252.09514831401	0.258697509765625
2252.10514831398	0.2584228515625
2252.11514831396	0.258148193359375
2252.12514831393	0.25787353515625
2252.13514831391	0.25762939453125
2252.14514831388	0.257354736328125
2252.15514831385	0.257080078125
2252.16514831383	0.256805419921875
2252.1751483138	0.25653076171875
2252.18514831378	0.256256103515625
2252.19514831375	0.2559814453125
2252.20514831373	0.255706787109375
2252.2151483137	0.25543212890625
2252.22514831368	0.255157470703125
2252.23514831365	0.2548828125
2252.24514831363	0.25457763671875
2252.2551483136	0.254302978515625
2252.26514831358	0.2540283203125
2252.27514831355	0.253753662109375
2252.28514831353	0.25347900390625
2252.2951483135	0.253204345703125
2252.30514831348	0.2529296875
2252.31514831345	0.252655029296875
2252.32514831343	0.252349853515625
2252.3351483134	0.2520751953125
2252.34514831337	0.251800537109375
2252.35514831335	0.25152587890625
2252.36514831332	0.251251220703125
2252.3751483133	0.2509765625
2252.38514831327	0.25067138671875
2252.39514831325	0.250396728515625
2252.40514831322	0.2501220703125
2252.4151483132	0.2498779296875
2252.42514831317	0.249603271484375
2252.43514831315	0.249298095703125
2252.44514831312	0.2490234375
2252.4551483131	0.248748779296875
2252.46514831307	0.24847412109375
2252.47514831305	0.2481689453125
2252.48514831302	0.247894287109375
2252.495148313	0.24761962890625
2252.50514831297	0.247314453125
2252.51514831295	0.247039794921875
2252.52514831292	0.24676513671875
2252.5351483129	0.2464599609375
2252.54514831287	0.246185302734375
2252.55514831284	0.245880126953125
2252.56514831282	0.24560546875
2252.57514831279	0.245330810546875
2252.58514831277	0.245025634765625
2252.59514831274	0.2447509765625
2252.60514831272	0.24444580078125
2252.61514831269	0.244171142578125
2252.62514831267	0.243896484375
2252.63514831264	0.24359130859375
2252.64514831262	0.243316650390625
2252.65514831259	0.243011474609375
2252.66514831257	0.24273681640625
2252.67514831254	0.242462158203125
2252.68514831252	0.2421875
2252.69514831249	0.24188232421875
2252.70514831247	0.241607666015625
2252.71514831244	0.241302490234375
2252.72514831242	0.24102783203125
2252.73514831239	0.24072265625
2252.74514831237	0.240447998046875
2252.75514831234	0.240142822265625
2252.76514831231	0.2398681640625
2252.77514831229	0.23956298828125
2252.78514831226	0.239288330078125
2252.79514831224	0.238983154296875
2252.80514831221	0.23870849609375
2252.81514831219	0.2384033203125
2252.82514831216	0.23809814453125
2252.83514831214	0.237823486328125
2252.84514831211	0.237518310546875
2252.85514831209	0.23724365234375
2252.86514831206	0.2369384765625
2252.87514831204	0.236663818359375
2252.88514831201	0.236358642578125
2252.89514831199	0.236083984375
2252.90514831196	0.23577880859375
2252.91514831194	0.235504150390625
2252.92514831191	0.235198974609375
2252.93514831189	0.234893798828125
2252.94514831186	0.234619140625
2252.95514831183	0.234344482421875
2252.96514831181	0.23406982421875
2252.97514831178	0.233795166015625
2252.98514831176	0.233489990234375
2252.99514831173	0.233184814453125
2253.00514831171	0.23291015625
2253.01514831168	0.23260498046875
2253.02514831166	0.2322998046875
2253.03514831163	0.232025146484375
2253.04514831161	0.231719970703125
2253.05514831158	0.2314453125
2253.06514831156	0.23114013671875
2253.07514831153	0.2308349609375
2253.08514831151	0.230560302734375
2253.09514831148	0.230255126953125
2253.10514831146	0.229949951171875
2253.11514831143	0.22967529296875
2253.12514831141	0.2293701171875
2253.13514831138	0.22906494140625
2253.14514831136	0.228790283203125
2253.15514831133	0.228485107421875
2253.1651483113	0.228179931640625
2253.17514831128	0.2279052734375
2253.18514831125	0.22760009765625
2253.19514831123	0.227294921875
2253.2051483112	0.227020263671875
2253.21514831118	0.226715087890625
2253.22514831115	0.2264404296875
2253.23514831113	0.22613525390625
2253.2451483111	0.225830078125
2253.25514831108	0.225555419921875
2253.26514831105	0.225250244140625
2253.27514831103	0.224945068359375
2253.285148311	0.22467041015625
2253.29514831098	0.224365234375
2253.30514831095	0.22406005859375
2253.31514831093	0.223785400390625
2253.3251483109	0.223480224609375
2253.33514831088	0.223175048828125
2253.34514831085	0.222869873046875
2253.35514831082	0.22259521484375
2253.3651483108	0.2222900390625
2253.37514831077	0.22198486328125
2253.38514831075	0.221710205078125
2253.39514831072	0.221405029296875
2253.4051483107	0.221099853515625
2253.41514831067	0.220794677734375
2253.42514831065	0.22052001953125
2253.43514831062	0.22021484375
2253.4451483106	0.21990966796875
2253.45514831057	0.219635009765625
2253.46514831055	0.219329833984375
2253.47514831052	0.219024658203125
2253.4851483105	0.21875
2253.49514831047	0.218475341796875
2253.50514831045	0.218170166015625
2253.51514831042	0.217864990234375
2253.5251483104	0.217559814453125
2253.53514831037	0.21728515625
2253.54514831035	0.21697998046875
2253.55514831032	0.2166748046875
2253.56514831029	0.21636962890625
2253.57514831027	0.216094970703125
2253.58514831024	0.215789794921875
2253.59514831022	0.215484619140625
2253.60514831019	0.215179443359375
2253.61514831017	0.21490478515625
2253.62514831014	0.214599609375
2253.63514831012	0.21429443359375
2253.64514831009	0.2139892578125
2253.65514831007	0.21368408203125
2253.66514831004	0.213409423828125
2253.67514831002	0.213104248046875
2253.68514830999	0.212799072265625
2253.69514830997	0.212493896484375
2253.70514830994	0.21221923828125
2253.71514830992	0.2119140625
2253.72514830989	0.21160888671875
2253.73514830987	0.2113037109375
2253.74514830984	0.211029052734375
2253.75514830982	0.210723876953125
2253.76514830979	0.210418701171875
2253.77514830976	0.21014404296875
2253.78514830974	0.2098388671875
2253.79514830971	0.20953369140625
2253.80514830969	0.209228515625
2253.81514830966	0.208953857421875
2253.82514830964	0.208648681640625
2253.83514830961	0.208343505859375
2253.84514830959	0.208038330078125
2253.85514830956	0.207733154296875
2253.86514830954	0.207427978515625
2253.87514830951	0.2071533203125
2253.88514830949	0.20684814453125
2253.89514830946	0.20654296875
2253.90514830944	0.20623779296875
2253.91514830941	0.2059326171875
2253.92514830939	0.205657958984375
2253.93514830936	0.205352783203125
2253.94514830934	0.205047607421875
2253.95514830931	0.204742431640625
2253.96514830928	0.2044677734375
2253.97514830926	0.20416259765625
2253.98514830923	0.203857421875
2253.99514830921	0.20355224609375
2254.00514830918	0.2032470703125
2254.01514830916	0.2030029296875
2254.02514830913	0.20269775390625
2254.03514830911	0.202392578125
2254.04514830908	0.20208740234375
2254.05514830906	0.201812744140625
2254.06514830903	0.201507568359375
2254.07514830901	0.201202392578125
2254.08514830898	0.200897216796875
2254.09514830896	0.200592041015625
2254.10514830893	0.200286865234375
2254.11514830891	0.199981689453125
2254.12514830888	0.19970703125
2254.13514830886	0.19940185546875
2254.14514830883	0.1990966796875
2254.15514830881	0.19879150390625
2254.16514830878	0.198486328125
2254.17514830875	0.19818115234375
2254.18514830873	0.197906494140625
2254.1951483087	0.197601318359375
2254.20514830868	0.197296142578125
2254.21514830865	0.196990966796875
2254.22514830863	0.196685791015625
2254.2351483086	0.196380615234375
2254.24514830858	0.196075439453125
2254.25514830855	0.19580078125
2254.26514830853	0.19549560546875
2254.2751483085	0.1951904296875
2254.28514830848	0.194915771484375
2254.29514830845	0.194610595703125
2254.30514830843	0.194305419921875
2254.3151483084	0.194000244140625
2254.32514830838	0.193695068359375
2254.33514830835	0.193389892578125
2254.34514830833	0.193084716796875
2254.3551483083	0.192779541015625
2254.36514830827	0.1925048828125
2254.37514830825	0.19219970703125
2254.38514830822	0.19189453125
2254.3951483082	0.19158935546875
2254.40514830817	0.1912841796875
2254.41514830815	0.19097900390625
2254.42514830812	0.190673828125
2254.4351483081	0.19036865234375
2254.44514830807	0.1900634765625
2254.45514830805	0.18975830078125
2254.46514830802	0.189453125
2254.475148308	0.18914794921875
2254.48514830797	0.1888427734375
2254.49514830795	0.18853759765625
2254.50514830792	0.188262939453125
2254.5151483079	0.187957763671875
2254.52514830787	0.187652587890625
2254.53514830785	0.187347412109375
2254.54514830782	0.187042236328125
2254.5551483078	0.186737060546875
2254.56514830777	0.186431884765625
2254.57514830774	0.186126708984375
2254.58514830772	0.185821533203125
2254.59514830769	0.185546875
2254.60514830767	0.18524169921875
2254.61514830764	0.1849365234375
2254.62514830762	0.18463134765625
2254.63514830759	0.184326171875
2254.64514830757	0.18402099609375
2254.65514830754	0.1837158203125
2254.66514830752	0.183380126953125
2254.67514830749	0.183074951171875
2254.68514830747	0.18280029296875
2254.69514830744	0.1824951171875
2254.70514830742	0.18218994140625
2254.71514830739	0.181884765625
2254.72514830737	0.18157958984375
2254.73514830734	0.1812744140625
2254.74514830732	0.18096923828125
2254.75514830729	0.1806640625
2254.76514830727	0.18035888671875
2254.77514830724	0.1800537109375
2254.78514830721	0.17974853515625
2254.79514830719	0.179443359375
2254.80514830716	0.17913818359375
2254.81514830714	0.1788330078125
2254.82514830711	0.17852783203125
2254.83514830709	0.17822265625
2254.84514830706	0.17791748046875
2254.85514830704	0.177581787109375
2254.86514830701	0.177276611328125
2254.87514830699	0.176971435546875
2254.88514830696	0.176666259765625
2254.89514830694	0.176361083984375
2254.90514830691	0.176055908203125
2254.91514830689	0.175750732421875
2254.92514830686	0.175445556640625
2254.93514830684	0.175140380859375
2254.94514830681	0.174835205078125
2254.95514830679	0.17449951171875
2254.96514830676	0.1741943359375
2254.97514830673	0.17388916015625
2254.98514830671	0.173583984375
2254.99514830668	0.17327880859375
2255.00514830666	0.1729736328125
2255.01514830663	0.17266845703125
2255.02514830661	0.17236328125
2255.03514830658	0.17205810546875
2255.04514830656	0.171783447265625
2255.05514830653	0.171478271484375
2255.06514830651	0.171142578125
2255.07514830648	0.17083740234375
2255.08514830646	0.1705322265625
2255.09514830643	0.17022705078125
2255.10514830641	0.169921875
2255.11514830638	0.169586181640625
2255.12514830636	0.169281005859375
2255.13514830633	0.168975830078125
2255.14514830631	0.168670654296875
2255.15514830628	0.168365478515625
2255.16514830626	0.168060302734375
2255.17514830623	0.167724609375
2255.1851483062	0.16741943359375
2255.19514830618	0.1671142578125
2255.20514830615	0.16680908203125
2255.21514830613	0.16650390625
2255.2251483061	0.166168212890625
2255.23514830608	0.165863037109375
2255.24514830605	0.165557861328125
2255.25514830603	0.165252685546875
2255.265148306	0.1649169921875
2255.27514830598	0.16461181640625
2255.28514830595	0.164306640625
2255.29514830593	0.16400146484375
2255.3051483059	0.1636962890625
2255.31514830588	0.16339111328125
2255.32514830585	0.163055419921875
2255.33514830583	0.162750244140625
2255.3451483058	0.162445068359375
2255.35514830578	0.162139892578125
2255.36514830575	0.16180419921875
2255.37514830572	0.1614990234375
2255.3851483057	0.16119384765625
2255.39514830567	0.160858154296875
2255.40514830565	0.160552978515625
2255.41514830562	0.160247802734375
2255.4251483056	0.159912109375
2255.43514830557	0.15960693359375
2255.44514830555	0.1593017578125
2255.45514830552	0.15899658203125
2255.4651483055	0.158660888671875
2255.47514830547	0.158355712890625
2255.48514830545	0.158050537109375
2255.49514830542	0.15771484375
2255.5051483054	0.15740966796875
2255.51514830537	0.157073974609375
2255.52514830535	0.156768798828125
2255.53514830532	0.156463623046875
2255.5451483053	0.156158447265625
2255.55514830527	0.155853271484375
2255.56514830525	0.155548095703125
2255.57514830522	0.15521240234375
2255.58514830519	0.1549072265625
2255.59514830517	0.154571533203125
2255.60514830514	0.154266357421875
2255.61514830512	0.153961181640625
2255.62514830509	0.15362548828125
2255.63514830507	0.1533203125
2255.64514830504	0.152984619140625
2255.65514830502	0.152679443359375
2255.66514830499	0.152374267578125
2255.67514830497	0.15203857421875
2255.68514830494	0.1517333984375
2255.69514830492	0.151397705078125
2255.70514830489	0.151092529296875
2255.71514830487	0.1507568359375
2255.72514830484	0.15045166015625
2255.73514830482	0.150146484375
2255.74514830479	0.149810791015625
2255.75514830477	0.149505615234375
2255.76514830474	0.149169921875
2255.77514830472	0.14886474609375
2255.78514830469	0.148529052734375
2255.79514830466	0.148223876953125
2255.80514830464	0.147918701171875
2255.81514830461	0.1475830078125
2255.82514830459	0.14727783203125
2255.83514830456	0.14697265625
2255.84514830454	0.146636962890625
2255.85514830451	0.14630126953125
2255.86514830449	0.14599609375
2255.87514830446	0.145660400390625
2255.88514830444	0.145355224609375
2255.89514830441	0.145050048828125
2255.90514830439	0.14471435546875
2255.91514830436	0.144378662109375
2255.92514830434	0.144073486328125
2255.93514830431	0.14373779296875
2255.94514830429	0.1434326171875
2255.95514830426	0.14312744140625
2255.96514830424	0.142791748046875
2255.97514830421	0.1424560546875
2255.98514830418	0.14215087890625
2255.99514830416	0.141815185546875
2256.00514830413	0.141510009765625
2256.01514830411	0.14117431640625
2256.02514830408	0.140869140625
2256.03514830406	0.14056396484375
2256.04514830403	0.1402587890625
2256.05514830401	0.139923095703125
2256.06514830398	0.139617919921875
2256.07514830396	0.1392822265625
2256.08514830393	0.13897705078125
2256.09514830391	0.138641357421875
2256.10514830388	0.138336181640625
2256.11514830386	0.13800048828125
2256.12514830383	0.1376953125
2256.13514830381	0.137359619140625
2256.14514830378	0.13702392578125
2256.15514830376	0.13671875
2256.16514830373	0.136383056640625
2256.17514830371	0.136077880859375
2256.18514830368	0.1357421875
2256.19514830365	0.135406494140625
2256.20514830363	0.135101318359375
2256.2151483036	0.134765625
2256.22514830358	0.13446044921875
2256.23514830355	0.134124755859375
2256.24514830353	0.1337890625
2256.2551483035	0.13348388671875
2256.26514830348	0.133148193359375
2256.27514830345	0.132843017578125
2256.28514830343	0.13250732421875
2256.2951483034	0.1322021484375
2256.30514830338	0.131866455078125
2256.31514830335	0.131561279296875
2256.32514830333	0.1312255859375
2256.3351483033	0.130889892578125
2256.34514830328	0.130584716796875
2256.35514830325	0.1302490234375
2256.36514830323	0.12994384765625
2256.3751483032	0.129608154296875
2256.38514830317	0.1292724609375
2256.39514830315	0.12896728515625
2256.40514830312	0.128631591796875
2256.4151483031	0.1282958984375
2256.42514830307	0.12799072265625
2256.43514830305	0.127655029296875
2256.44514830302	0.127349853515625
2256.455148303	0.12701416015625
2256.46514830297	0.126678466796875
2256.47514830295	0.126373291015625
2256.48514830292	0.12603759765625
2256.4951483029	0.125701904296875
2256.50514830287	0.125396728515625
2256.51514830285	0.125091552734375
2256.52514830282	0.124786376953125
2256.5351483028	0.12445068359375
2256.54514830277	0.124114990234375
2256.55514830275	0.123809814453125
2256.56514830272	0.12347412109375
2256.5751483027	0.123138427734375
2256.58514830267	0.122833251953125
2256.59514830264	0.12249755859375
2256.60514830262	0.122161865234375
2256.61514830259	0.121856689453125
2256.62514830257	0.12152099609375
2256.63514830254	0.121185302734375
2256.64514830252	0.120880126953125
2256.65514830249	0.12054443359375
2256.66514830247	0.120208740234375
2256.67514830244	0.119903564453125
2256.68514830242	0.11956787109375
2256.69514830239	0.119232177734375
2256.70514830237	0.118927001953125
2256.71514830234	0.11859130859375
2256.72514830232	0.118255615234375
2256.73514830229	0.117950439453125
2256.74514830227	0.11761474609375
2256.75514830224	0.117279052734375
2256.76514830222	0.116973876953125
2256.77514830219	0.11663818359375
2256.78514830216	0.1163330078125
2256.79514830214	0.115997314453125
2256.80514830211	0.11566162109375
2256.81514830209	0.1153564453125
2256.82514830206	0.115020751953125
2256.83514830204	0.11468505859375
2256.84514830201	0.1143798828125
2256.85514830199	0.114044189453125
2256.86514830196	0.11370849609375
2256.87514830194	0.1134033203125
2256.88514830191	0.113067626953125
2256.89514830189	0.11273193359375
2256.90514830186	0.112396240234375
2256.91514830184	0.112091064453125
2256.92514830181	0.11175537109375
2256.93514830179	0.1114501953125
2256.94514830176	0.111114501953125
2256.95514830174	0.11077880859375
2256.96514830171	0.110443115234375
2256.97514830169	0.110137939453125
2256.98514830166	0.10980224609375
2256.99514830163	0.1094970703125
2257.00514830161	0.10919189453125
2257.01514830158	0.10888671875
2257.02514830156	0.108551025390625
2257.03514830153	0.10821533203125
2257.04514830151	0.107879638671875
2257.05514830148	0.107574462890625
2257.06514830146	0.10723876953125
2257.07514830143	0.106903076171875
2257.08514830141	0.106597900390625
2257.09514830138	0.10626220703125
2257.10514830136	0.10595703125
2257.11514830133	0.105621337890625
2257.12514830131	0.10528564453125
2257.13514830128	0.104949951171875
2257.14514830126	0.104644775390625
2257.15514830123	0.10430908203125
2257.16514830121	0.10400390625
2257.17514830118	0.103668212890625
2257.18514830116	0.10333251953125
2257.19514830113	0.10302734375
2257.2051483011	0.102691650390625
2257.21514830108	0.10235595703125
2257.22514830105	0.10205078125
2257.23514830103	0.101715087890625
2257.245148301	0.101409912109375
2257.25514830098	0.10107421875
2257.26514830095	0.10076904296875
2257.27514830093	0.100433349609375
2257.2851483009	0.10009765625
2257.29514830088	0.09979248046875
2257.30514830085	0.099456787109375
2257.31514830083	0.099151611328125
2257.3251483008	0.09881591796875
2257.33514830078	0.098480224609375
2257.34514830075	0.098175048828125
2257.35514830073	0.09783935546875
2257.3651483007	0.097503662109375
2257.37514830068	0.097198486328125
2257.38514830065	0.09686279296875
2257.39514830062	0.0965576171875
2257.4051483006	0.096221923828125
2257.41514830057	0.09588623046875
2257.42514830055	0.0955810546875
2257.43514830052	0.095245361328125
2257.4451483005	0.094940185546875
2257.45514830047	0.0946044921875
2257.46514830045	0.094268798828125
2257.47514830042	0.093963623046875
2257.4851483004	0.093658447265625
2257.49514830037	0.093353271484375
2257.50514830035	0.093017578125
2257.51514830032	0.09271240234375
2257.5251483003	0.092376708984375
2257.53514830027	0.092071533203125
2257.54514830025	0.09173583984375
2257.55514830022	0.0914306640625
2257.5651483002	0.091094970703125
2257.57514830017	0.09075927734375
2257.58514830015	0.0904541015625
2257.59514830012	0.090118408203125
2257.60514830009	0.089813232421875
2257.61514830007	0.0894775390625
2257.62514830004	0.08917236328125
2257.63514830002	0.088836669921875
2257.64514829999	0.088531494140625
2257.65514829997	0.08819580078125
2257.66514829994	0.087890625
2257.67514829992	0.087554931640625
2257.68514829989	0.087249755859375
2257.69514829987	0.0869140625
2257.70514829984	0.08660888671875
2257.71514829982	0.086273193359375
2257.72514829979	0.085968017578125
2257.73514829977	0.085662841796875
2257.74514829974	0.0853271484375
2257.75514829972	0.08502197265625
2257.76514829969	0.084686279296875
2257.77514829967	0.084381103515625
2257.78514829964	0.084075927734375
2257.79514829961	0.083740234375
2257.80514829959	0.08343505859375
2257.81514829956	0.083099365234375
2257.82514829954	0.082794189453125
2257.83514829951	0.08245849609375
2257.84514829949	0.0821533203125
2257.85514829946	0.081817626953125
2257.86514829944	0.081512451171875
2257.87514829941	0.081207275390625
2257.88514829939	0.08087158203125
2257.89514829936	0.08056640625
2257.90514829934	0.08026123046875
2257.91514829931	0.079925537109375
2257.92514829929	0.079620361328125
2257.93514829926	0.079315185546875
2257.94514829924	0.0789794921875
2257.95514829921	0.07867431640625
2257.96514829919	0.078338623046875
2257.97514829916	0.07806396484375
2257.98514829914	0.0777587890625
2257.99514829911	0.07745361328125
2258.00514829908	0.077117919921875
2258.01514829906	0.076812744140625
2258.02514829903	0.076507568359375
2258.03514829901	0.076202392578125
2258.04514829898	0.07586669921875
2258.05514829896	0.0755615234375
2258.06514829893	0.07525634765625
2258.07514829891	0.074920654296875
2258.08514829888	0.074615478515625
2258.09514829886	0.074310302734375
2258.10514829883	0.073974609375
2258.11514829881	0.07366943359375
2258.12514829878	0.0733642578125
2258.13514829876	0.07305908203125
2258.14514829873	0.07275390625
2258.15514829871	0.072418212890625
2258.16514829868	0.072113037109375
2258.17514829866	0.071807861328125
2258.18514829863	0.071502685546875
2258.19514829861	0.0711669921875
2258.20514829858	0.07086181640625
2258.21514829855	0.070556640625
2258.22514829853	0.07025146484375
2258.2351482985	0.0699462890625
2258.24514829848	0.06964111328125
2258.25514829845	0.0693359375
2258.26514829843	0.06903076171875
2258.2751482984	0.0687255859375
2258.28514829838	0.068389892578125
2258.29514829835	0.068084716796875
2258.30514829833	0.067779541015625
2258.3151482983	0.067474365234375
2258.32514829828	0.067169189453125
2258.33514829825	0.066864013671875
2258.34514829823	0.066558837890625
2258.3551482982	0.06622314453125
2258.36514829818	0.06591796875
2258.37514829815	0.06561279296875
2258.38514829813	0.0653076171875
2258.3951482981	0.06500244140625
2258.40514829807	0.064697265625
2258.41514829805	0.06439208984375
2258.42514829802	0.0640869140625
2258.435148298	0.06378173828125
2258.44514829797	0.0634765625
2258.45514829795	0.06317138671875
2258.46514829792	0.0628662109375
2258.4751482979	0.06256103515625
2258.48514829787	0.062255859375
2258.49514829785	0.06195068359375
2258.50514829782	0.0616455078125
2258.5151482978	0.06134033203125
2258.52514829777	0.06103515625
2258.53514829775	0.06072998046875
2258.54514829772	0.060455322265625
2258.5551482977	0.060150146484375
2258.56514829767	0.059844970703125
2258.57514829765	0.059539794921875
2258.58514829762	0.059234619140625
2258.5951482976	0.058929443359375
2258.60514829757	0.058624267578125
2258.61514829754	0.058319091796875
2258.62514829752	0.058013916015625
2258.63514829749	0.057708740234375
2258.64514829747	0.057403564453125
2258.65514829744	0.057098388671875
2258.66514829742	0.056793212890625
2258.67514829739	0.056488037109375
2258.68514829737	0.056182861328125
2258.69514829734	0.055908203125
2258.70514829732	0.05560302734375
2258.71514829729	0.0552978515625
2258.72514829727	0.05499267578125
2258.73514829724	0.0546875
2258.74514829722	0.054412841796875
2258.75514829719	0.054107666015625
2258.76514829717	0.053802490234375
2258.77514829714	0.053497314453125
2258.78514829712	0.053192138671875
2258.79514829709	0.05291748046875
2258.80514829706	0.0526123046875
2258.81514829704	0.05230712890625
2258.82514829701	0.052001953125
2258.83514829699	0.05169677734375
2258.84514829696	0.051422119140625
2258.85514829694	0.051116943359375
2258.86514829691	0.050811767578125
2258.87514829689	0.050506591796875
2258.88514829686	0.050201416015625
2258.89514829684	0.0499267578125
2258.90514829681	0.04962158203125
2258.91514829679	0.0493255615234375
2258.92514829676	0.0490264892578125
2258.93514829674	0.04873046875
2258.94514829671	0.0484375
2258.95514829669	0.04814453125
2258.96514829666	0.047845458984375
2258.97514829664	0.047552490234375
2258.98514829661	0.0472564697265625
2258.99514829659	0.04696044921875
2259.00514829656	0.04666748046875
2259.01514829653	0.04637451171875
2259.02514829651	0.0460784912109375
2259.03514829648	0.0457855224609375
2259.04514829646	0.0454925537109375
2259.05514829643	0.0451995849609375
2259.06514829641	0.0449066162109375
2259.07514829638	0.044610595703125
2259.08514829636	0.044317626953125
2259.09514829633	0.0440277099609375
2259.10514829631	0.0437347412109375
2259.11514829628	0.0434417724609375
2259.12514829626	0.0431488037109375
2259.13514829623	0.0428558349609375
2259.14514829621	0.0425628662109375
2259.15514829618	0.04227294921875
2259.16514829616	0.0419830322265625
2259.17514829613	0.0416900634765625
2259.18514829611	0.041400146484375
2259.19514829608	0.0411102294921875
2259.20514829606	0.0408203125
2259.21514829603	0.0405303955078125
2259.225148296	0.040240478515625
2259.23514829598	0.0399505615234375
2259.24514829595	0.03966064453125
2259.25514829593	0.039373779296875
2259.2651482959	0.0390838623046875
2259.27514829588	0.0387969970703125
2259.28514829585	0.038507080078125
2259.29514829583	0.0382232666015625
2259.3051482958	0.0379302978515625
2259.31514829578	0.0376434326171875
2259.32514829575	0.0373565673828125
2259.33514829573	0.0370697021484375
2259.3451482957	0.0367828369140625
2259.35514829568	0.0364959716796875
2259.36514829565	0.0362060546875
2259.37514829563	0.035919189453125
2259.3851482956	0.035638427734375
2259.39514829558	0.0353515625
2259.40514829555	0.0350677490234375
2259.41514829552	0.0347808837890625
2259.4251482955	0.0344970703125
2259.43514829547	0.0342132568359375
2259.44514829545	0.033929443359375
2259.45514829542	0.0336456298828125
2259.4651482954	0.03336181640625
2259.47514829537	0.0330780029296875
2259.48514829535	0.032794189453125
2259.49514829532	0.0325103759765625
2259.5051482953	0.0322296142578125
2259.51514829527	0.03194580078125
2259.52514829525	0.0316650390625
2259.53514829522	0.0313812255859375
2259.5451482952	0.0311004638671875
2259.55514829517	0.030816650390625
2259.56514829515	0.030535888671875
2259.57514829512	0.030255126953125
2259.5851482951	0.029974365234375
2259.59514829507	0.029693603515625
2259.60514829505	0.0294158935546875
2259.61514829502	0.029132080078125
2259.62514829499	0.028851318359375
2259.63514829497	0.0285675048828125
2259.64514829494	0.028289794921875
2259.65514829492	0.0280120849609375
2259.66514829489	0.0277313232421875
2259.67514829487	0.02745361328125
2259.68514829484	0.0271759033203125
2259.69514829482	0.0268951416015625
2259.70514829479	0.026617431640625
2259.71514829477	0.0263397216796875
2259.72514829474	0.02606201171875
2259.73514829472	0.0257843017578125
2259.74514829469	0.025506591796875
2259.75514829467	0.0252288818359375
2259.76514829464	0.0249542236328125
2259.77514829462	0.0246795654296875
2259.78514829459	0.02440185546875
2259.79514829457	0.024127197265625
2259.80514829454	0.0238525390625
2259.81514829451	0.0235748291015625
2259.82514829449	0.0233062744140625
2259.83514829446	0.023028564453125
2259.84514829444	0.02275390625
2259.85514829441	0.022479248046875
2259.86514829439	0.02220458984375
2259.87514829436	0.0219329833984375
2259.88514829434	0.021661376953125
2259.89514829431	0.02138671875
2259.90514829429	0.0211151123046875
2259.91514829426	0.0208404541015625
2259.92514829424	0.02056884765625
2259.93514829421	0.02030029296875
2259.94514829419	0.0200286865234375
2259.95514829416	0.0197540283203125
2259.96514829414	0.0194854736328125
2259.97514829411	0.0192138671875
2259.98514829409	0.0189422607421875
2259.99514829406	0.0186737060546875
2260.00514829404	0.0184051513671875
2260.01514829401	0.0181365966796875
2260.02514829398	0.017864990234375
2260.03514829396	0.017596435546875
2260.04514829393	0.017327880859375
2260.05514829391	0.0170623779296875
2260.06514829388	0.0167938232421875
2260.07514829386	0.0165252685546875
2260.08514829383	0.016259765625
2260.09514829381	0.0159912109375
2260.10514829378	0.0157257080078125
2260.11514829376	0.015460205078125
2260.12514829373	0.0151947021484375
2260.13514829371	0.0149261474609375
2260.14514829368	0.01466064453125
2260.15514829366	0.0143951416015625
2260.16514829363	0.014129638671875
2260.17514829361	0.0138702392578125
2260.18514829358	0.013604736328125
2260.19514829356	0.0133392333984375
2260.20514829353	0.0130767822265625
2260.21514829351	0.012811279296875
2260.22514829348	0.012548828125
2260.23514829345	0.012286376953125
2260.24514829343	0.01202392578125
2260.2551482934	0.011761474609375
2260.26514829338	0.0115020751953125
2260.27514829335	0.0112396240234375
2260.28514829333	0.0109771728515625
2260.2951482933	0.0107208251953125
2260.30514829328	0.0104583740234375
2260.31514829325	0.010198974609375
2260.32514829323	0.00993957519531249
2260.3351482932	0.00968017578124999
2260.34514829318	0.00942077636718749
2260.35514829315	0.00916137695312499
2260.36514829313	0.00890197753906249
2260.3751482931	0.008648681640625
2260.38514829308	0.00838623046875001
2260.39514829305	0.00812683105468751
2260.40514829303	0.0078704833984375
2260.415148293	0.0076171875
2260.42514829297	0.0073577880859375
2260.43514829295	0.00710144042968749
2260.44514829292	0.00684509277343751
2260.4551482929	0.006591796875
2260.46514829287	0.0063323974609375
2260.47514829285	0.00608215332031251
2260.48514829282	0.005828857421875
2260.4951482928	0.0055694580078125
2260.50514829277	0.00531921386718751
2260.51514829275	0.0050628662109375
2260.52514829272	0.0048065185546875
2260.5351482927	0.004559326171875
2260.54514829267	0.0043060302734375
2260.55514829265	0.00405273437500001
2260.56514829262	0.003802490234375
2260.5751482926	0.00354919433593751
2260.58514829257	0.0032989501953125
2260.59514829255	0.0030487060546875
2260.60514829252	0.00279846191406249
2260.6151482925	0.0025482177734375
2260.62514829247	0.00229797363281251
2260.63514829244	0.0020477294921875
2260.64514829242	0.0017974853515625
2260.65514829239	0.00155029296875001
2260.66514829237	0.00130615234375001
2260.67514829234	0.001055908203125
2260.68514829232	0.000805664062500003
2260.69514829229	0.000561523437500003
2260.70514829227	0.000314331054687506
2260.71514829224	6.71386718749944E-05
2260.72514829222	-0.000177001953125006
2260.73514829219	-0.00042724609375
2260.74514829217	-0.00067138671875
2260.75514829214	-0.00091552734375
