Time (s)	WE(1).Potential (V)
2217.65157640097	0.071807861328125
2217.66157640094	0.072540283203125
2217.67157640092	0.073272705078125
2217.68157640089	0.073974609375
2217.69157640087	0.07470703125
2217.70157640084	0.075408935546875
2217.71157640082	0.076141357421875
2217.72157640079	0.076873779296875
2217.73157640077	0.07757568359375
2217.74157640074	0.0782470703125
2217.75157640072	0.078948974609375
2217.76157640069	0.07965087890625
2217.77157640067	0.08038330078125
2217.78157640064	0.081085205078125
2217.79157640061	0.081787109375
2217.80157640059	0.08251953125
2217.81157640056	0.083221435546875
2217.82157640054	0.08392333984375
2217.83157640051	0.084625244140625
2217.84157640049	0.0853271484375
2217.85157640046	0.086029052734375
2217.86157640044	0.086700439453125
2217.87157640041	0.08740234375
2217.88157640039	0.088104248046875
2217.89157640036	0.08880615234375
2217.90157640034	0.089508056640625
2217.91157640031	0.090179443359375
2217.92157640029	0.09088134765625
2217.93157640026	0.091583251953125
2217.94157640024	0.092254638671875
2217.95157640021	0.09295654296875
2217.96157640019	0.0936279296875
2217.97157640016	0.09429931640625
2217.98157640014	0.095001220703125
2217.99157640011	0.095672607421875
2218.00157640008	0.09637451171875
2218.01157640006	0.0970458984375
2218.02157640003	0.097747802734375
2218.03157640001	0.098419189453125
2218.04157639998	0.099090576171875
2218.05157639996	0.099761962890625
2218.06157639993	0.1004638671875
2218.07157639991	0.10113525390625
2218.08157639988	0.101806640625
2218.09157639986	0.102447509765625
2218.10157639983	0.1031494140625
2218.11157639981	0.10382080078125
2218.12157639978	0.1044921875
2218.13157639976	0.10516357421875
2218.14157639973	0.1058349609375
2218.15157639971	0.106475830078125
2218.16157639968	0.107177734375
2218.17157639966	0.107818603515625
2218.18157639963	0.108489990234375
2218.1915763996	0.109161376953125
2218.20157639958	0.109771728515625
2218.21157639955	0.110443115234375
2218.22157639953	0.111083984375
2218.2315763995	0.11175537109375
2218.24157639948	0.1124267578125
2218.25157639945	0.113067626953125
2218.26157639943	0.113739013671875
2218.2715763994	0.1143798828125
2218.28157639938	0.11505126953125
2218.29157639935	0.115692138671875
2218.30157639933	0.116363525390625
2218.3115763993	0.11700439453125
2218.32157639928	0.117645263671875
2218.33157639925	0.1182861328125
2218.34157639923	0.118927001953125
2218.3515763992	0.11956787109375
2218.36157639918	0.1202392578125
2218.37157639915	0.120880126953125
2218.38157639913	0.12152099609375
2218.3915763991	0.122161865234375
2218.40157639907	0.122802734375
2218.41157639905	0.123443603515625
2218.42157639902	0.12408447265625
2218.431576399	0.124725341796875
2218.44157639897	0.125335693359375
2218.45157639895	0.1259765625
2218.46157639892	0.126617431640625
2218.4715763989	0.127227783203125
2218.48157639887	0.12786865234375
2218.49157639885	0.128509521484375
2218.50157639882	0.129150390625
2218.5115763988	0.1297607421875
2218.52157639877	0.130401611328125
2218.53157639875	0.131011962890625
2218.54157639872	0.13165283203125
2218.5515763987	0.132293701171875
2218.56157639867	0.132904052734375
2218.57157639865	0.133514404296875
2218.58157639862	0.1341552734375
2218.59157639859	0.134765625
2218.60157639857	0.1353759765625
2218.61157639854	0.136016845703125
2218.62157639852	0.136627197265625
2218.63157639849	0.137237548828125
2218.64157639847	0.137847900390625
2218.65157639844	0.13848876953125
2218.66157639842	0.13909912109375
2218.67157639839	0.13970947265625
2218.68157639837	0.14031982421875
2218.69157639834	0.140899658203125
2218.70157639832	0.141510009765625
2218.71157639829	0.142120361328125
2218.72157639827	0.142730712890625
2218.73157639824	0.143341064453125
2218.74157639822	0.143951416015625
2218.75157639819	0.144561767578125
2218.76157639817	0.1451416015625
2218.77157639814	0.145751953125
2218.78157639812	0.1463623046875
2218.79157639809	0.14697265625
2218.80157639806	0.1475830078125
2218.81157639804	0.148162841796875
2218.82157639801	0.148773193359375
2218.83157639799	0.14935302734375
2218.84157639796	0.14996337890625
2218.85157639794	0.150543212890625
2218.86157639791	0.151153564453125
2218.87157639789	0.1517333984375
2218.88157639786	0.15234375
2218.89157639784	0.152923583984375
2218.90157639781	0.153533935546875
2218.91157639779	0.15411376953125
2218.92157639776	0.15472412109375
2218.93157639774	0.155303955078125
2218.94157639771	0.1558837890625
2218.95157639769	0.156463623046875
2218.96157639766	0.15704345703125
2218.97157639764	0.157623291015625
2218.98157639761	0.158203125
2218.99157639759	0.158782958984375
2219.00157639756	0.159393310546875
2219.01157639753	0.15997314453125
2219.02157639751	0.160552978515625
2219.03157639748	0.1611328125
2219.04157639746	0.161712646484375
2219.05157639743	0.16229248046875
2219.06157639741	0.162872314453125
2219.07157639738	0.1634521484375
2219.08157639736	0.16400146484375
2219.09157639733	0.164581298828125
2219.10157639731	0.1651611328125
2219.11157639728	0.16571044921875
2219.12157639726	0.166290283203125
2219.13157639723	0.1668701171875
2219.14157639721	0.167449951171875
2219.15157639718	0.167999267578125
2219.16157639716	0.1685791015625
2219.17157639713	0.169158935546875
2219.18157639711	0.169708251953125
2219.19157639708	0.1702880859375
2219.20157639705	0.17083740234375
2219.21157639703	0.171417236328125
2219.221576397	0.17193603515625
2219.23157639698	0.1724853515625
2219.24157639695	0.173065185546875
2219.25157639693	0.173614501953125
2219.2615763969	0.174163818359375
2219.27157639688	0.174713134765625
2219.28157639685	0.17529296875
2219.29157639683	0.17584228515625
2219.3015763968	0.1763916015625
2219.31157639678	0.17694091796875
2219.32157639675	0.177520751953125
2219.33157639673	0.178070068359375
2219.3415763967	0.178619384765625
2219.35157639668	0.179168701171875
2219.36157639665	0.1796875
2219.37157639663	0.18023681640625
2219.3815763966	0.1807861328125
2219.39157639658	0.18133544921875
2219.40157639655	0.181884765625
2219.41157639652	0.18243408203125
2219.4215763965	0.1829833984375
2219.43157639647	0.183502197265625
2219.44157639645	0.184051513671875
2219.45157639642	0.184600830078125
2219.4615763964	0.18511962890625
2219.47157639637	0.1856689453125
2219.48157639635	0.186187744140625
2219.49157639632	0.186737060546875
2219.5015763963	0.187286376953125
2219.51157639627	0.187774658203125
2219.52157639625	0.188323974609375
2219.53157639622	0.1888427734375
2219.5415763962	0.18939208984375
2219.55157639617	0.189910888671875
2219.56157639615	0.1904296875
2219.57157639612	0.190948486328125
2219.5815763961	0.191497802734375
2219.59157639607	0.1920166015625
2219.60157639604	0.192535400390625
2219.61157639602	0.19305419921875
2219.62157639599	0.193572998046875
2219.63157639597	0.194091796875
2219.64157639594	0.194610595703125
2219.65157639592	0.19512939453125
2219.66157639589	0.195648193359375
2219.67157639587	0.1961669921875
2219.68157639584	0.196685791015625
2219.69157639582	0.197174072265625
2219.70157639579	0.19769287109375
2219.71157639577	0.198211669921875
2219.72157639574	0.198699951171875
2219.73157639572	0.19921875
2219.74157639569	0.199737548828125
2219.75157639567	0.20025634765625
2219.76157639564	0.20074462890625
2219.77157639562	0.201263427734375
2219.78157639559	0.201751708984375
2219.79157639557	0.2022705078125
2219.80157639554	0.2027587890625
2219.81157639551	0.203216552734375
2219.82157639549	0.203704833984375
2219.83157639546	0.2042236328125
2219.84157639544	0.2047119140625
2219.85157639541	0.2052001953125
2219.86157639539	0.205718994140625
2219.87157639536	0.206207275390625
2219.88157639534	0.206695556640625
2219.89157639531	0.207183837890625
2219.90157639529	0.207672119140625
2219.91157639526	0.208160400390625
2219.92157639524	0.208648681640625
2219.93157639521	0.209136962890625
2219.94157639519	0.209625244140625
2219.95157639516	0.210113525390625
2219.96157639514	0.210601806640625
2219.97157639511	0.2110595703125
2219.98157639509	0.2115478515625
2219.99157639506	0.2120361328125
2220.00157639504	0.212493896484375
2220.01157639501	0.212982177734375
2220.02157639498	0.213470458984375
2220.03157639496	0.21392822265625
2220.04157639493	0.21441650390625
2220.05157639491	0.21490478515625
2220.06157639488	0.215362548828125
2220.07157639486	0.215850830078125
2220.08157639483	0.21630859375
2220.09157639481	0.216766357421875
2220.10157639478	0.217254638671875
2220.11157639476	0.21771240234375
2220.12157639473	0.21820068359375
2220.13157639471	0.218658447265625
2220.14157639468	0.219085693359375
2220.15157639466	0.21954345703125
2220.16157639463	0.22003173828125
2220.17157639461	0.220489501953125
2220.18157639458	0.220947265625
2220.19157639456	0.221405029296875
2220.20157639453	0.22186279296875
2220.2115763945	0.222320556640625
2220.22157639448	0.2227783203125
2220.23157639445	0.223236083984375
2220.24157639443	0.22369384765625
2220.2515763944	0.224151611328125
2220.26157639438	0.224609375
2220.27157639435	0.225067138671875
2220.28157639433	0.22552490234375
2220.2915763943	0.2259521484375
2220.30157639428	0.226409912109375
2220.31157639425	0.226837158203125
2220.32157639423	0.227294921875
2220.3315763942	0.227752685546875
2220.34157639418	0.228179931640625
2220.35157639415	0.2286376953125
2220.36157639413	0.229095458984375
2220.3715763941	0.229522705078125
2220.38157639408	0.22998046875
2220.39157639405	0.23040771484375
2220.40157639403	0.230865478515625
2220.411576394	0.231292724609375
2220.42157639397	0.23175048828125
2220.43157639395	0.232177734375
2220.44157639392	0.23260498046875
2220.4515763939	0.233062744140625
2220.46157639387	0.233489990234375
2220.47157639385	0.233917236328125
2220.48157639382	0.234344482421875
2220.4915763938	0.2347412109375
2220.50157639377	0.23516845703125
2220.51157639375	0.235595703125
2220.52157639372	0.23602294921875
2220.5315763937	0.2364501953125
2220.54157639367	0.23687744140625
2220.55157639365	0.2373046875
2220.56157639362	0.23773193359375
2220.5715763936	0.2381591796875
2220.58157639357	0.23858642578125
2220.59157639355	0.239013671875
2220.60157639352	0.23944091796875
2220.61157639349	0.239837646484375
2220.62157639347	0.240264892578125
2220.63157639344	0.240692138671875
2220.64157639342	0.2410888671875
2220.65157639339	0.24151611328125
2220.66157639337	0.241943359375
2220.67157639334	0.242340087890625
2220.68157639332	0.242767333984375
2220.69157639329	0.2431640625
2220.70157639327	0.24359130859375
2220.71157639324	0.243988037109375
2220.72157639322	0.244415283203125
2220.73157639319	0.24481201171875
2220.74157639317	0.245208740234375
2220.75157639314	0.245635986328125
2220.76157639312	0.24603271484375
2220.77157639309	0.246429443359375
2220.78157639307	0.246856689453125
2220.79157639304	0.24725341796875
2220.80157639302	0.247650146484375
2220.81157639299	0.248046875
2220.82157639296	0.24847412109375
2220.83157639294	0.248870849609375
2220.84157639291	0.249267578125
2220.85157639289	0.249664306640625
2220.86157639286	0.250030517578125
2220.87157639284	0.25042724609375
2220.88157639281	0.250823974609375
2220.89157639279	0.251220703125
2220.90157639276	0.251617431640625
2220.91157639274	0.25201416015625
2220.92157639271	0.252410888671875
2220.93157639269	0.252777099609375
2220.94157639266	0.253173828125
2220.95157639264	0.253570556640625
2220.96157639261	0.25396728515625
2220.97157639259	0.254364013671875
2220.98157639256	0.2547607421875
2220.99157639254	0.255126953125
2221.00157639251	0.255523681640625
2221.01157639249	0.25592041015625
2221.02157639246	0.25628662109375
2221.03157639243	0.256683349609375
2221.04157639241	0.257080078125
2221.05157639238	0.2574462890625
2221.06157639236	0.257843017578125
2221.07157639233	0.258209228515625
2221.08157639231	0.25860595703125
2221.09157639228	0.25897216796875
2221.10157639226	0.259368896484375
2221.11157639223	0.259735107421875
2221.12157639221	0.2601318359375
2221.13157639218	0.260498046875
2221.14157639216	0.260894775390625
2221.15157639213	0.261260986328125
2221.16157639211	0.26165771484375
2221.17157639208	0.26202392578125
2221.18157639206	0.26239013671875
2221.19157639203	0.262786865234375
2221.20157639201	0.263153076171875
2221.21157639198	0.263519287109375
2221.22157639195	0.263916015625
2221.23157639193	0.2642822265625
2221.2415763919	0.2646484375
2221.25157639188	0.2650146484375
2221.26157639185	0.265411376953125
2221.27157639183	0.2657470703125
2221.2815763918	0.26611328125
2221.29157639178	0.2664794921875
2221.30157639175	0.266845703125
2221.31157639173	0.2672119140625
2221.3215763917	0.267578125
2221.33157639168	0.2679443359375
2221.34157639165	0.268310546875
2221.35157639163	0.2686767578125
2221.3615763916	0.26904296875
2221.37157639158	0.2694091796875
2221.38157639155	0.269775390625
2221.39157639153	0.2701416015625
2221.4015763915	0.2705078125
2221.41157639148	0.2708740234375
2221.42157639145	0.271240234375
2221.43157639142	0.2716064453125
2221.4415763914	0.27197265625
2221.45157639137	0.2723388671875
2221.46157639135	0.272705078125
2221.47157639132	0.273040771484375
2221.4815763913	0.273406982421875
2221.49157639127	0.273773193359375
2221.50157639125	0.27410888671875
2221.51157639122	0.27447509765625
2221.5215763912	0.27484130859375
2221.53157639117	0.275177001953125
2221.54157639115	0.275543212890625
2221.55157639112	0.275909423828125
2221.5615763911	0.276275634765625
2221.57157639107	0.276611328125
2221.58157639105	0.2769775390625
2221.59157639102	0.27734375
2221.601576391	0.277679443359375
2221.61157639097	0.278045654296875
2221.62157639094	0.27838134765625
2221.63157639092	0.27874755859375
2221.64157639089	0.27911376953125
2221.65157639087	0.279449462890625
2221.66157639084	0.279815673828125
2221.67157639082	0.2801513671875
2221.68157639079	0.280517578125
2221.69157639077	0.280853271484375
2221.70157639074	0.281219482421875
2221.71157639072	0.281524658203125
2221.72157639069	0.281890869140625
2221.73157639067	0.2822265625
2221.74157639064	0.2825927734375
2221.75157639062	0.282928466796875
2221.76157639059	0.283294677734375
2221.77157639057	0.28363037109375
2221.78157639054	0.283966064453125
2221.79157639052	0.284332275390625
2221.80157639049	0.28466796875
2221.81157639047	0.2850341796875
2221.82157639044	0.285369873046875
2221.83157639041	0.28570556640625
2221.84157639039	0.28607177734375
2221.85157639036	0.286407470703125
2221.86157639034	0.286773681640625
2221.87157639031	0.287109375
2221.88157639029	0.287445068359375
2221.89157639026	0.287811279296875
2221.90157639024	0.28814697265625
2221.91157639021	0.288482666015625
2221.92157639019	0.288848876953125
2221.93157639016	0.2891845703125
2221.94157639014	0.289520263671875
2221.95157639011	0.289886474609375
2221.96157639009	0.29022216796875
2221.97157639006	0.290557861328125
2221.98157639004	0.290924072265625
2221.99157639001	0.291259765625
2222.00157638999	0.291595458984375
2222.01157638996	0.291961669921875
2222.02157638994	0.29229736328125
2222.03157638991	0.292633056640625
2222.04157638988	0.292999267578125
2222.05157638986	0.2933349609375
2222.06157638983	0.293701171875
2222.07157638981	0.294036865234375
2222.08157638978	0.29437255859375
2222.09157638976	0.29473876953125
2222.10157638973	0.295074462890625
2222.11157638971	0.295440673828125
2222.12157638968	0.2957763671875
2222.13157638966	0.296142578125
2222.14157638963	0.296478271484375
2222.15157638961	0.29681396484375
2222.16157638958	0.297149658203125
2222.17157638956	0.2974853515625
2222.18157638953	0.297821044921875
2222.19157638951	0.298187255859375
2222.20157638948	0.29852294921875
2222.21157638946	0.29888916015625
2222.22157638943	0.299224853515625
2222.2315763894	0.299591064453125
2222.24157638938	0.2999267578125
2222.25157638935	0.30029296875
2222.26157638933	0.300628662109375
2222.2715763893	0.300994873046875
2222.28157638928	0.30133056640625
2222.29157638925	0.30169677734375
2222.30157638923	0.302032470703125
2222.3115763892	0.302398681640625
2222.32157638918	0.302764892578125
2222.33157638915	0.3031005859375
2222.34157638913	0.303466796875
2222.3515763891	0.303802490234375
2222.36157638908	0.304168701171875
2222.37157638905	0.304534912109375
2222.38157638903	0.30487060546875
2222.391576389	0.30523681640625
2222.40157638898	0.305572509765625
2222.41157638895	0.305938720703125
2222.42157638893	0.3062744140625
2222.4315763889	0.306640625
2222.44157638887	0.3070068359375
2222.45157638885	0.307373046875
2222.46157638882	0.307708740234375
2222.4715763888	0.308074951171875
2222.48157638877	0.308441162109375
2222.49157638875	0.30877685546875
2222.50157638872	0.30914306640625
2222.5115763887	0.30950927734375
2222.52157638867	0.30987548828125
2222.53157638865	0.310211181640625
2222.54157638862	0.310577392578125
2222.5515763886	0.310943603515625
2222.56157638857	0.311309814453125
2222.57157638855	0.311676025390625
2222.58157638852	0.31201171875
2222.5915763885	0.3123779296875
2222.60157638847	0.312713623046875
2222.61157638845	0.313079833984375
2222.62157638842	0.313446044921875
2222.63157638839	0.313812255859375
2222.64157638837	0.314178466796875
2222.65157638834	0.314544677734375
2222.66157638832	0.314910888671875
2222.67157638829	0.31524658203125
2222.68157638827	0.31561279296875
2222.69157638824	0.31597900390625
2222.70157638822	0.31634521484375
2222.71157638819	0.31671142578125
2222.72157638817	0.31707763671875
2222.73157638814	0.31744384765625
2222.74157638812	0.31781005859375
2222.75157638809	0.31817626953125
2222.76157638807	0.31854248046875
2222.77157638804	0.31890869140625
2222.78157638802	0.31927490234375
2222.79157638799	0.31964111328125
2222.80157638797	0.32000732421875
2222.81157638794	0.32037353515625
2222.82157638792	0.320709228515625
2222.83157638789	0.321075439453125
2222.84157638786	0.321441650390625
2222.85157638784	0.321807861328125
2222.86157638781	0.322174072265625
2222.87157638779	0.322540283203125
2222.88157638776	0.322906494140625
2222.89157638774	0.323272705078125
2222.90157638771	0.323638916015625
2222.91157638769	0.324005126953125
2222.92157638766	0.32440185546875
2222.93157638764	0.32476806640625
2222.94157638761	0.32513427734375
2222.95157638759	0.32550048828125
2222.96157638756	0.32586669921875
2222.97157638754	0.32623291015625
2222.98157638751	0.32659912109375
2222.99157638749	0.32696533203125
2223.00157638746	0.32733154296875
2223.01157638744	0.32769775390625
2223.02157638741	0.32806396484375
2223.03157638739	0.328399658203125
2223.04157638736	0.328765869140625
2223.05157638733	0.329132080078125
2223.06157638731	0.329498291015625
2223.07157638728	0.329864501953125
2223.08157638726	0.330230712890625
2223.09157638723	0.330596923828125
2223.10157638721	0.330963134765625
2223.11157638718	0.331329345703125
2223.12157638716	0.331695556640625
2223.13157638713	0.332061767578125
2223.14157638711	0.332427978515625
2223.15157638708	0.332794189453125
2223.16157638706	0.333160400390625
2223.17157638703	0.333526611328125
2223.18157638701	0.333892822265625
2223.19157638698	0.334259033203125
2223.20157638696	0.334625244140625
2223.21157638693	0.334991455078125
2223.22157638691	0.335357666015625
2223.23157638688	0.335723876953125
2223.24157638685	0.336090087890625
2223.25157638683	0.336456298828125
2223.2615763868	0.336822509765625
2223.27157638678	0.337188720703125
2223.28157638675	0.337554931640625
2223.29157638673	0.337921142578125
2223.3015763867	0.338287353515625
2223.31157638668	0.338653564453125
2223.32157638665	0.339019775390625
2223.33157638663	0.339385986328125
2223.3415763866	0.339752197265625
2223.35157638658	0.340118408203125
