Time (s)	WE(1).Potential (V)
2384.16947998055	0.088134765625
2384.17947998053	0.08917236328125
2384.1894799805	0.0902099609375
2384.19947998048	0.091217041015625
2384.20947998045	0.092254638671875
2384.21947998042	0.09326171875
2384.2294799804	0.094268798828125
2384.23947998037	0.09527587890625
2384.24947998035	0.096282958984375
2384.25947998032	0.097320556640625
2384.2694799803	0.09832763671875
2384.27947998027	0.099334716796875
2384.28947998025	0.100341796875
2384.29947998022	0.101348876953125
2384.3094799802	0.102325439453125
2384.31947998017	0.10333251953125
2384.32947998015	0.104339599609375
2384.33947998012	0.105316162109375
2384.3494799801	0.1063232421875
2384.35947998007	0.107330322265625
2384.36947998005	0.108306884765625
2384.37947998002	0.109283447265625
2384.38947998	0.1102294921875
2384.39947997997	0.111236572265625
2384.40947997994	0.112213134765625
2384.41947997992	0.113189697265625
2384.42947997989	0.114166259765625
2384.43947997987	0.115142822265625
2384.44947997984	0.116119384765625
2384.45947997982	0.1170654296875
2384.46947997979	0.1180419921875
2384.47947997977	0.118988037109375
2384.48947997974	0.119964599609375
2384.49947997972	0.12091064453125
2384.50947997969	0.12188720703125
2384.51947997967	0.122833251953125
2384.52947997964	0.123779296875
2384.53947997962	0.124755859375
2384.54947997959	0.12567138671875
2384.55947997957	0.126617431640625
2384.56947997954	0.1275634765625
2384.57947997952	0.128509521484375
2384.58947997949	0.12945556640625
2384.59947997947	0.130401611328125
2384.60947997944	0.13134765625
2384.61947997941	0.13226318359375
2384.62947997939	0.133209228515625
2384.63947997936	0.134124755859375
2384.64947997934	0.13507080078125
2384.65947997931	0.135986328125
2384.66947997929	0.13690185546875
2384.67947997926	0.137847900390625
2384.68947997924	0.138763427734375
2384.69947997921	0.139678955078125
2384.70947997919	0.14056396484375
2384.71947997916	0.141448974609375
2384.72947997914	0.14239501953125
2384.73947997911	0.143280029296875
2384.74947997909	0.144195556640625
2384.75947997906	0.145111083984375
2384.76947997904	0.146026611328125
2384.77947997901	0.14691162109375
2384.78947997899	0.1478271484375
2384.79947997896	0.148712158203125
2384.80947997894	0.14959716796875
2384.81947997891	0.1505126953125
2384.82947997888	0.151397705078125
2384.83947997886	0.15228271484375
2384.84947997883	0.153167724609375
2384.85947997881	0.154083251953125
2384.86947997878	0.15496826171875
2384.87947997876	0.155853271484375
2384.88947997873	0.156707763671875
2384.89947997871	0.157562255859375
2384.90947997868	0.158447265625
2384.91947997866	0.159332275390625
2384.92947997863	0.16021728515625
2384.93947997861	0.16107177734375
2384.94947997858	0.161956787109375
2384.95947997856	0.162811279296875
2384.96947997853	0.1636962890625
2384.97947997851	0.16455078125
2384.98947997848	0.1654052734375
2384.99947997846	0.166259765625
2385.00947997843	0.1671142578125
2385.0194799784	0.16796875
2385.02947997838	0.1688232421875
2385.03947997835	0.169677734375
2385.04947997833	0.1705322265625
2385.0594799783	0.17138671875
2385.06947997828	0.172210693359375
2385.07947997825	0.17303466796875
2385.08947997823	0.17388916015625
2385.0994799782	0.174713134765625
2385.10947997818	0.175567626953125
2385.11947997815	0.1763916015625
2385.12947997813	0.17724609375
2385.1394799781	0.178070068359375
2385.14947997808	0.17889404296875
2385.15947997805	0.179718017578125
2385.16947997803	0.1805419921875
2385.179479978	0.181365966796875
2385.18947997798	0.18218994140625
2385.19947997795	0.183013916015625
2385.20947997793	0.183837890625
2385.2194799779	0.18463134765625
2385.22947997787	0.185455322265625
2385.23947997785	0.186279296875
2385.24947997782	0.18707275390625
2385.2594799778	0.1878662109375
2385.26947997777	0.18865966796875
2385.27947997775	0.189483642578125
2385.28947997772	0.190277099609375
2385.2994799777	0.191070556640625
2385.30947997767	0.191864013671875
2385.31947997765	0.192657470703125
2385.32947997762	0.193450927734375
2385.3394799776	0.194244384765625
2385.34947997757	0.195037841796875
2385.35947997755	0.19580078125
2385.36947997752	0.19659423828125
2385.3794799775	0.197357177734375
2385.38947997747	0.198150634765625
2385.39947997745	0.19891357421875
2385.40947997742	0.19970703125
2385.41947997739	0.200469970703125
2385.42947997737	0.20123291015625
2385.43947997734	0.201995849609375
2385.44947997732	0.2027587890625
2385.45947997729	0.2034912109375
2385.46947997727	0.2042236328125
2385.47947997724	0.204986572265625
2385.48947997722	0.20574951171875
2385.49947997719	0.20648193359375
2385.50947997717	0.207244873046875
2385.51947997714	0.2080078125
2385.52947997712	0.208740234375
2385.53947997709	0.20947265625
2385.54947997707	0.210235595703125
2385.55947997704	0.2109375
2385.56947997702	0.211669921875
2385.57947997699	0.21240234375
2385.58947997697	0.213134765625
2385.59947997694	0.2138671875
2385.60947997692	0.214599609375
2385.61947997689	0.21533203125
2385.62947997686	0.216064453125
2385.63947997684	0.216766357421875
2385.64947997681	0.217498779296875
2385.65947997679	0.21820068359375
2385.66947997676	0.218902587890625
2385.67947997674	0.2196044921875
2385.68947997671	0.220306396484375
2385.69947997669	0.22100830078125
2385.70947997666	0.221710205078125
2385.71947997664	0.222412109375
2385.72947997661	0.22314453125
2385.73947997659	0.22381591796875
2385.74947997656	0.224517822265625
2385.75947997654	0.2252197265625
2385.76947997651	0.225921630859375
2385.77947997649	0.226593017578125
2385.78947997646	0.227264404296875
2385.79947997644	0.22796630859375
2385.80947997641	0.2286376953125
2385.81947997639	0.229339599609375
2385.82947997636	0.230010986328125
2385.83947997633	0.230682373046875
2385.84947997631	0.231353759765625
2385.85947997628	0.232025146484375
2385.86947997626	0.232696533203125
2385.87947997623	0.233367919921875
2385.88947997621	0.234039306640625
2385.89947997618	0.234649658203125
2385.90947997616	0.235321044921875
2385.91947997613	0.235992431640625
2385.92947997611	0.23663330078125
2385.93947997608	0.2373046875
2385.94947997606	0.237945556640625
2385.95947997603	0.23858642578125
2385.96947997601	0.2392578125
2385.97947997598	0.239898681640625
2385.98947997596	0.24053955078125
2385.99947997593	0.241180419921875
2386.00947997591	0.2418212890625
2386.01947997588	0.242431640625
2386.02947997585	0.243072509765625
2386.03947997583	0.24371337890625
2386.0494799758	0.24432373046875
2386.05947997578	0.244964599609375
2386.06947997575	0.24560546875
2386.07947997573	0.2462158203125
2386.0894799757	0.246826171875
2386.09947997568	0.247467041015625
2386.10947997565	0.248077392578125
2386.11947997563	0.248687744140625
2386.1294799756	0.249298095703125
2386.13947997558	0.249908447265625
2386.14947997555	0.25048828125
2386.15947997553	0.2510986328125
2386.1694799755	0.251708984375
2386.17947997548	0.252288818359375
2386.18947997545	0.252899169921875
2386.19947997543	0.25347900390625
2386.2094799754	0.25408935546875
2386.21947997538	0.254669189453125
2386.22947997535	0.255279541015625
2386.23947997532	0.255859375
2386.2494799753	0.256439208984375
2386.25947997527	0.257049560546875
2386.26947997525	0.25762939453125
2386.27947997522	0.2581787109375
2386.2894799752	0.258758544921875
2386.29947997517	0.25933837890625
2386.30947997515	0.259918212890625
2386.31947997512	0.260498046875
2386.3294799751	0.261077880859375
2386.33947997507	0.26165771484375
2386.34947997505	0.262237548828125
2386.35947997502	0.262786865234375
2386.369479975	0.26336669921875
2386.37947997497	0.263946533203125
2386.38947997495	0.264495849609375
2386.39947997492	0.26507568359375
2386.4094799749	0.265625
2386.41947997487	0.266143798828125
2386.42947997484	0.2667236328125
2386.43947997482	0.26727294921875
2386.44947997479	0.267852783203125
2386.45947997477	0.268402099609375
2386.46947997474	0.268951416015625
2386.47947997472	0.269500732421875
2386.48947997469	0.27008056640625
2386.49947997467	0.2706298828125
2386.50947997464	0.27117919921875
2386.51947997462	0.271728515625
2386.52947997459	0.27227783203125
2386.53947997457	0.2728271484375
2386.54947997454	0.27337646484375
2386.55947997452	0.273895263671875
2386.56947997449	0.274444580078125
2386.57947997447	0.274993896484375
2386.58947997444	0.275543212890625
2386.59947997442	0.276092529296875
2386.60947997439	0.276611328125
2386.61947997437	0.27716064453125
2386.62947997434	0.2777099609375
2386.63947997431	0.27825927734375
2386.64947997429	0.278778076171875
2386.65947997426	0.279327392578125
2386.66947997424	0.279876708984375
2386.67947997421	0.2803955078125
2386.68947997419	0.28094482421875
2386.69947997416	0.281463623046875
2386.70947997414	0.281982421875
2386.71947997411	0.28253173828125
2386.72947997409	0.283050537109375
2386.73947997406	0.283599853515625
2386.74947997404	0.28411865234375
2386.75947997401	0.28466796875
2386.76947997399	0.285186767578125
2386.77947997396	0.285736083984375
2386.78947997394	0.2862548828125
2386.79947997391	0.28680419921875
2386.80947997389	0.287322998046875
2386.81947997386	0.287841796875
2386.82947997384	0.28839111328125
2386.83947997381	0.288909912109375
2386.84947997378	0.2894287109375
2386.85947997376	0.28997802734375
2386.86947997373	0.290496826171875
2386.87947997371	0.291046142578125
2386.88947997368	0.29156494140625
2386.89947997366	0.2921142578125
2386.90947997363	0.292633056640625
2386.91947997361	0.293182373046875
2386.92947997358	0.293701171875
2386.93947997356	0.29425048828125
2386.94947997353	0.2947998046875
2386.95947997351	0.295318603515625
2386.96947997348	0.295867919921875
2386.97947997346	0.29638671875
2386.98947997343	0.296905517578125
2386.99947997341	0.29742431640625
2387.00947997338	0.2979736328125
2387.01947997336	0.298492431640625
2387.02947997333	0.299041748046875
2387.0394799733	0.299591064453125
2387.04947997328	0.300140380859375
2387.05947997325	0.3006591796875
2387.06947997323	0.30120849609375
2387.0794799732	0.3017578125
2387.08947997318	0.30230712890625
2387.09947997315	0.302825927734375
2387.10947997313	0.303375244140625
2387.1194799731	0.303924560546875
2387.12947997308	0.304473876953125
2387.13947997305	0.305023193359375
2387.14947997303	0.3055419921875
2387.159479973	0.30609130859375
2387.16947997298	0.306640625
2387.17947997295	0.30718994140625
2387.18947997293	0.3077392578125
2387.1994799729	0.30828857421875
2387.20947997288	0.308837890625
2387.21947997285	0.309417724609375
2387.22947997283	0.309967041015625
2387.2394799728	0.310516357421875
2387.24947997277	0.311065673828125
2387.25947997275	0.311614990234375
2387.26947997272	0.312164306640625
2387.2794799727	0.312713623046875
2387.28947997267	0.313262939453125
2387.29947997265	0.313812255859375
2387.30947997262	0.31439208984375
2387.3194799726	0.31494140625
2387.32947997257	0.31549072265625
2387.33947997255	0.316070556640625
2387.34947997252	0.316619873046875
2387.3594799725	0.31719970703125
2387.36947997247	0.3177490234375
2387.37947997245	0.31829833984375
2387.38947997242	0.318878173828125
2387.3994799724	0.319427490234375
2387.40947997237	0.32000732421875
2387.41947997235	0.320556640625
2387.42947997232	0.32110595703125
2387.43947997229	0.321685791015625
2387.44947997227	0.322235107421875
2387.45947997224	0.32281494140625
2387.46947997222	0.3233642578125
2387.47947997219	0.323944091796875
2387.48947997217	0.324493408203125
2387.49947997214	0.3250732421875
2387.50947997212	0.325653076171875
2387.51947997209	0.326202392578125
2387.52947997207	0.3267822265625
2387.53947997204	0.327362060546875
2387.54947997202	0.327911376953125
2387.55947997199	0.32843017578125
2387.56947997197	0.329010009765625
2387.57947997194	0.32958984375
2387.58947997192	0.33013916015625
2387.59947997189	0.330718994140625
2387.60947997187	0.331298828125
2387.61947997184	0.33184814453125
2387.62947997182	0.332427978515625
2387.63947997179	0.3330078125
2387.64947997176	0.333587646484375
2387.65947997174	0.334136962890625
2387.66947997171	0.334716796875
2387.67947997169	0.33526611328125
2387.68947997166	0.335845947265625
2387.69947997164	0.33642578125
2387.70947997161	0.33697509765625
2387.71947997159	0.337554931640625
2387.72947997156	0.338104248046875
2387.73947997154	0.33868408203125
2387.74947997151	0.339263916015625
2387.75947997149	0.33984375
2387.76947997146	0.34039306640625
2387.77947997144	0.340972900390625
2387.78947997141	0.341552734375
2387.79947997139	0.34210205078125
2387.80947997136	0.342681884765625
2387.81947997134	0.34326171875
2387.82947997131	0.34381103515625
2387.83947997129	0.3443603515625
2387.84947997126	0.344940185546875
2387.85947997123	0.345489501953125
2387.86947997121	0.3460693359375
2387.87947997118	0.34661865234375
2387.88947997116	0.347198486328125
2387.89947997113	0.347747802734375
2387.90947997111	0.34832763671875
2387.91947997108	0.348907470703125
2387.92947997106	0.349456787109375
2387.93947997103	0.35003662109375
2387.94947997101	0.3505859375
2387.95947997098	0.351165771484375
2387.96947997096	0.351715087890625
2387.97947997093	0.352264404296875
2387.98947997091	0.35284423828125
2387.99947997088	0.353424072265625
2388.00947997086	0.353973388671875
2388.01947997083	0.354522705078125
2388.02947997081	0.3551025390625
2388.03947997078	0.35565185546875
2388.04947997075	0.356231689453125
2388.05947997073	0.3568115234375
2388.0694799707	0.35736083984375
2388.07947997068	0.35791015625
2388.08947997065	0.358489990234375
2388.09947997063	0.359039306640625
2388.1094799706	0.35955810546875
2388.11947997058	0.360137939453125
2388.12947997055	0.360687255859375
2388.13947997053	0.36126708984375
2388.1494799705	0.36181640625
2388.15947997048	0.36236572265625
2388.16947997045	0.362945556640625
2388.17947997043	0.363494873046875
2388.1894799704	0.36407470703125
2388.19947997038	0.3646240234375
2388.20947997035	0.365203857421875
2388.21947997033	0.365753173828125
2388.2294799703	0.3663330078125
2388.23947997028	0.36688232421875
2388.24947997025	0.367431640625
2388.25947997022	0.36798095703125
2388.2694799702	0.368560791015625
2388.27947997017	0.369110107421875
2388.28947997015	0.36968994140625
2388.29947997012	0.3702392578125
2388.3094799701	0.37078857421875
2388.31947997007	0.371368408203125
2388.32947997005	0.371917724609375
2388.33947997002	0.37249755859375
2388.34947997	0.373046875
2388.35947996997	0.373626708984375
2388.36947996995	0.374176025390625
2388.37947996992	0.374755859375
2388.3894799699	0.375274658203125
2388.39947996987	0.3758544921875
2388.40947996985	0.37640380859375
2388.41947996982	0.376983642578125
2388.4294799698	0.377532958984375
2388.43947996977	0.37811279296875
2388.44947996974	0.378662109375
2388.45947996972	0.379241943359375
2388.46947996969	0.379791259765625
2388.47947996967	0.38037109375
2388.48947996964	0.38092041015625
2388.49947996962	0.381500244140625
2388.50947996959	0.382049560546875
2388.51947996957	0.38262939453125
2388.52947996954	0.3831787109375
2388.53947996952	0.38372802734375
2388.54947996949	0.384307861328125
2388.55947996947	0.384857177734375
2388.56947996944	0.38543701171875
2388.57947996942	0.385986328125
2388.58947996939	0.386566162109375
2388.59947996937	0.387115478515625
2388.60947996934	0.3876953125
2388.61947996932	0.388275146484375
2388.62947996929	0.388824462890625
2388.63947996927	0.389404296875
2388.64947996924	0.38995361328125
2388.65947996921	0.390533447265625
2388.66947996919	0.39105224609375
2388.67947996916	0.391632080078125
2388.68947996914	0.392181396484375
2388.69947996911	0.39276123046875
2388.70947996909	0.393341064453125
2388.71947996906	0.393890380859375
2388.72947996904	0.39447021484375
2388.73947996901	0.39501953125
2388.74947996899	0.395599365234375
2388.75947996896	0.39617919921875
2388.76947996894	0.396728515625
2388.77947996891	0.397308349609375
2388.78947996889	0.39788818359375
2388.79947996886	0.3984375
2388.80947996884	0.39898681640625
2388.81947996881	0.399566650390625
2388.82947996879	0.400146484375
2388.83947996876	0.400726318359375
2388.84947996874	0.401275634765625
2388.85947996871	0.40185546875
2388.86947996868	0.40240478515625
2388.87947996866	0.402984619140625
2388.88947996863	0.403564453125
2388.89947996861	0.404144287109375
2388.90947996858	0.404693603515625
2388.91947996856	0.4052734375
2388.92947996853	0.405853271484375
2388.93947996851	0.4063720703125
2388.94947996848	0.406951904296875
2388.95947996846	0.407501220703125
2388.96947996843	0.4080810546875
2388.97947996841	0.408660888671875
2388.98947996838	0.409210205078125
2388.99947996836	0.4097900390625
2389.00947996833	0.410369873046875
2389.01947996831	0.410919189453125
2389.02947996828	0.4114990234375
2389.03947996826	0.412078857421875
2389.04947996823	0.412628173828125
2389.0594799682	0.4132080078125
2389.06947996818	0.413787841796875
2389.07947996815	0.414337158203125
2389.08947996813	0.414886474609375
2389.0994799681	0.41546630859375
2389.10947996808	0.416046142578125
2389.11947996805	0.416595458984375
2389.12947996803	0.41717529296875
2389.139479968	0.417724609375
2389.14947996798	0.418304443359375
2389.15947996795	0.41888427734375
2389.16947996793	0.41943359375
2389.1794799679	0.420013427734375
2389.18947996788	0.420562744140625
2389.19947996785	0.421142578125
2389.20947996783	0.42169189453125
2389.2194799678	0.4222412109375
2389.22947996778	0.42279052734375
2389.23947996775	0.423370361328125
2389.24947996773	0.423919677734375
2389.2594799677	0.42449951171875
2389.26947996767	0.425048828125
2389.27947996765	0.425628662109375
2389.28947996762	0.426177978515625
2389.2994799676	0.4267578125
2389.30947996757	0.427337646484375
2389.31947996755	0.427886962890625
2389.32947996752	0.428466796875
2389.3394799675	0.42901611328125
2389.34947996747	0.429595947265625
2389.35947996745	0.430145263671875
2389.36947996742	0.430694580078125
2389.3794799674	0.4312744140625
2389.38947996737	0.431854248046875
2389.39947996735	0.432403564453125
2389.40947996732	0.4329833984375
2389.4194799673	0.43353271484375
2389.42947996727	0.434112548828125
2389.43947996725	0.434661865234375
2389.44947996722	0.43524169921875
2389.45947996719	0.435791015625
2389.46947996717	0.436370849609375
2389.47947996714	0.436920166015625
2389.48947996712	0.4375
2389.49947996709	0.43804931640625
2389.50947996707	0.438629150390625
2389.51947996704	0.439178466796875
2389.52947996702	0.43975830078125
2389.53947996699	0.4403076171875
2389.54947996697	0.440887451171875
2389.55947996694	0.44146728515625
2389.56947996692	0.4420166015625
2389.57947996689	0.442596435546875
2389.58947996687	0.443145751953125
2389.59947996684	0.4437255859375
2389.60947996682	0.444305419921875
2389.61947996679	0.444854736328125
2389.62947996677	0.4454345703125
2389.63947996674	0.44598388671875
2389.64947996672	0.446563720703125
2389.65947996669	0.447113037109375
2389.66947996666	0.44769287109375
2389.67947996664	0.4482421875
2389.68947996661	0.448822021484375
2389.69947996659	0.44940185546875
2389.70947996656	0.449951171875
2389.71947996654	0.450531005859375
2389.72947996651	0.45111083984375
2389.73947996649	0.45166015625
2389.74947996646	0.452239990234375
2389.75947996644	0.45281982421875
2389.76947996641	0.453338623046875
2389.77947996639	0.45391845703125
2389.78947996636	0.4544677734375
2389.79947996634	0.455047607421875
2389.80947996631	0.45562744140625
2389.81947996629	0.4561767578125
2389.82947996626	0.456756591796875
2389.83947996624	0.45733642578125
2389.84947996621	0.4578857421875
2389.85947996619	0.458465576171875
2389.86947996616	0.45904541015625
2389.87947996613	0.459625244140625
2389.88947996611	0.460174560546875
