Time (s)	WE(1).Potential (V)
2455.2454018011	0.71685791015625
2455.25540180108	0.7159423828125
2455.26540180105	0.71502685546875
2455.27540180103	0.71380615234375
2455.285401801	0.712890625
2455.29540180098	0.71197509765625
2455.30540180095	0.71075439453125
2455.31540180092	0.7098388671875
2455.3254018009	0.70892333984375
2455.33540180087	0.7080078125
2455.34540180085	0.706787109375
2455.35540180082	0.70587158203125
2455.3654018008	0.7049560546875
2455.37540180077	0.70404052734375
2455.38540180075	0.703125
2455.39540180072	0.70220947265625
2455.4054018007	0.70098876953125
2455.41540180067	0.7000732421875
2455.42540180065	0.69915771484375
2455.43540180062	0.69793701171875
2455.4454018006	0.697021484375
2455.45540180057	0.69610595703125
2455.46540180055	0.6951904296875
2455.47540180052	0.6939697265625
2455.4854018005	0.69305419921875
2455.49540180047	0.692138671875
2455.50540180044	0.69122314453125
2455.51540180042	0.69000244140625
2455.52540180039	0.6890869140625
2455.53540180037	0.68817138671875
2455.54540180034	0.687255859375
2455.55540180032	0.68603515625
2455.56540180029	0.68511962890625
2455.57540180027	0.6842041015625
2455.58540180024	0.68328857421875
2455.59540180022	0.682373046875
2455.60540180019	0.68115234375
2455.61540180017	0.68023681640625
2455.62540180014	0.6793212890625
2455.63540180012	0.67840576171875
2455.64540180009	0.67718505859375
2455.65540180007	0.67626953125
2455.66540180004	0.67535400390625
2455.67540180002	0.6744384765625
2455.68540179999	0.67352294921875
2455.69540179997	0.67230224609375
2455.70540179994	0.67138671875
2455.71540179991	0.67047119140625
2455.72540179989	0.6695556640625
2455.73540179986	0.6683349609375
2455.74540179984	0.66741943359375
2455.75540179981	0.66650390625
2455.76540179979	0.66558837890625
2455.77540179976	0.6646728515625
2455.78540179974	0.6634521484375
2455.79540179971	0.66253662109375
2455.80540179969	0.66162109375
2455.81540179966	0.66070556640625
2455.82540179964	0.6597900390625
2455.83540179961	0.6585693359375
2455.84540179959	0.65765380859375
2455.85540179956	0.65673828125
2455.86540179954	0.65582275390625
2455.87540179951	0.6549072265625
2455.88540179949	0.65399169921875
2455.89540179946	0.65277099609375
2455.90540179943	0.65185546875
2455.91540179941	0.65093994140625
2455.92540179938	0.6500244140625
2455.93540179936	0.64910888671875
2455.94540179933	0.648193359375
2455.95540179931	0.64697265625
2455.96540179928	0.64605712890625
2455.97540179926	0.6451416015625
2455.98540179923	0.64422607421875
2455.99540179921	0.643310546875
2456.00540179918	0.64208984375
2456.01540179916	0.64117431640625
2456.02540179913	0.6402587890625
2456.03540179911	0.63934326171875
2456.04540179908	0.638427734375
2456.05540179906	0.63751220703125
2456.06540179903	0.6365966796875
2456.07540179901	0.6353759765625
2456.08540179898	0.63446044921875
2456.09540179896	0.633544921875
2456.10540179893	0.63262939453125
2456.1154017989	0.6317138671875
2456.12540179888	0.63079833984375
2456.13540179885	0.6298828125
2456.14540179883	0.628662109375
2456.1554017988	0.62774658203125
2456.16540179878	0.6268310546875
2456.17540179875	0.62591552734375
2456.18540179873	0.625
2456.1954017987	0.62408447265625
2456.20540179868	0.6231689453125
2456.21540179865	0.62225341796875
2456.22540179863	0.621337890625
2456.2354017986	0.62042236328125
2456.24540179858	0.6195068359375
2456.25540179855	0.6182861328125
2456.26540179853	0.61737060546875
2456.2754017985	0.616455078125
2456.28540179848	0.61553955078125
2456.29540179845	0.6146240234375
2456.30540179843	0.61370849609375
2456.3154017984	0.61279296875
2456.32540179837	0.61187744140625
2456.33540179835	0.6109619140625
2456.34540179832	0.6097412109375
2456.3554017983	0.60882568359375
2456.36540179827	0.60791015625
2456.37540179825	0.60699462890625
2456.38540179822	0.6060791015625
2456.3954017982	0.60516357421875
2456.40540179817	0.604248046875
2456.41540179815	0.60333251953125
2456.42540179812	0.6024169921875
2456.4354017981	0.60150146484375
2456.44540179807	0.6005859375
2456.45540179805	0.599365234375
2456.46540179802	0.59844970703125
2456.475401798	0.5975341796875
2456.48540179797	0.59661865234375
2456.49540179795	0.595703125
2456.50540179792	0.59478759765625
2456.51540179789	0.5938720703125
2456.52540179787	0.59295654296875
2456.53540179784	0.592041015625
2456.54540179782	0.59112548828125
2456.55540179779	0.5902099609375
2456.56540179777	0.5889892578125
2456.57540179774	0.58837890625
2456.58540179772	0.587158203125
2456.59540179769	0.58624267578125
2456.60540179767	0.5853271484375
2456.61540179764	0.58441162109375
2456.62540179762	0.58349609375
2456.63540179759	0.58258056640625
2456.64540179757	0.5816650390625
2456.65540179754	0.58074951171875
2456.66540179752	0.579833984375
2456.67540179749	0.57891845703125
2456.68540179747	0.5780029296875
2456.69540179744	0.57708740234375
2456.70540179742	0.576171875
2456.71540179739	0.57525634765625
2456.72540179736	0.5743408203125
2456.73540179734	0.57342529296875
2456.74540179731	0.572509765625
2456.75540179729	0.57159423828125
2456.76540179726	0.5706787109375
2456.77540179724	0.5694580078125
2456.78540179721	0.56884765625
2456.79540179719	0.56793212890625
2456.80540179716	0.56671142578125
2456.81540179714	0.56610107421875
2456.82540179711	0.56488037109375
2456.83540179709	0.56396484375
2456.84540179706	0.56304931640625
2456.85540179704	0.5621337890625
2456.86540179701	0.56121826171875
2456.87540179699	0.560302734375
2456.88540179696	0.55938720703125
2456.89540179694	0.5584716796875
2456.90540179691	0.557861328125
2456.91540179688	0.556640625
2456.92540179686	0.55572509765625
2456.93540179683	0.5548095703125
2456.94540179681	0.55419921875
2456.95540179678	0.55328369140625
2456.96540179676	0.5523681640625
2456.97540179673	0.55145263671875
2456.98540179671	0.550537109375
2456.99540179668	0.54962158203125
2457.00540179666	0.5487060546875
2457.01540179663	0.54779052734375
2457.02540179661	0.546875
2457.03540179658	0.54595947265625
2457.04540179656	0.5450439453125
2457.05540179653	0.54412841796875
2457.06540179651	0.543212890625
2457.07540179648	0.54229736328125
2457.08540179646	0.5413818359375
2457.09540179643	0.540771484375
2457.10540179641	0.53985595703125
2457.11540179638	0.5389404296875
2457.12540179635	0.53802490234375
2457.13540179633	0.537109375
2457.1454017963	0.53619384765625
2457.15540179628	0.5352783203125
2457.16540179625	0.53436279296875
2457.17540179623	0.533447265625
2457.1854017962	0.53253173828125
2457.19540179618	0.5316162109375
2457.20540179615	0.53070068359375
2457.21540179613	0.52978515625
2457.2254017961	0.52886962890625
2457.23540179608	0.5279541015625
2457.24540179605	0.52734375
2457.25540179603	0.52642822265625
2457.265401796	0.5255126953125
2457.27540179598	0.52459716796875
2457.28540179595	0.523681640625
2457.29540179593	0.52276611328125
2457.3054017959	0.5218505859375
2457.31540179588	0.52093505859375
2457.32540179585	0.52001953125
2457.33540179582	0.51910400390625
2457.3454017958	0.5181884765625
2457.35540179577	0.51727294921875
2457.36540179575	0.516357421875
2457.37540179572	0.51544189453125
2457.3854017957	0.51483154296875
2457.39540179567	0.513916015625
2457.40540179565	0.51300048828125
2457.41540179562	0.5120849609375
2457.4254017956	0.51116943359375
2457.43540179557	0.51025390625
2457.44540179555	0.50933837890625
2457.45540179552	0.5084228515625
2457.4654017955	0.50750732421875
2457.47540179547	0.506591796875
2457.48540179545	0.50567626953125
2457.49540179542	0.50506591796875
2457.5054017954	0.504150390625
2457.51540179537	0.50323486328125
2457.52540179534	0.5023193359375
2457.53540179532	0.50140380859375
2457.54540179529	0.50048828125
2457.55540179527	0.49957275390625
2457.56540179524	0.498870849609375
2457.57540179522	0.49798583984375
2457.58540179519	0.497100830078125
2457.59540179517	0.4962158203125
2457.60540179514	0.495361328125
2457.61540179512	0.494476318359375
2457.62540179509	0.49359130859375
2457.63540179507	0.49273681640625
2457.64540179504	0.49188232421875
2457.65540179502	0.490997314453125
2457.66540179499	0.4901123046875
2457.67540179497	0.4892578125
2457.68540179494	0.488372802734375
2457.69540179492	0.487518310546875
2457.70540179489	0.48663330078125
2457.71540179487	0.48577880859375
2457.72540179484	0.48492431640625
2457.73540179481	0.484100341796875
2457.74540179479	0.48321533203125
2457.75540179476	0.48236083984375
2457.76540179474	0.48150634765625
2457.77540179471	0.480621337890625
2457.78540179469	0.479766845703125
2457.79540179466	0.478912353515625
2457.80540179464	0.478057861328125
2457.81540179461	0.477203369140625
2457.82540179459	0.476348876953125
2457.83540179456	0.475494384765625
2457.84540179454	0.474639892578125
2457.85540179451	0.473785400390625
2457.86540179449	0.472930908203125
2457.87540179446	0.472076416015625
2457.88540179444	0.471221923828125
2457.89540179441	0.470367431640625
2457.90540179439	0.46954345703125
2457.91540179436	0.46868896484375
2457.92540179433	0.467864990234375
2457.93540179431	0.467010498046875
2457.94540179428	0.4661865234375
2457.95540179426	0.46533203125
2457.96540179423	0.4644775390625
2457.97540179421	0.463653564453125
2457.98540179418	0.462799072265625
2457.99540179416	0.46197509765625
2458.00540179413	0.461151123046875
2458.01540179411	0.460296630859375
2458.02540179408	0.45947265625
2458.03540179406	0.458648681640625
2458.04540179403	0.457794189453125
2458.05540179401	0.45697021484375
2458.06540179398	0.456146240234375
2458.07540179396	0.455291748046875
2458.08540179393	0.4544677734375
2458.09540179391	0.453643798828125
2458.10540179388	0.452880859375
2458.11540179386	0.452056884765625
2458.12540179383	0.45123291015625
2458.1354017938	0.450408935546875
2458.14540179378	0.4495849609375
2458.15540179375	0.448760986328125
2458.16540179373	0.44793701171875
2458.1754017937	0.447113037109375
2458.18540179368	0.446319580078125
2458.19540179365	0.44549560546875
2458.20540179363	0.4447021484375
2458.2154017936	0.443878173828125
2458.22540179358	0.44305419921875
2458.23540179355	0.4422607421875
2458.24540179353	0.441436767578125
2458.2554017935	0.440643310546875
2458.26540179348	0.439849853515625
2458.27540179345	0.43902587890625
2458.28540179343	0.438232421875
2458.2954017934	0.43743896484375
2458.30540179338	0.4366455078125
2458.31540179335	0.43585205078125
2458.32540179332	0.43505859375
2458.3354017933	0.43426513671875
2458.34540179327	0.4334716796875
2458.35540179325	0.432647705078125
2458.36540179322	0.431854248046875
2458.3754017932	0.43109130859375
2458.38540179317	0.4302978515625
2458.39540179315	0.42950439453125
2458.40540179312	0.428741455078125
2458.4154017931	0.427947998046875
2458.42540179307	0.427154541015625
2458.43540179305	0.4263916015625
2458.44540179302	0.42559814453125
2458.455401793	0.424835205078125
2458.46540179297	0.424041748046875
2458.47540179295	0.42327880859375
2458.48540179292	0.422515869140625
2458.4954017929	0.4217529296875
2458.50540179287	0.420989990234375
2458.51540179285	0.42022705078125
2458.52540179282	0.419464111328125
2458.53540179279	0.418701171875
2458.54540179277	0.417938232421875
2458.55540179274	0.41717529296875
2458.56540179272	0.416412353515625
2458.57540179269	0.4156494140625
2458.58540179267	0.414886474609375
2458.59540179264	0.41412353515625
2458.60540179262	0.41339111328125
2458.61540179259	0.412628173828125
2458.62540179257	0.411865234375
2458.63540179254	0.4111328125
2458.64540179252	0.410369873046875
2458.65540179249	0.40960693359375
2458.66540179247	0.40887451171875
2458.67540179244	0.40814208984375
2458.68540179242	0.407379150390625
2458.69540179239	0.406646728515625
2458.70540179237	0.405914306640625
2458.71540179234	0.405181884765625
2458.72540179232	0.404449462890625
2458.73540179229	0.403717041015625
2458.74540179226	0.4029541015625
2458.75540179224	0.4022216796875
2458.76540179221	0.4014892578125
2458.77540179219	0.4007568359375
2458.78540179216	0.4000244140625
2458.79540179214	0.3992919921875
2458.80540179211	0.3985595703125
2458.81540179209	0.397857666015625
2458.82540179206	0.397125244140625
2458.83540179204	0.396392822265625
2458.84540179201	0.395660400390625
2458.85540179199	0.394927978515625
2458.86540179196	0.39422607421875
2458.87540179194	0.39349365234375
2458.88540179191	0.39276123046875
2458.89540179189	0.392059326171875
2458.90540179186	0.391326904296875
2458.91540179184	0.390625
2458.92540179181	0.38995361328125
2458.93540179178	0.38922119140625
2458.94540179176	0.388519287109375
2458.95540179173	0.387786865234375
2458.96540179171	0.3870849609375
2458.97540179168	0.3863525390625
2458.98540179166	0.385650634765625
2458.99540179163	0.38494873046875
2459.00540179161	0.384246826171875
2459.01540179158	0.383514404296875
2459.02540179156	0.382843017578125
2459.03540179153	0.38214111328125
2459.04540179151	0.381439208984375
2459.05540179148	0.3807373046875
2459.06540179146	0.380035400390625
2459.07540179143	0.379302978515625
2459.08540179141	0.37860107421875
2459.09540179138	0.3779296875
2459.10540179136	0.377227783203125
2459.11540179133	0.37652587890625
2459.12540179131	0.375823974609375
2459.13540179128	0.375152587890625
2459.14540179125	0.37445068359375
2459.15540179123	0.373779296875
2459.1654017912	0.373077392578125
2459.17540179118	0.37237548828125
2459.18540179115	0.3717041015625
2459.19540179113	0.371002197265625
2459.2054017911	0.370330810546875
2459.21540179108	0.36962890625
2459.22540179105	0.36895751953125
2459.23540179103	0.368255615234375
2459.245401791	0.367584228515625
2459.25540179098	0.366912841796875
2459.26540179095	0.3662109375
2459.27540179093	0.36553955078125
2459.2854017909	0.3648681640625
2459.29540179088	0.364166259765625
2459.30540179085	0.363494873046875
2459.31540179083	0.362823486328125
2459.3254017908	0.362152099609375
2459.33540179077	0.361480712890625
2459.34540179075	0.36077880859375
2459.35540179072	0.360107421875
2459.3654017907	0.359466552734375
2459.37540179067	0.35882568359375
2459.38540179065	0.358123779296875
2459.39540179062	0.35748291015625
2459.4054017906	0.3568115234375
2459.41540179057	0.35614013671875
2459.42540179055	0.35546875
2459.43540179052	0.35479736328125
2459.4454017905	0.3541259765625
2459.45540179047	0.35345458984375
2459.46540179045	0.352783203125
2459.47540179042	0.352142333984375
2459.4854017904	0.351470947265625
2459.49540179037	0.350830078125
2459.50540179035	0.35015869140625
2459.51540179032	0.3494873046875
2459.5254017903	0.34881591796875
2459.53540179027	0.348175048828125
2459.54540179024	0.347503662109375
2459.55540179022	0.34686279296875
2459.56540179019	0.34619140625
2459.57540179017	0.345550537109375
2459.58540179014	0.344879150390625
2459.59540179012	0.34423828125
2459.60540179009	0.343597412109375
2459.61540179007	0.34295654296875
2459.62540179004	0.34228515625
2459.63540179002	0.341644287109375
2459.64540178999	0.34100341796875
2459.65540178997	0.34033203125
2459.66540178994	0.339691162109375
2459.67540178992	0.33905029296875
2459.68540178989	0.338409423828125
2459.69540178987	0.3377685546875
2459.70540178984	0.33709716796875
2459.71540178982	0.336456298828125
2459.72540178979	0.335845947265625
2459.73540178977	0.335205078125
2459.74540178974	0.334564208984375
2459.75540178971	0.33392333984375
2459.76540178969	0.333282470703125
2459.77540178966	0.3326416015625
2459.78540178964	0.332000732421875
2459.79540178961	0.33135986328125
2459.80540178959	0.330718994140625
2459.81540178956	0.330078125
2459.82540178954	0.3294677734375
2459.83540178951	0.328826904296875
2459.84540178949	0.328216552734375
2459.85540178946	0.327606201171875
2459.86540178944	0.32696533203125
2459.87540178941	0.32635498046875
2459.88540178939	0.325714111328125
2459.89540178936	0.325103759765625
2459.90540178934	0.324493408203125
2459.91540178931	0.3238525390625
2459.92540178929	0.3232421875
2459.93540178926	0.3226318359375
2459.94540178923	0.321990966796875
2459.95540178921	0.321380615234375
2459.96540178918	0.320770263671875
2459.97540178916	0.320159912109375
2459.98540178913	0.319549560546875
2459.99540178911	0.318939208984375
2460.00540178908	0.318328857421875
2460.01540178906	0.317718505859375
2460.02540178903	0.317138671875
2460.03540178901	0.3165283203125
2460.04540178898	0.31591796875
2460.05540178896	0.3153076171875
2460.06540178893	0.314727783203125
2460.07540178891	0.314117431640625
2460.08540178888	0.313507080078125
2460.09540178886	0.31292724609375
2460.10540178883	0.312347412109375
2460.11540178881	0.311767578125
2460.12540178878	0.3111572265625
2460.13540178876	0.310577392578125
2460.14540178873	0.30999755859375
2460.1554017887	0.30938720703125
2460.16540178868	0.308807373046875
2460.17540178865	0.3082275390625
2460.18540178863	0.307647705078125
2460.1954017886	0.30706787109375
2460.20540178858	0.306488037109375
2460.21540178855	0.305908203125
2460.22540178853	0.30535888671875
2460.2354017885	0.304779052734375
2460.24540178848	0.304229736328125
2460.25540178845	0.30364990234375
2460.26540178843	0.303070068359375
2460.2754017884	0.302520751953125
2460.28540178838	0.30194091796875
2460.29540178835	0.3013916015625
2460.30540178833	0.300811767578125
2460.3154017883	0.300262451171875
2460.32540178828	0.299713134765625
2460.33540178825	0.29913330078125
2460.34540178822	0.298583984375
2460.3554017882	0.29803466796875
2460.36540178817	0.2974853515625
2460.37540178815	0.29693603515625
2460.38540178812	0.296417236328125
2460.3954017881	0.295867919921875
2460.40540178807	0.295318603515625
2460.41540178805	0.294769287109375
2460.42540178802	0.294219970703125
2460.435401788	0.293701171875
2460.44540178797	0.29315185546875
2460.45540178795	0.2926025390625
2460.46540178792	0.29205322265625
2460.4754017879	0.291534423828125
2460.48540178787	0.290985107421875
2460.49540178785	0.290435791015625
2460.50540178782	0.2899169921875
2460.5154017878	0.28936767578125
2460.52540178777	0.288848876953125
2460.53540178775	0.288330078125
2460.54540178772	0.28778076171875
2460.55540178769	0.287261962890625
2460.56540178767	0.286712646484375
2460.57540178764	0.28619384765625
2460.58540178762	0.28564453125
2460.59540178759	0.285125732421875
2460.60540178757	0.284576416015625
2460.61540178754	0.2840576171875
2460.62540178752	0.283538818359375
2460.63540178749	0.282989501953125
2460.64540178747	0.282470703125
2460.65540178744	0.281951904296875
2460.66540178742	0.281402587890625
2460.67540178739	0.280914306640625
2460.68540178737	0.280364990234375
2460.69540178734	0.27984619140625
2460.70540178732	0.279296875
2460.71540178729	0.278778076171875
2460.72540178727	0.278228759765625
2460.73540178724	0.2777099609375
2460.74540178722	0.27716064453125
2460.75540178719	0.276641845703125
2460.76540178716	0.276092529296875
2460.77540178714	0.27557373046875
2460.78540178711	0.2750244140625
2460.79540178709	0.274505615234375
2460.80540178706	0.273956298828125
2460.81540178704	0.273406982421875
2460.82540178701	0.27288818359375
2460.83540178699	0.2723388671875
2460.84540178696	0.27178955078125
2460.85540178694	0.271240234375
2460.86540178691	0.270721435546875
2460.87540178689	0.270172119140625
2460.88540178686	0.269622802734375
2460.89540178684	0.269073486328125
2460.90540178681	0.26849365234375
2460.91540178679	0.2679443359375
2460.92540178676	0.26739501953125
2460.93540178674	0.266845703125
2460.94540178671	0.26629638671875
2460.95540178668	0.2657470703125
2460.96540178666	0.26519775390625
2460.97540178663	0.2646484375
2460.98540178661	0.264068603515625
2460.99540178658	0.263519287109375
2461.00540178656	0.262939453125
2461.01540178653	0.26239013671875
2461.02540178651	0.261810302734375
