Time (s)	WE(1).Potential (V)
2594.75928944886	0.61737060546875
2594.76928944884	0.615234375
2594.77928944881	0.61279296875
2594.78928944879	0.6103515625
2594.79928944876	0.60791015625
2594.80928944874	0.60546875
2594.81928944871	0.60302734375
2594.82928944869	0.6005859375
2594.83928944866	0.59814453125
2594.84928944864	0.59600830078125
2594.85928944861	0.59356689453125
2594.86928944858	0.59112548828125
2594.87928944856	0.58868408203125
2594.88928944853	0.58624267578125
2594.89928944851	0.5841064453125
2594.90928944848	0.5816650390625
2594.91928944846	0.5792236328125
2594.92928944843	0.5767822265625
2594.93928944841	0.57464599609375
2594.94928944838	0.57220458984375
2594.95928944836	0.56976318359375
2594.96928944833	0.567626953125
2594.97928944831	0.565185546875
2594.98928944828	0.56304931640625
2594.99928944826	0.56060791015625
2595.00928944823	0.55816650390625
2595.01928944821	0.5560302734375
2595.02928944818	0.5535888671875
2595.03928944816	0.55145263671875
2595.04928944813	0.54901123046875
2595.05928944811	0.546875
2595.06928944808	0.54473876953125
2595.07928944805	0.54229736328125
2595.08928944803	0.5401611328125
2595.099289448	0.5377197265625
2595.10928944798	0.53558349609375
2595.11928944795	0.53314208984375
2595.12928944793	0.531005859375
2595.1392894479	0.528564453125
2595.14928944788	0.52642822265625
2595.15928944785	0.5242919921875
2595.16928944783	0.5218505859375
2595.1792894478	0.51971435546875
2595.18928944778	0.51727294921875
2595.19928944775	0.51513671875
2595.20928944773	0.51300048828125
2595.2192894477	0.51055908203125
2595.22928944768	0.5084228515625
2595.23928944765	0.5059814453125
2595.24928944763	0.50384521484375
2595.2592894476	0.501708984375
2595.26928944757	0.49957275390625
2595.27928944755	0.497283935546875
2595.28928944752	0.49505615234375
2595.2992894475	0.492828369140625
2595.30928944747	0.490631103515625
2595.31928944745	0.488433837890625
2595.32928944742	0.4862060546875
2595.3392894474	0.484039306640625
2595.34928944737	0.48187255859375
2595.35928944735	0.47967529296875
2595.36928944732	0.47747802734375
2595.3792894473	0.475341796875
2595.38928944727	0.47314453125
2595.39928944725	0.470977783203125
2595.40928944722	0.468841552734375
2595.4192894472	0.466705322265625
2595.42928944717	0.46453857421875
2595.43928944715	0.46240234375
2595.44928944712	0.460296630859375
2595.4592894471	0.458160400390625
2595.46928944707	0.456024169921875
2595.47928944704	0.45391845703125
2595.48928944702	0.45184326171875
2595.49928944699	0.449737548828125
2595.50928944697	0.4476318359375
2595.51928944694	0.445556640625
2595.52928944692	0.443511962890625
2595.53928944689	0.44140625
2595.54928944687	0.439361572265625
2595.55928944684	0.43731689453125
2595.56928944682	0.435272216796875
2595.57928944679	0.4332275390625
2595.58928944677	0.431182861328125
2595.59928944674	0.42919921875
2595.60928944672	0.42718505859375
2595.61928944669	0.4251708984375
2595.62928944667	0.42315673828125
2595.63928944664	0.42120361328125
2595.64928944662	0.419219970703125
2595.65928944659	0.417266845703125
2595.66928944657	0.415283203125
2595.67928944654	0.413330078125
2595.68928944651	0.411407470703125
2595.69928944649	0.409454345703125
2595.70928944646	0.40753173828125
2595.71928944644	0.405609130859375
2595.72928944641	0.4036865234375
2595.73928944639	0.40179443359375
2595.74928944636	0.399871826171875
2595.75928944634	0.39801025390625
2595.76928944631	0.3961181640625
2595.77928944629	0.39422607421875
2595.78928944626	0.392364501953125
2595.79928944624	0.390533447265625
2595.80928944621	0.388671875
2595.81928944619	0.386810302734375
2595.82928944616	0.384979248046875
2595.83928944614	0.383148193359375
2595.84928944611	0.38134765625
2595.85928944609	0.3795166015625
2595.86928944606	0.377716064453125
2595.87928944603	0.375885009765625
2595.88928944601	0.374114990234375
2595.89928944598	0.372344970703125
2595.90928944596	0.37054443359375
2595.91928944593	0.3687744140625
2595.92928944591	0.367034912109375
2595.93928944588	0.365264892578125
2595.94928944586	0.363525390625
2595.95928944583	0.361785888671875
2595.96928944581	0.36004638671875
2595.97928944578	0.358367919921875
2595.98928944576	0.356658935546875
2595.99928944573	0.354949951171875
2596.00928944571	0.353240966796875
2596.01928944568	0.3515625
2596.02928944566	0.349853515625
2596.03928944563	0.348175048828125
2596.04928944561	0.346527099609375
2596.05928944558	0.3448486328125
2596.06928944556	0.343231201171875
2596.07928944553	0.341583251953125
2596.0892894455	0.339935302734375
2596.09928944548	0.33831787109375
2596.10928944545	0.336669921875
2596.11928944543	0.3350830078125
2596.1292894454	0.333465576171875
2596.13928944538	0.331878662109375
2596.14928944535	0.330291748046875
2596.15928944533	0.328704833984375
2596.1692894453	0.327178955078125
2596.17928944528	0.32562255859375
2596.18928944525	0.324066162109375
2596.19928944523	0.322540283203125
2596.2092894452	0.321014404296875
2596.21928944518	0.319488525390625
2596.22928944515	0.3179931640625
2596.23928944513	0.316497802734375
2596.2492894451	0.31500244140625
2596.25928944508	0.31353759765625
2596.26928944505	0.31207275390625
2596.27928944502	0.31060791015625
2596.289289445	0.30914306640625
2596.29928944497	0.307708740234375
2596.30928944495	0.3062744140625
2596.31928944492	0.30487060546875
2596.3292894449	0.303466796875
2596.33928944487	0.302032470703125
2596.34928944485	0.3006591796875
2596.35928944482	0.29925537109375
2596.3692894448	0.297882080078125
2596.37928944477	0.296539306640625
2596.38928944475	0.295166015625
2596.39928944472	0.2938232421875
2596.4092894447	0.29248046875
2596.41928944467	0.291107177734375
2596.42928944465	0.289794921875
2596.43928944462	0.2884521484375
2596.4492894446	0.287109375
2596.45928944457	0.285797119140625
2596.46928944455	0.284454345703125
2596.47928944452	0.28314208984375
2596.48928944449	0.28179931640625
2596.49928944447	0.280487060546875
2596.50928944444	0.2791748046875
2596.51928944442	0.27783203125
2596.52928944439	0.2764892578125
2596.53928944437	0.275146484375
2596.54928944434	0.2738037109375
2596.55928944432	0.2724609375
2596.56928944429	0.271087646484375
2596.57928944427	0.26971435546875
2596.58928944424	0.268341064453125
2596.59928944422	0.266937255859375
2596.60928944419	0.26556396484375
2596.61928944417	0.26416015625
2596.62928944414	0.262725830078125
2596.63928944412	0.26129150390625
2596.64928944409	0.259857177734375
2596.65928944407	0.258392333984375
2596.66928944404	0.256927490234375
2596.67928944402	0.25543212890625
2596.68928944399	0.253936767578125
2596.69928944396	0.252410888671875
2596.70928944394	0.25091552734375
2596.71928944391	0.2493896484375
2596.72928944389	0.24786376953125
2596.73928944386	0.246307373046875
2596.74928944384	0.2447509765625
2596.75928944381	0.2431640625
2596.76928944379	0.241607666015625
2596.77928944376	0.240020751953125
2596.78928944374	0.2384033203125
2596.79928944371	0.23681640625
2596.80928944369	0.235198974609375
2596.81928944366	0.233612060546875
2596.82928944364	0.23199462890625
2596.83928944361	0.230377197265625
2596.84928944359	0.228729248046875
2596.85928944356	0.227081298828125
2596.86928944354	0.2254638671875
2596.87928944351	0.223785400390625
2596.88928944348	0.222137451171875
2596.89928944346	0.220489501953125
2596.90928944343	0.21881103515625
2596.91928944341	0.2171630859375
2596.92928944338	0.215484619140625
2596.93928944336	0.21380615234375
2596.94928944333	0.212127685546875
2596.95928944331	0.21044921875
2596.96928944328	0.208770751953125
2596.97928944326	0.207061767578125
2596.98928944323	0.20538330078125
2596.99928944321	0.20367431640625
2597.00928944318	0.2020263671875
2597.01928944316	0.2003173828125
2597.02928944313	0.1986083984375
2597.03928944311	0.1968994140625
2597.04928944308	0.1951904296875
2597.05928944306	0.1934814453125
2597.06928944303	0.1917724609375
2597.07928944301	0.190032958984375
2597.08928944298	0.188323974609375
2597.09928944295	0.186614990234375
2597.10928944293	0.18487548828125
2597.1192894429	0.183135986328125
2597.12928944288	0.181396484375
2597.13928944285	0.179656982421875
2597.14928944283	0.177947998046875
2597.1592894428	0.17620849609375
2597.16928944278	0.1744384765625
2597.17928944275	0.172698974609375
2597.18928944273	0.170989990234375
2597.1992894427	0.169219970703125
2597.20928944268	0.167449951171875
2597.21928944265	0.16571044921875
2597.22928944263	0.1639404296875
2597.2392894426	0.16217041015625
2597.24928944258	0.160400390625
2597.25928944255	0.15863037109375
2597.26928944253	0.1568603515625
2597.2792894425	0.15509033203125
2597.28928944247	0.1533203125
2597.29928944245	0.151519775390625
2597.30928944242	0.14971923828125
2597.3192894424	0.14794921875
2597.32928944237	0.146148681640625
2597.33928944235	0.14434814453125
2597.34928944232	0.14251708984375
2597.3592894423	0.1407470703125
2597.36928944227	0.138946533203125
2597.37928944225	0.13714599609375
2597.38928944222	0.13531494140625
2597.3992894422	0.13348388671875
2597.40928944217	0.131683349609375
2597.41928944215	0.12982177734375
2597.42928944212	0.12799072265625
2597.4392894421	0.12615966796875
2597.44928944207	0.12432861328125
2597.45928944205	0.12249755859375
2597.46928944202	0.120635986328125
2597.479289442	0.118804931640625
2597.48928944197	0.116943359375
2597.49928944194	0.115081787109375
2597.50928944192	0.11322021484375
2597.51928944189	0.111358642578125
2597.52928944187	0.109527587890625
2597.53928944184	0.107666015625
2597.54928944182	0.105804443359375
2597.55928944179	0.103912353515625
2597.56928944177	0.10205078125
2597.57928944174	0.100189208984375
2597.58928944172	0.098297119140625
2597.59928944169	0.096405029296875
2597.60928944167	0.09454345703125
2597.61928944164	0.092681884765625
2597.62928944162	0.090789794921875
2597.63928944159	0.088897705078125
2597.64928944157	0.087005615234375
2597.65928944154	0.08514404296875
2597.66928944152	0.083251953125
2597.67928944149	0.08135986328125
2597.68928944147	0.0794677734375
2597.69928944144	0.077606201171875
2597.70928944141	0.075714111328125
2597.71928944139	0.073822021484375
2597.72928944136	0.071929931640625
2597.73928944134	0.070037841796875
2597.74928944131	0.06817626953125
2597.75928944129	0.066253662109375
2597.76928944126	0.064361572265625
2597.77928944124	0.0625
2597.78928944121	0.06060791015625
2597.79928944119	0.0587158203125
2597.80928944116	0.05682373046875
2597.81928944114	0.054931640625
2597.82928944111	0.05303955078125
2597.83928944109	0.0511474609375
2597.84928944106	0.04925537109375
2597.85928944104	0.0473724365234375
2597.86928944101	0.0454803466796875
2597.87928944099	0.04359130859375
2597.88928944096	0.0416961669921875
2597.89928944093	0.03980712890625
2597.90928944091	0.0379119873046875
2597.91928944088	0.0360198974609375
2597.92928944086	0.0341278076171875
2597.93928944083	0.0322357177734375
2597.94928944081	0.030340576171875
2597.95928944078	0.028448486328125
2597.96928944076	0.0265533447265625
2597.97928944073	0.0246612548828125
2597.98928944071	0.0227691650390625
2597.99928944068	0.0208740234375
2598.00928944066	0.018988037109375
2598.01928944063	0.0170989990234375
2598.02928944061	0.0152099609375
2598.03928944058	0.0133209228515625
2598.04928944056	0.0114349365234375
2598.05928944053	0.009552001953125
2598.06928944051	0.00766601562499999
2598.07928944048	0.0057861328125
2598.08928944046	0.0039031982421875
2598.09928944043	0.0020263671875
2598.1092894404	0.000149536132812503
2598.11928944038	-0.0017242431640625
2598.12928944035	-0.0035980224609375
2598.13928944033	-0.00546874999999999
2598.1492894403	-0.00733642578125
