Time (s)	WE(1).Potential (V)
2217.65157640097	0.071807861328125
2217.66157640094	0.072540283203125
2217.67157640092	0.073272705078125
2217.68157640089	0.073974609375
2217.69157640087	0.07470703125
2217.70157640084	0.075408935546875
2217.71157640082	0.076141357421875
2217.72157640079	0.076873779296875
2217.73157640077	0.07757568359375
2217.74157640074	0.0782470703125
2217.75157640072	0.078948974609375
2217.76157640069	0.07965087890625
2217.77157640067	0.08038330078125
2217.78157640064	0.081085205078125
2217.79157640061	0.081787109375
2217.80157640059	0.08251953125
2217.81157640056	0.083221435546875
2217.82157640054	0.08392333984375
2217.83157640051	0.084625244140625
2217.84157640049	0.0853271484375
2217.85157640046	0.086029052734375
2217.86157640044	0.086700439453125
2217.87157640041	0.08740234375
2217.88157640039	0.088104248046875
2217.89157640036	0.08880615234375
2217.90157640034	0.089508056640625
2217.91157640031	0.090179443359375
2217.92157640029	0.09088134765625
2217.93157640026	0.091583251953125
2217.94157640024	0.092254638671875
2217.95157640021	0.09295654296875
2217.96157640019	0.0936279296875
2217.97157640016	0.09429931640625
2217.98157640014	0.095001220703125
2217.99157640011	0.095672607421875
2218.00157640008	0.09637451171875
2218.01157640006	0.0970458984375
2218.02157640003	0.097747802734375
2218.03157640001	0.098419189453125
2218.04157639998	0.099090576171875
2218.05157639996	0.099761962890625
2218.06157639993	0.1004638671875
2218.07157639991	0.10113525390625
2218.08157639988	0.101806640625
2218.09157639986	0.102447509765625
2218.10157639983	0.1031494140625
2218.11157639981	0.10382080078125
2218.12157639978	0.1044921875
2218.13157639976	0.10516357421875
2218.14157639973	0.1058349609375
2218.15157639971	0.106475830078125
2218.16157639968	0.107177734375
2218.17157639966	0.107818603515625
2218.18157639963	0.108489990234375
2218.1915763996	0.109161376953125
2218.20157639958	0.109771728515625
2218.21157639955	0.110443115234375
2218.22157639953	0.111083984375
2218.2315763995	0.11175537109375
2218.24157639948	0.1124267578125
2218.25157639945	0.113067626953125
2218.26157639943	0.113739013671875
2218.2715763994	0.1143798828125
2218.28157639938	0.11505126953125
2218.29157639935	0.115692138671875
2218.30157639933	0.116363525390625
2218.3115763993	0.11700439453125
2218.32157639928	0.117645263671875
2218.33157639925	0.1182861328125
2218.34157639923	0.118927001953125
2218.3515763992	0.11956787109375
2218.36157639918	0.1202392578125
2218.37157639915	0.120880126953125
2218.38157639913	0.12152099609375
2218.3915763991	0.122161865234375
2218.40157639907	0.122802734375
2218.41157639905	0.123443603515625
2218.42157639902	0.12408447265625
2218.431576399	0.124725341796875
2218.44157639897	0.125335693359375
2218.45157639895	0.1259765625
2218.46157639892	0.126617431640625
2218.4715763989	0.127227783203125
2218.48157639887	0.12786865234375
2218.49157639885	0.128509521484375
2218.50157639882	0.129150390625
2218.5115763988	0.1297607421875
2218.52157639877	0.130401611328125
2218.53157639875	0.131011962890625
2218.54157639872	0.13165283203125
2218.5515763987	0.132293701171875
2218.56157639867	0.132904052734375
2218.57157639865	0.133514404296875
2218.58157639862	0.1341552734375
2218.59157639859	0.134765625
2218.60157639857	0.1353759765625
2218.61157639854	0.136016845703125
2218.62157639852	0.136627197265625
2218.63157639849	0.137237548828125
2218.64157639847	0.137847900390625
2218.65157639844	0.13848876953125
2218.66157639842	0.13909912109375
2218.67157639839	0.13970947265625
2218.68157639837	0.14031982421875
2218.69157639834	0.140899658203125
2218.70157639832	0.141510009765625
2218.71157639829	0.142120361328125
2218.72157639827	0.142730712890625
2218.73157639824	0.143341064453125
2218.74157639822	0.143951416015625
2218.75157639819	0.144561767578125
2218.76157639817	0.1451416015625
2218.77157639814	0.145751953125
2218.78157639812	0.1463623046875
2218.79157639809	0.14697265625
2218.80157639806	0.1475830078125
2218.81157639804	0.148162841796875
2218.82157639801	0.148773193359375
2218.83157639799	0.14935302734375
2218.84157639796	0.14996337890625
2218.85157639794	0.150543212890625
2218.86157639791	0.151153564453125
2218.87157639789	0.1517333984375
2218.88157639786	0.15234375
2218.89157639784	0.152923583984375
2218.90157639781	0.153533935546875
2218.91157639779	0.15411376953125
2218.92157639776	0.15472412109375
2218.93157639774	0.155303955078125
2218.94157639771	0.1558837890625
2218.95157639769	0.156463623046875
2218.96157639766	0.15704345703125
2218.97157639764	0.157623291015625
2218.98157639761	0.158203125
2218.99157639759	0.158782958984375
2219.00157639756	0.159393310546875
2219.01157639753	0.15997314453125
2219.02157639751	0.160552978515625
2219.03157639748	0.1611328125
2219.04157639746	0.161712646484375
2219.05157639743	0.16229248046875
2219.06157639741	0.162872314453125
2219.07157639738	0.1634521484375
2219.08157639736	0.16400146484375
2219.09157639733	0.164581298828125
2219.10157639731	0.1651611328125
2219.11157639728	0.16571044921875
2219.12157639726	0.166290283203125
2219.13157639723	0.1668701171875
2219.14157639721	0.167449951171875
2219.15157639718	0.167999267578125
2219.16157639716	0.1685791015625
2219.17157639713	0.169158935546875
2219.18157639711	0.169708251953125
2219.19157639708	0.1702880859375
2219.20157639705	0.17083740234375
2219.21157639703	0.171417236328125
2219.221576397	0.17193603515625
2219.23157639698	0.1724853515625
2219.24157639695	0.173065185546875
2219.25157639693	0.173614501953125
2219.2615763969	0.174163818359375
2219.27157639688	0.174713134765625
2219.28157639685	0.17529296875
2219.29157639683	0.17584228515625
2219.3015763968	0.1763916015625
2219.31157639678	0.17694091796875
2219.32157639675	0.177520751953125
2219.33157639673	0.178070068359375
2219.3415763967	0.178619384765625
2219.35157639668	0.179168701171875
2219.36157639665	0.1796875
2219.37157639663	0.18023681640625
2219.3815763966	0.1807861328125
2219.39157639658	0.18133544921875
2219.40157639655	0.181884765625
2219.41157639652	0.18243408203125
2219.4215763965	0.1829833984375
2219.43157639647	0.183502197265625
2219.44157639645	0.184051513671875
2219.45157639642	0.184600830078125
2219.4615763964	0.18511962890625
2219.47157639637	0.1856689453125
2219.48157639635	0.186187744140625
2219.49157639632	0.186737060546875
2219.5015763963	0.187286376953125
2219.51157639627	0.187774658203125
2219.52157639625	0.188323974609375
2219.53157639622	0.1888427734375
2219.5415763962	0.18939208984375
2219.55157639617	0.189910888671875
2219.56157639615	0.1904296875
2219.57157639612	0.190948486328125
2219.5815763961	0.191497802734375
2219.59157639607	0.1920166015625
2219.60157639604	0.192535400390625
2219.61157639602	0.19305419921875
2219.62157639599	0.193572998046875
2219.63157639597	0.194091796875
2219.64157639594	0.194610595703125
2219.65157639592	0.19512939453125
2219.66157639589	0.195648193359375
2219.67157639587	0.1961669921875
2219.68157639584	0.196685791015625
2219.69157639582	0.197174072265625
2219.70157639579	0.19769287109375
2219.71157639577	0.198211669921875
2219.72157639574	0.198699951171875
2219.73157639572	0.19921875
2219.74157639569	0.199737548828125
2219.75157639567	0.20025634765625
2219.76157639564	0.20074462890625
2219.77157639562	0.201263427734375
2219.78157639559	0.201751708984375
2219.79157639557	0.2022705078125
2219.80157639554	0.2027587890625
2219.81157639551	0.203216552734375
2219.82157639549	0.203704833984375
2219.83157639546	0.2042236328125
2219.84157639544	0.2047119140625
2219.85157639541	0.2052001953125
2219.86157639539	0.205718994140625
2219.87157639536	0.206207275390625
2219.88157639534	0.206695556640625
2219.89157639531	0.207183837890625
2219.90157639529	0.207672119140625
2219.91157639526	0.208160400390625
2219.92157639524	0.208648681640625
2219.93157639521	0.209136962890625
2219.94157639519	0.209625244140625
2219.95157639516	0.210113525390625
2219.96157639514	0.210601806640625
2219.97157639511	0.2110595703125
2219.98157639509	0.2115478515625
2219.99157639506	0.2120361328125
2220.00157639504	0.212493896484375
2220.01157639501	0.212982177734375
2220.02157639498	0.213470458984375
2220.03157639496	0.21392822265625
2220.04157639493	0.21441650390625
2220.05157639491	0.21490478515625
2220.06157639488	0.215362548828125
2220.07157639486	0.215850830078125
2220.08157639483	0.21630859375
2220.09157639481	0.216766357421875
2220.10157639478	0.217254638671875
2220.11157639476	0.21771240234375
2220.12157639473	0.21820068359375
2220.13157639471	0.218658447265625
2220.14157639468	0.219085693359375
2220.15157639466	0.21954345703125
2220.16157639463	0.22003173828125
2220.17157639461	0.220489501953125
2220.18157639458	0.220947265625
2220.19157639456	0.221405029296875
2220.20157639453	0.22186279296875
2220.2115763945	0.222320556640625
2220.22157639448	0.2227783203125
2220.23157639445	0.223236083984375
2220.24157639443	0.22369384765625
2220.2515763944	0.224151611328125
2220.26157639438	0.224609375
2220.27157639435	0.225067138671875
2220.28157639433	0.22552490234375
2220.2915763943	0.2259521484375
2220.30157639428	0.226409912109375
2220.31157639425	0.226837158203125
2220.32157639423	0.227294921875
2220.3315763942	0.227752685546875
2220.34157639418	0.228179931640625
2220.35157639415	0.2286376953125
2220.36157639413	0.229095458984375
2220.3715763941	0.229522705078125
2220.38157639408	0.22998046875
2220.39157639405	0.23040771484375
2220.40157639403	0.230865478515625
2220.411576394	0.231292724609375
2220.42157639397	0.23175048828125
2220.43157639395	0.232177734375
2220.44157639392	0.23260498046875
2220.4515763939	0.233062744140625
2220.46157639387	0.233489990234375
2220.47157639385	0.233917236328125
2220.48157639382	0.234344482421875
2220.4915763938	0.2347412109375
2220.50157639377	0.23516845703125
2220.51157639375	0.235595703125
2220.52157639372	0.23602294921875
2220.5315763937	0.2364501953125
2220.54157639367	0.23687744140625
2220.55157639365	0.2373046875
2220.56157639362	0.23773193359375
2220.5715763936	0.2381591796875
2220.58157639357	0.23858642578125
2220.59157639355	0.239013671875
2220.60157639352	0.23944091796875
2220.61157639349	0.239837646484375
2220.62157639347	0.240264892578125
2220.63157639344	0.240692138671875
2220.64157639342	0.2410888671875
2220.65157639339	0.24151611328125
2220.66157639337	0.241943359375
2220.67157639334	0.242340087890625
2220.68157639332	0.242767333984375
2220.69157639329	0.2431640625
2220.70157639327	0.24359130859375
2220.71157639324	0.243988037109375
2220.72157639322	0.244415283203125
2220.73157639319	0.24481201171875
2220.74157639317	0.245208740234375
2220.75157639314	0.245635986328125
2220.76157639312	0.24603271484375
2220.77157639309	0.246429443359375
2220.78157639307	0.246856689453125
2220.79157639304	0.24725341796875
2220.80157639302	0.247650146484375
2220.81157639299	0.248046875
2220.82157639296	0.24847412109375
2220.83157639294	0.248870849609375
2220.84157639291	0.249267578125
2220.85157639289	0.249664306640625
2220.86157639286	0.250030517578125
2220.87157639284	0.25042724609375
2220.88157639281	0.250823974609375
2220.89157639279	0.251220703125
2220.90157639276	0.251617431640625
2220.91157639274	0.25201416015625
2220.92157639271	0.252410888671875
2220.93157639269	0.252777099609375
2220.94157639266	0.253173828125
2220.95157639264	0.253570556640625
2220.96157639261	0.25396728515625
2220.97157639259	0.254364013671875
2220.98157639256	0.2547607421875
2220.99157639254	0.255126953125
2221.00157639251	0.255523681640625
2221.01157639249	0.25592041015625
2221.02157639246	0.25628662109375
2221.03157639243	0.256683349609375
2221.04157639241	0.257080078125
2221.05157639238	0.2574462890625
2221.06157639236	0.257843017578125
2221.07157639233	0.258209228515625
2221.08157639231	0.25860595703125
2221.09157639228	0.25897216796875
2221.10157639226	0.259368896484375
2221.11157639223	0.259735107421875
2221.12157639221	0.2601318359375
2221.13157639218	0.260498046875
2221.14157639216	0.260894775390625
2221.15157639213	0.261260986328125
2221.16157639211	0.26165771484375
2221.17157639208	0.26202392578125
2221.18157639206	0.26239013671875
2221.19157639203	0.262786865234375
2221.20157639201	0.263153076171875
2221.21157639198	0.263519287109375
2221.22157639195	0.263916015625
2221.23157639193	0.2642822265625
2221.2415763919	0.2646484375
2221.25157639188	0.2650146484375
2221.26157639185	0.265411376953125
2221.27157639183	0.2657470703125
2221.2815763918	0.26611328125
2221.29157639178	0.2664794921875
2221.30157639175	0.266845703125
2221.31157639173	0.2672119140625
2221.3215763917	0.267578125
2221.33157639168	0.2679443359375
2221.34157639165	0.268310546875
2221.35157639163	0.2686767578125
2221.3615763916	0.26904296875
2221.37157639158	0.2694091796875
2221.38157639155	0.269775390625
2221.39157639153	0.2701416015625
2221.4015763915	0.2705078125
2221.41157639148	0.2708740234375
2221.42157639145	0.271240234375
2221.43157639142	0.2716064453125
2221.4415763914	0.27197265625
2221.45157639137	0.2723388671875
2221.46157639135	0.272705078125
2221.47157639132	0.273040771484375
2221.4815763913	0.273406982421875
2221.49157639127	0.273773193359375
2221.50157639125	0.27410888671875
2221.51157639122	0.27447509765625
2221.5215763912	0.27484130859375
2221.53157639117	0.275177001953125
2221.54157639115	0.275543212890625
2221.55157639112	0.275909423828125
2221.5615763911	0.276275634765625
2221.57157639107	0.276611328125
2221.58157639105	0.2769775390625
2221.59157639102	0.27734375
2221.601576391	0.277679443359375
2221.61157639097	0.278045654296875
2221.62157639094	0.27838134765625
2221.63157639092	0.27874755859375
2221.64157639089	0.27911376953125
2221.65157639087	0.279449462890625
2221.66157639084	0.279815673828125
2221.67157639082	0.2801513671875
2221.68157639079	0.280517578125
2221.69157639077	0.280853271484375
2221.70157639074	0.281219482421875
2221.71157639072	0.281524658203125
2221.72157639069	0.281890869140625
2221.73157639067	0.2822265625
2221.74157639064	0.2825927734375
2221.75157639062	0.282928466796875
2221.76157639059	0.283294677734375
2221.77157639057	0.28363037109375
2221.78157639054	0.283966064453125
2221.79157639052	0.284332275390625
2221.80157639049	0.28466796875
2221.81157639047	0.2850341796875
2221.82157639044	0.285369873046875
2221.83157639041	0.28570556640625
2221.84157639039	0.28607177734375
2221.85157639036	0.286407470703125
2221.86157639034	0.286773681640625
2221.87157639031	0.287109375
2221.88157639029	0.287445068359375
2221.89157639026	0.287811279296875
2221.90157639024	0.28814697265625
2221.91157639021	0.288482666015625
2221.92157639019	0.288848876953125
2221.93157639016	0.2891845703125
2221.94157639014	0.289520263671875
2221.95157639011	0.289886474609375
2221.96157639009	0.29022216796875
2221.97157639006	0.290557861328125
2221.98157639004	0.290924072265625
2221.99157639001	0.291259765625
2222.00157638999	0.291595458984375
2222.01157638996	0.291961669921875
2222.02157638994	0.29229736328125
2222.03157638991	0.292633056640625
2222.04157638988	0.292999267578125
2222.05157638986	0.2933349609375
2222.06157638983	0.293701171875
2222.07157638981	0.294036865234375
2222.08157638978	0.29437255859375
2222.09157638976	0.29473876953125
2222.10157638973	0.295074462890625
2222.11157638971	0.295440673828125
2222.12157638968	0.2957763671875
2222.13157638966	0.296142578125
2222.14157638963	0.296478271484375
2222.15157638961	0.29681396484375
2222.16157638958	0.297149658203125
2222.17157638956	0.2974853515625
2222.18157638953	0.297821044921875
2222.19157638951	0.298187255859375
2222.20157638948	0.29852294921875
2222.21157638946	0.29888916015625
2222.22157638943	0.299224853515625
2222.2315763894	0.299591064453125
2222.24157638938	0.2999267578125
2222.25157638935	0.30029296875
2222.26157638933	0.300628662109375
2222.2715763893	0.300994873046875
2222.28157638928	0.30133056640625
2222.29157638925	0.30169677734375
2222.30157638923	0.302032470703125
2222.3115763892	0.302398681640625
2222.32157638918	0.302764892578125
2222.33157638915	0.3031005859375
2222.34157638913	0.303466796875
2222.3515763891	0.303802490234375
2222.36157638908	0.304168701171875
2222.37157638905	0.304534912109375
2222.38157638903	0.30487060546875
2222.391576389	0.30523681640625
2222.40157638898	0.305572509765625
2222.41157638895	0.305938720703125
2222.42157638893	0.3062744140625
2222.4315763889	0.306640625
2222.44157638887	0.3070068359375
2222.45157638885	0.307373046875
2222.46157638882	0.307708740234375
2222.4715763888	0.308074951171875
2222.48157638877	0.308441162109375
2222.49157638875	0.30877685546875
2222.50157638872	0.30914306640625
2222.5115763887	0.30950927734375
2222.52157638867	0.30987548828125
2222.53157638865	0.310211181640625
2222.54157638862	0.310577392578125
2222.5515763886	0.310943603515625
2222.56157638857	0.311309814453125
2222.57157638855	0.311676025390625
2222.58157638852	0.31201171875
2222.5915763885	0.3123779296875
2222.60157638847	0.312713623046875
2222.61157638845	0.313079833984375
2222.62157638842	0.313446044921875
2222.63157638839	0.313812255859375
2222.64157638837	0.314178466796875
2222.65157638834	0.314544677734375
2222.66157638832	0.314910888671875
2222.67157638829	0.31524658203125
2222.68157638827	0.31561279296875
2222.69157638824	0.31597900390625
2222.70157638822	0.31634521484375
2222.71157638819	0.31671142578125
2222.72157638817	0.31707763671875
2222.73157638814	0.31744384765625
2222.74157638812	0.31781005859375
2222.75157638809	0.31817626953125
2222.76157638807	0.31854248046875
2222.77157638804	0.31890869140625
2222.78157638802	0.31927490234375
2222.79157638799	0.31964111328125
2222.80157638797	0.32000732421875
2222.81157638794	0.32037353515625
2222.82157638792	0.320709228515625
2222.83157638789	0.321075439453125
2222.84157638786	0.321441650390625
2222.85157638784	0.321807861328125
2222.86157638781	0.322174072265625
2222.87157638779	0.322540283203125
2222.88157638776	0.322906494140625
2222.89157638774	0.323272705078125
2222.90157638771	0.323638916015625
2222.91157638769	0.324005126953125
2222.92157638766	0.32440185546875
2222.93157638764	0.32476806640625
2222.94157638761	0.32513427734375
2222.95157638759	0.32550048828125
2222.96157638756	0.32586669921875
2222.97157638754	0.32623291015625
2222.98157638751	0.32659912109375
2222.99157638749	0.32696533203125
2223.00157638746	0.32733154296875
2223.01157638744	0.32769775390625
2223.02157638741	0.32806396484375
2223.03157638739	0.328399658203125
2223.04157638736	0.328765869140625
2223.05157638733	0.329132080078125
2223.06157638731	0.329498291015625
2223.07157638728	0.329864501953125
2223.08157638726	0.330230712890625
2223.09157638723	0.330596923828125
2223.10157638721	0.330963134765625
2223.11157638718	0.331329345703125
2223.12157638716	0.331695556640625
2223.13157638713	0.332061767578125
2223.14157638711	0.332427978515625
2223.15157638708	0.332794189453125
2223.16157638706	0.333160400390625
2223.17157638703	0.333526611328125
2223.18157638701	0.333892822265625
2223.19157638698	0.334259033203125
2223.20157638696	0.334625244140625
2223.21157638693	0.334991455078125
2223.22157638691	0.335357666015625
2223.23157638688	0.335723876953125
2223.24157638685	0.336090087890625
2223.25157638683	0.336456298828125
2223.2615763868	0.336822509765625
2223.27157638678	0.337188720703125
2223.28157638675	0.337554931640625
2223.29157638673	0.337921142578125
2223.3015763867	0.338287353515625
2223.31157638668	0.338653564453125
2223.32157638665	0.339019775390625
2223.33157638663	0.339385986328125
2223.3415763866	0.339752197265625
2223.35157638658	0.340118408203125
2223.36157638655	0.340484619140625
2223.37157638653	0.340850830078125
2223.3815763865	0.341217041015625
2223.39157638648	0.341583251953125
2223.40157638645	0.341949462890625
2223.41157638643	0.342315673828125
2223.4215763864	0.342681884765625
2223.43157638638	0.343048095703125
2223.44157638635	0.343414306640625
2223.45157638632	0.343780517578125
2223.4615763863	0.3441162109375
2223.47157638627	0.344482421875
2223.48157638625	0.3448486328125
2223.49157638622	0.34521484375
2223.5015763862	0.3455810546875
2223.51157638617	0.345947265625
2223.52157638615	0.3463134765625
2223.53157638612	0.3466796875
2223.5415763861	0.347015380859375
2223.55157638607	0.347381591796875
2223.56157638605	0.347747802734375
2223.57157638602	0.348114013671875
2223.581576386	0.348480224609375
2223.59157638597	0.348846435546875
2223.60157638595	0.349212646484375
2223.61157638592	0.349578857421875
2223.6215763859	0.349945068359375
2223.63157638587	0.350311279296875
2223.64157638584	0.350677490234375
2223.65157638582	0.35101318359375
2223.66157638579	0.35137939453125
2223.67157638577	0.35174560546875
2223.68157638574	0.35211181640625
2223.69157638572	0.352447509765625
2223.70157638569	0.352813720703125
2223.71157638567	0.353179931640625
2223.72157638564	0.353546142578125
2223.73157638562	0.353912353515625
2223.74157638559	0.354278564453125
2223.75157638557	0.3546142578125
2223.76157638554	0.35498046875
2223.77157638552	0.3553466796875
2223.78157638549	0.355712890625
2223.79157638547	0.3560791015625
2223.80157638544	0.3564453125
2223.81157638542	0.356781005859375
2223.82157638539	0.357147216796875
2223.83157638537	0.357513427734375
2223.84157638534	0.357879638671875
2223.85157638531	0.358245849609375
2223.86157638529	0.358612060546875
2223.87157638526	0.35894775390625
2223.88157638524	0.35931396484375
2223.89157638521	0.359649658203125
2223.90157638519	0.3599853515625
2223.91157638516	0.3603515625
2223.92157638514	0.3607177734375
2223.93157638511	0.361083984375
2223.94157638509	0.361419677734375
2223.95157638506	0.361785888671875
2223.96157638504	0.362152099609375
2223.97157638501	0.362518310546875
2223.98157638499	0.362884521484375
2223.99157638496	0.363250732421875
2224.00157638494	0.36358642578125
2224.01157638491	0.36395263671875
2224.02157638489	0.36431884765625
2224.03157638486	0.36468505859375
2224.04157638484	0.365020751953125
2224.05157638481	0.365386962890625
2224.06157638478	0.365753173828125
2224.07157638476	0.366119384765625
2224.08157638473	0.366455078125
2224.09157638471	0.3668212890625
2224.10157638468	0.3671875
2224.11157638466	0.367523193359375
2224.12157638463	0.367889404296875
2224.13157638461	0.368255615234375
2224.14157638458	0.368621826171875
2224.15157638456	0.36895751953125
2224.16157638453	0.36932373046875
2224.17157638451	0.36968994140625
2224.18157638448	0.37005615234375
2224.19157638446	0.370391845703125
2224.20157638443	0.370758056640625
2224.21157638441	0.371124267578125
2224.22157638438	0.371490478515625
2224.23157638436	0.371856689453125
2224.24157638433	0.3721923828125
2224.2515763843	0.37255859375
2224.26157638428	0.3729248046875
2224.27157638425	0.373291015625
2224.28157638423	0.373626708984375
2224.2915763842	0.373992919921875
2224.30157638418	0.374359130859375
2224.31157638415	0.374725341796875
2224.32157638413	0.37506103515625
2224.3315763841	0.375396728515625
2224.34157638408	0.375762939453125
2224.35157638405	0.376129150390625
2224.36157638403	0.376495361328125
2224.371576384	0.376861572265625
2224.38157638398	0.377197265625
2224.39157638395	0.3775634765625
2224.40157638393	0.3779296875
2224.4115763839	0.3782958984375
2224.42157638388	0.378631591796875
2224.43157638385	0.378997802734375
2224.44157638383	0.379364013671875
2224.4515763838	0.379730224609375
2224.46157638377	0.380096435546875
2224.47157638375	0.38043212890625
2224.48157638372	0.38079833984375
2224.4915763837	0.38116455078125
2224.50157638367	0.38153076171875
2224.51157638365	0.38189697265625
2224.52157638362	0.382232666015625
2224.5315763836	0.382598876953125
2224.54157638357	0.382965087890625
2224.55157638355	0.38330078125
2224.56157638352	0.3836669921875
2224.5715763835	0.384033203125
2224.58157638347	0.3843994140625
2224.59157638345	0.384765625
2224.60157638342	0.385101318359375
2224.6115763834	0.385467529296875
2224.62157638337	0.385833740234375
2224.63157638335	0.386199951171875
2224.64157638332	0.386566162109375
2224.65157638329	0.386932373046875
2224.66157638327	0.38726806640625
2224.67157638324	0.38763427734375
2224.68157638322	0.38800048828125
2224.69157638319	0.38836669921875
2224.70157638317	0.38873291015625
2224.71157638314	0.38909912109375
2224.72157638312	0.389434814453125
2224.73157638309	0.389801025390625
2224.74157638307	0.390167236328125
2224.75157638304	0.390533447265625
2224.76157638302	0.390838623046875
2224.77157638299	0.391204833984375
2224.78157638297	0.391571044921875
2224.79157638294	0.391937255859375
2224.80157638292	0.392303466796875
2224.81157638289	0.392669677734375
2224.82157638287	0.39300537109375
2224.83157638284	0.39337158203125
2224.84157638282	0.39373779296875
2224.85157638279	0.39410400390625
2224.86157638276	0.39447021484375
2224.87157638274	0.39483642578125
2224.88157638271	0.395172119140625
2224.89157638269	0.395538330078125
2224.90157638266	0.395904541015625
2224.91157638264	0.396270751953125
2224.92157638261	0.396636962890625
2224.93157638259	0.39697265625
2224.94157638256	0.3973388671875
2224.95157638254	0.397705078125
2224.96157638251	0.3980712890625
2224.97157638249	0.3984375
2224.98157638246	0.398773193359375
2224.99157638244	0.399139404296875
2225.00157638241	0.399505615234375
2225.01157638239	0.399871826171875
2225.02157638236	0.40020751953125
2225.03157638234	0.40057373046875
2225.04157638231	0.40093994140625
2225.05157638229	0.40130615234375
2225.06157638226	0.40167236328125
2225.07157638223	0.40203857421875
2225.08157638221	0.402374267578125
2225.09157638218	0.402740478515625
2225.10157638216	0.403106689453125
2225.11157638213	0.403472900390625
2225.12157638211	0.403839111328125
2225.13157638208	0.4041748046875
2225.14157638206	0.404541015625
2225.15157638203	0.4049072265625
2225.16157638201	0.4052734375
2225.17157638198	0.4056396484375
2225.18157638196	0.406005859375
2225.19157638193	0.406341552734375
2225.20157638191	0.40667724609375
2225.21157638188	0.40704345703125
2225.22157638186	0.40740966796875
2225.23157638183	0.40777587890625
2225.24157638181	0.408111572265625
2225.25157638178	0.408477783203125
2225.26157638175	0.408843994140625
2225.27157638173	0.409210205078125
2225.2815763817	0.4095458984375
2225.29157638168	0.409912109375
2225.30157638165	0.4102783203125
2225.31157638163	0.41064453125
2225.3215763816	0.4110107421875
2225.33157638158	0.411346435546875
2225.34157638155	0.411712646484375
2225.35157638153	0.412078857421875
2225.3615763815	0.41241455078125
2225.37157638148	0.41278076171875
2225.38157638145	0.41314697265625
2225.39157638143	0.41351318359375
2225.4015763814	0.413848876953125
2225.41157638138	0.414215087890625
2225.42157638135	0.41455078125
2225.43157638133	0.4149169921875
2225.4415763813	0.415283203125
2225.45157638128	0.415618896484375
2225.46157638125	0.415985107421875
2225.47157638122	0.416351318359375
2225.4815763812	0.416717529296875
2225.49157638117	0.41705322265625
2225.50157638115	0.41741943359375
2225.51157638112	0.41778564453125
2225.5215763811	0.418121337890625
2225.53157638107	0.418487548828125
2225.54157638105	0.418853759765625
2225.55157638102	0.419189453125
2225.561576381	0.4195556640625
2225.57157638097	0.419921875
2225.58157638095	0.420257568359375
2225.59157638092	0.420623779296875
2225.6015763809	0.420989990234375
2225.61157638087	0.421356201171875
2225.62157638085	0.42169189453125
2225.63157638082	0.422027587890625
2225.6415763808	0.42236328125
2225.65157638077	0.4227294921875
2225.66157638074	0.423065185546875
2225.67157638072	0.423431396484375
2225.68157638069	0.423797607421875
2225.69157638067	0.42413330078125
2225.70157638064	0.42449951171875
2225.71157638062	0.42486572265625
2225.72157638059	0.425201416015625
2225.73157638057	0.425567626953125
2225.74157638054	0.425933837890625
2225.75157638052	0.42626953125
2225.76157638049	0.4266357421875
2225.77157638047	0.427001953125
2225.78157638044	0.427337646484375
2225.79157638042	0.427703857421875
2225.80157638039	0.428070068359375
2225.81157638037	0.42840576171875
2225.82157638034	0.42877197265625
2225.83157638032	0.429107666015625
2225.84157638029	0.429473876953125
2225.85157638027	0.4298095703125
2225.86157638024	0.43017578125
2225.87157638021	0.4305419921875
2225.88157638019	0.430877685546875
2225.89157638016	0.431243896484375
2225.90157638014	0.43157958984375
2225.91157638011	0.43194580078125
2225.92157638009	0.43231201171875
2225.93157638006	0.432647705078125
2225.94157638004	0.433013916015625
2225.95157638001	0.433380126953125
2225.96157637999	0.4337158203125
2225.97157637996	0.43408203125
2225.98157637994	0.4344482421875
2225.99157637991	0.434783935546875
2226.00157637989	0.435150146484375
2226.01157637986	0.435516357421875
2226.02157637984	0.43585205078125
2226.03157637981	0.43621826171875
2226.04157637979	0.436553955078125
2226.05157637976	0.436920166015625
2226.06157637974	0.437286376953125
2226.07157637971	0.4376220703125
2226.08157637968	0.43798828125
2226.09157637966	0.438323974609375
2226.10157637963	0.438690185546875
2226.11157637961	0.439056396484375
2226.12157637958	0.43939208984375
2226.13157637956	0.43975830078125
2226.14157637953	0.44012451171875
2226.15157637951	0.440460205078125
2226.16157637948	0.440826416015625
2226.17157637946	0.441162109375
2226.18157637943	0.4415283203125
2226.19157637941	0.44189453125
2226.20157637938	0.4422607421875
2226.21157637936	0.442596435546875
2226.22157637933	0.442962646484375
2226.23157637931	0.443328857421875
2226.24157637928	0.44366455078125
2226.25157637926	0.44403076171875
2226.26157637923	0.44439697265625
2226.2715763792	0.44476318359375
2226.28157637918	0.445098876953125
2226.29157637915	0.4454345703125
2226.30157637913	0.44580078125
2226.3115763791	0.4461669921875
2226.32157637908	0.446502685546875
2226.33157637905	0.446868896484375
2226.34157637903	0.447235107421875
2226.351576379	0.447601318359375
2226.36157637898	0.44793701171875
2226.37157637895	0.44830322265625
2226.38157637893	0.44866943359375
2226.3915763789	0.449005126953125
2226.40157637888	0.449371337890625
2226.41157637885	0.449737548828125
2226.42157637883	0.450103759765625
2226.4315763788	0.450439453125
2226.44157637878	0.4508056640625
2226.45157637875	0.451171875
2226.46157637873	0.4515380859375
2226.4715763787	0.451904296875
2226.48157637867	0.452239990234375
2226.49157637865	0.452606201171875
2226.50157637862	0.452972412109375
2226.5115763786	0.453277587890625
2226.52157637857	0.453643798828125
2226.53157637855	0.454010009765625
2226.54157637852	0.454345703125
2226.5515763785	0.4547119140625
2226.56157637847	0.455078125
2226.57157637845	0.4554443359375
2226.58157637842	0.455810546875
2226.5915763784	0.456146240234375
2226.60157637837	0.456512451171875
2226.61157637835	0.456878662109375
2226.62157637832	0.457244873046875
2226.6315763783	0.457611083984375
2226.64157637827	0.45794677734375
2226.65157637825	0.45831298828125
2226.66157637822	0.45867919921875
2226.67157637819	0.45904541015625
2226.68157637817	0.45941162109375
2226.69157637814	0.459747314453125
2226.70157637812	0.460113525390625
2226.71157637809	0.460479736328125
2226.72157637807	0.460845947265625
2226.73157637804	0.461181640625
2226.74157637802	0.4615478515625
2226.75157637799	0.4619140625
2226.76157637797	0.4622802734375
2226.77157637794	0.462615966796875
2226.78157637792	0.462982177734375
2226.79157637789	0.463348388671875
2226.80157637787	0.463714599609375
2226.81157637784	0.464080810546875
2226.82157637782	0.464447021484375
2226.83157637779	0.464813232421875
2226.84157637777	0.46514892578125
2226.85157637774	0.46551513671875
2226.86157637772	0.46588134765625
2226.87157637769	0.46624755859375
2226.88157637766	0.46661376953125
2226.89157637764	0.46697998046875
2226.90157637761	0.46734619140625
2226.91157637759	0.467681884765625
2226.92157637756	0.468048095703125
2226.93157637754	0.468414306640625
2226.94157637751	0.468780517578125
2226.95157637749	0.4691162109375
2226.96157637746	0.469482421875
2226.97157637744	0.4698486328125
2226.98157637741	0.47021484375
2226.99157637739	0.4705810546875
2227.00157637736	0.470916748046875
2227.01157637734	0.471282958984375
2227.02157637731	0.471649169921875
2227.03157637729	0.472015380859375
2227.04157637726	0.472381591796875
2227.05157637724	0.472747802734375
2227.06157637721	0.473114013671875
2227.07157637719	0.473480224609375
2227.08157637716	0.473846435546875
2227.09157637713	0.474212646484375
2227.10157637711	0.474578857421875
2227.11157637708	0.474945068359375
2227.12157637706	0.475311279296875
2227.13157637703	0.475677490234375
2227.14157637701	0.476043701171875
2227.15157637698	0.476409912109375
2227.16157637696	0.47674560546875
2227.17157637693	0.47711181640625
2227.18157637691	0.47747802734375
2227.19157637688	0.47784423828125
2227.20157637686	0.47821044921875
2227.21157637683	0.47857666015625
2227.22157637681	0.47894287109375
2227.23157637678	0.47930908203125
2227.24157637676	0.47967529296875
2227.25157637673	0.48004150390625
2227.26157637671	0.48040771484375
2227.27157637668	0.48077392578125
2227.28157637665	0.48114013671875
2227.29157637663	0.48150634765625
2227.3015763766	0.48187255859375
2227.31157637658	0.48223876953125
2227.32157637655	0.48260498046875
2227.33157637653	0.48297119140625
2227.3415763765	0.48333740234375
2227.35157637648	0.48370361328125
2227.36157637645	0.48406982421875
2227.37157637643	0.484405517578125
2227.3815763764	0.484771728515625
2227.39157637638	0.485137939453125
2227.40157637635	0.485504150390625
2227.41157637633	0.485870361328125
2227.4215763763	0.486236572265625
2227.43157637628	0.486602783203125
2227.44157637625	0.486968994140625
2227.45157637623	0.487335205078125
2227.4615763762	0.487701416015625
2227.47157637618	0.488067626953125
2227.48157637615	0.488433837890625
2227.49157637612	0.48883056640625
2227.5015763761	0.48919677734375
2227.51157637607	0.48956298828125
2227.52157637605	0.48992919921875
2227.53157637602	0.49029541015625
2227.541576376	0.49066162109375
2227.55157637597	0.49102783203125
2227.56157637595	0.49139404296875
2227.57157637592	0.49176025390625
2227.5815763759	0.49212646484375
2227.59157637587	0.49249267578125
2227.60157637585	0.49285888671875
2227.61157637582	0.49322509765625
2227.6215763758	0.49359130859375
2227.63157637577	0.493988037109375
2227.64157637575	0.494354248046875
2227.65157637572	0.494720458984375
2227.6615763757	0.495086669921875
2227.67157637567	0.495452880859375
2227.68157637564	0.495819091796875
2227.69157637562	0.4962158203125
2227.70157637559	0.49658203125
2227.71157637557	0.4969482421875
2227.72157637554	0.497314453125
2227.73157637552	0.4976806640625
2227.74157637549	0.498077392578125
2227.75157637547	0.498443603515625
2227.76157637544	0.498809814453125
2227.77157637542	0.499176025390625
2227.78157637539	0.499542236328125
2227.79157637537	0.4998779296875
2227.80157637534	0.50018310546875
2227.81157637532	0.50048828125
2227.82157637529	0.5010986328125
2227.83157637527	0.50140380859375
2227.84157637524	0.501708984375
2227.85157637522	0.50201416015625
2227.86157637519	0.5023193359375
2227.87157637517	0.5029296875
2227.88157637514	0.50323486328125
2227.89157637511	0.5035400390625
2227.90157637509	0.50384521484375
2227.91157637506	0.50445556640625
2227.92157637504	0.5047607421875
2227.93157637501	0.50506591796875
2227.94157637499	0.50537109375
2227.95157637496	0.50567626953125
2227.96157637494	0.50628662109375
2227.97157637491	0.506591796875
2227.98157637489	0.50689697265625
2227.99157637486	0.5072021484375
2228.00157637484	0.5078125
2228.01157637481	0.50811767578125
2228.02157637479	0.5084228515625
2228.03157637476	0.50872802734375
2228.04157637474	0.50933837890625
2228.05157637471	0.5096435546875
2228.06157637469	0.50994873046875
2228.07157637466	0.51025390625
2228.08157637464	0.5108642578125
2228.09157637461	0.51116943359375
2228.10157637458	0.511474609375
2228.11157637456	0.51177978515625
2228.12157637453	0.5120849609375
2228.13157637451	0.5126953125
2228.14157637448	0.51300048828125
2228.15157637446	0.5133056640625
2228.16157637443	0.51361083984375
2228.17157637441	0.51422119140625
2228.18157637438	0.5145263671875
2228.19157637436	0.51483154296875
2228.20157637433	0.51513671875
2228.21157637431	0.5157470703125
2228.22157637428	0.51605224609375
2228.23157637426	0.516357421875
2228.24157637423	0.51666259765625
2228.25157637421	0.5169677734375
2228.26157637418	0.517578125
2228.27157637416	0.51788330078125
2228.28157637413	0.5181884765625
2228.2915763741	0.51849365234375
2228.30157637408	0.51910400390625
2228.31157637405	0.5194091796875
2228.32157637403	0.51971435546875
2228.331576374	0.52001953125
2228.34157637398	0.5206298828125
2228.35157637395	0.52093505859375
2228.36157637393	0.521240234375
2228.3715763739	0.52154541015625
2228.38157637388	0.5218505859375
2228.39157637385	0.5224609375
2228.40157637383	0.52276611328125
2228.4115763738	0.5230712890625
2228.42157637378	0.52337646484375
2228.43157637375	0.52398681640625
2228.44157637373	0.5242919921875
2228.4515763737	0.52459716796875
2228.46157637368	0.52490234375
2228.47157637365	0.5255126953125
2228.48157637363	0.52581787109375
2228.4915763736	0.526123046875
2228.50157637357	0.52642822265625
2228.51157637355	0.52703857421875
2228.52157637352	0.52734375
2228.5315763735	0.52764892578125
2228.54157637347	0.5279541015625
2228.55157637345	0.52825927734375
2228.56157637342	0.52886962890625
2228.5715763734	0.5291748046875
2228.58157637337	0.52947998046875
2228.59157637335	0.52978515625
2228.60157637332	0.5303955078125
2228.6115763733	0.53070068359375
2228.62157637327	0.531005859375
2228.63157637325	0.5316162109375
2228.64157637322	0.53192138671875
2228.6515763732	0.5322265625
2228.66157637317	0.53253173828125
2228.67157637315	0.5328369140625
2228.68157637312	0.533447265625
2228.69157637309	0.53375244140625
2228.70157637307	0.5340576171875
2228.71157637304	0.53436279296875
2228.72157637302	0.53466796875
2228.73157637299	0.5352783203125
2228.74157637297	0.53558349609375
2228.75157637294	0.535888671875
2228.76157637292	0.53619384765625
2228.77157637289	0.53680419921875
2228.78157637287	0.537109375
2228.79157637284	0.53741455078125
2228.80157637282	0.5377197265625
2228.81157637279	0.538330078125
2228.82157637277	0.53863525390625
2228.83157637274	0.5389404296875
2228.84157637272	0.53924560546875
2228.85157637269	0.53985595703125
2228.86157637267	0.5401611328125
2228.87157637264	0.54046630859375
2228.88157637262	0.540771484375
2228.89157637259	0.5413818359375
2228.90157637256	0.54168701171875
2228.91157637254	0.5419921875
2228.92157637251	0.54229736328125
2228.93157637249	0.5426025390625
2228.94157637246	0.543212890625
2228.95157637244	0.54351806640625
2228.96157637241	0.5438232421875
2228.97157637239	0.54412841796875
2228.98157637236	0.54473876953125
2228.99157637234	0.5450439453125
2229.00157637231	0.54534912109375
2229.01157637229	0.54595947265625
2229.02157637226	0.5462646484375
2229.03157637224	0.54656982421875
2229.04157637221	0.546875
2229.05157637219	0.54718017578125
2229.06157637216	0.5474853515625
2229.07157637214	0.54779052734375
2229.08157637211	0.54840087890625
2229.09157637209	0.5487060546875
2229.10157637206	0.54901123046875
2229.11157637203	0.54931640625
2229.12157637201	0.5499267578125
2229.13157637198	0.55023193359375
2229.14157637196	0.550537109375
2229.15157637193	0.55084228515625
2229.16157637191	0.5511474609375
2229.17157637188	0.5517578125
2229.18157637186	0.55206298828125
2229.19157637183	0.5523681640625
2229.20157637181	0.55267333984375
2229.21157637178	0.55328369140625
2229.22157637176	0.5535888671875
2229.23157637173	0.55389404296875
2229.24157637171	0.55419921875
2229.25157637168	0.5548095703125
2229.26157637166	0.55511474609375
2229.27157637163	0.555419921875
2229.28157637161	0.55572509765625
2229.29157637158	0.55633544921875
2229.30157637155	0.556640625
2229.31157637153	0.55694580078125
2229.3215763715	0.5572509765625
2229.33157637148	0.55755615234375
2229.34157637145	0.55816650390625
2229.35157637143	0.5584716796875
2229.3615763714	0.55877685546875
2229.37157637138	0.55908203125
2229.38157637135	0.5596923828125
2229.39157637133	0.55999755859375
2229.4015763713	0.560302734375
2229.41157637128	0.56060791015625
2229.42157637125	0.56121826171875
2229.43157637123	0.5615234375
2229.4415763712	0.56182861328125
2229.45157637118	0.5621337890625
2229.46157637115	0.562744140625
2229.47157637113	0.56304931640625
2229.4815763711	0.5633544921875
2229.49157637108	0.56365966796875
2229.50157637105	0.56427001953125
2229.51157637102	0.5645751953125
2229.521576371	0.56488037109375
2229.53157637097	0.565185546875
2229.54157637095	0.56549072265625
2229.55157637092	0.56610107421875
2229.5615763709	0.56640625
2229.57157637087	0.56671142578125
2229.58157637085	0.5670166015625
2229.59157637082	0.567626953125
2229.6015763708	0.56793212890625
2229.61157637077	0.5682373046875
2229.62157637075	0.56854248046875
2229.63157637072	0.56915283203125
2229.6415763707	0.5694580078125
2229.65157637067	0.56976318359375
2229.66157637065	0.570068359375
2229.67157637062	0.5706787109375
2229.6815763706	0.57098388671875
2229.69157637057	0.5712890625
2229.70157637054	0.57159423828125
2229.71157637052	0.5718994140625
2229.72157637049	0.572509765625
2229.73157637047	0.57281494140625
2229.74157637044	0.5731201171875
2229.75157637042	0.57342529296875
2229.76157637039	0.57403564453125
2229.77157637037	0.5743408203125
2229.78157637034	0.57464599609375
2229.79157637032	0.574951171875
2229.80157637029	0.5755615234375
2229.81157637027	0.57586669921875
2229.82157637024	0.576171875
2229.83157637022	0.57647705078125
2229.84157637019	0.5767822265625
2229.85157637017	0.577392578125
2229.86157637014	0.57769775390625
2229.87157637012	0.5780029296875
2229.88157637009	0.57830810546875
2229.89157637007	0.57891845703125
2229.90157637004	0.5792236328125
2229.91157637001	0.57952880859375
2229.92157636999	0.579833984375
2229.93157636996	0.5804443359375
2229.94157636994	0.58074951171875
2229.95157636991	0.5810546875
2229.96157636989	0.58135986328125
2229.97157636986	0.5816650390625
2229.98157636984	0.582275390625
2229.99157636981	0.58258056640625
2230.00157636979	0.5828857421875
2230.01157636976	0.58319091796875
2230.02157636974	0.58380126953125
2230.03157636971	0.5841064453125
2230.04157636969	0.58441162109375
2230.05157636966	0.584716796875
2230.06157636964	0.5853271484375
2230.07157636961	0.58563232421875
2230.08157636959	0.5859375
2230.09157636956	0.58624267578125
2230.10157636953	0.5865478515625
2230.11157636951	0.587158203125
2230.12157636948	0.58746337890625
2230.13157636946	0.5877685546875
2230.14157636943	0.58807373046875
2230.15157636941	0.58868408203125
2230.16157636938	0.5889892578125
2230.17157636936	0.58929443359375
2230.18157636933	0.589599609375
2230.19157636931	0.5902099609375
2230.20157636928	0.59051513671875
2230.21157636926	0.5908203125
2230.22157636923	0.59112548828125
2230.23157636921	0.5914306640625
2230.24157636918	0.592041015625
2230.25157636916	0.59234619140625
2230.26157636913	0.5926513671875
2230.27157636911	0.59295654296875
2230.28157636908	0.59326171875
2230.29157636906	0.5938720703125
2230.30157636903	0.59417724609375
2230.311576369	0.594482421875
2230.32157636898	0.5950927734375
2230.33157636895	0.59539794921875
2230.34157636893	0.595703125
2230.3515763689	0.59600830078125
2230.36157636888	0.5963134765625
2230.37157636885	0.596923828125
2230.38157636883	0.59722900390625
2230.3915763688	0.5975341796875
2230.40157636878	0.59783935546875
2230.41157636875	0.59814453125
2230.42157636873	0.5987548828125
2230.4315763687	0.59906005859375
2230.44157636868	0.599365234375
2230.45157636865	0.59967041015625
2230.46157636863	0.5999755859375
2230.4715763686	0.6005859375
2230.48157636858	0.60089111328125
2230.49157636855	0.6011962890625
2230.50157636853	0.60150146484375
2230.5115763685	0.60211181640625
2230.52157636847	0.6024169921875
2230.53157636845	0.60272216796875
2230.54157636842	0.60302734375
2230.5515763684	0.60333251953125
2230.56157636837	0.60394287109375
2230.57157636835	0.604248046875
2230.58157636832	0.60455322265625
2230.5915763683	0.6048583984375
2230.60157636827	0.60516357421875
2230.61157636825	0.60577392578125
2230.62157636822	0.6060791015625
2230.6315763682	0.60638427734375
2230.64157636817	0.606689453125
2230.65157636815	0.6072998046875
2230.66157636812	0.60760498046875
2230.6715763681	0.60791015625
2230.68157636807	0.60821533203125
2230.69157636805	0.6085205078125
2230.70157636802	0.60882568359375
2230.71157636799	0.60943603515625
2230.72157636797	0.6097412109375
2230.73157636794	0.61004638671875
2230.74157636792	0.6103515625
2230.75157636789	0.61065673828125
2230.76157636787	0.61126708984375
2230.77157636784	0.611572265625
2230.78157636782	0.61187744140625
2230.79157636779	0.6121826171875
2230.80157636777	0.61248779296875
2230.81157636774	0.61309814453125
2230.82157636772	0.6134033203125
2230.83157636769	0.61370849609375
2230.84157636767	0.614013671875
2230.85157636764	0.61431884765625
2230.86157636762	0.61492919921875
2230.87157636759	0.615234375
2230.88157636757	0.61553955078125
2230.89157636754	0.6158447265625
2230.90157636752	0.61614990234375
2230.91157636749	0.61676025390625
2230.92157636746	0.6170654296875
2230.93157636744	0.61737060546875
2230.94157636741	0.61767578125
2230.95157636739	0.61798095703125
2230.96157636736	0.6182861328125
2230.97157636734	0.618896484375
2230.98157636731	0.61920166015625
2230.99157636729	0.6195068359375
2231.00157636726	0.61981201171875
2231.01157636724	0.6201171875
2231.02157636721	0.6207275390625
2231.03157636719	0.62103271484375
2231.04157636716	0.621337890625
2231.05157636714	0.62164306640625
2231.06157636711	0.6219482421875
2231.07157636709	0.62225341796875
2231.08157636706	0.62286376953125
2231.09157636704	0.6231689453125
2231.10157636701	0.62347412109375
2231.11157636698	0.623779296875
2231.12157636696	0.6243896484375
2231.13157636693	0.62469482421875
2231.14157636691	0.625
2231.15157636688	0.62530517578125
2231.16157636686	0.6256103515625
2231.17157636683	0.62591552734375
2231.18157636681	0.626220703125
2231.19157636678	0.62652587890625
2231.20157636676	0.6268310546875
2231.21157636673	0.62713623046875
2231.22157636671	0.62774658203125
2231.23157636668	0.6280517578125
2231.24157636666	0.62835693359375
2231.25157636663	0.628662109375
2231.26157636661	0.62896728515625
2231.27157636658	0.6292724609375
2231.28157636656	0.6298828125
2231.29157636653	0.63018798828125
2231.30157636651	0.6304931640625
2231.31157636648	0.63079833984375
2231.32157636645	0.631103515625
2231.33157636643	0.63140869140625
2231.3415763664	0.63201904296875
2231.35157636638	0.63232421875
2231.36157636635	0.63262939453125
2231.37157636633	0.6329345703125
2231.3815763663	0.63323974609375
2231.39157636628	0.633544921875
2231.40157636625	0.63385009765625
2231.41157636623	0.63446044921875
2231.4215763662	0.634765625
2231.43157636618	0.63507080078125
2231.44157636615	0.6353759765625
2231.45157636613	0.63568115234375
2231.4615763661	0.635986328125
2231.47157636608	0.6365966796875
2231.48157636605	0.63690185546875
2231.49157636603	0.63720703125
2231.501576366	0.63751220703125
2231.51157636598	0.6378173828125
2231.52157636595	0.63812255859375
2231.53157636592	0.638427734375
2231.5415763659	0.6390380859375
2231.55157636587	0.63934326171875
2231.56157636585	0.6396484375
2231.57157636582	0.63995361328125
2231.5815763658	0.6402587890625
2231.59157636577	0.64056396484375
2231.60157636575	0.640869140625
2231.61157636572	0.6414794921875
2231.6215763657	0.64178466796875
2231.63157636567	0.64208984375
2231.64157636565	0.64239501953125
2231.65157636562	0.6427001953125
2231.6615763656	0.64300537109375
2231.67157636557	0.643310546875
2231.68157636555	0.6439208984375
2231.69157636552	0.64422607421875
2231.7015763655	0.64453125
2231.71157636547	0.64483642578125
2231.72157636544	0.6451416015625
2231.73157636542	0.64544677734375
2231.74157636539	0.645751953125
2231.75157636537	0.64605712890625
2231.76157636534	0.64666748046875
2231.77157636532	0.64697265625
2231.78157636529	0.64727783203125
2231.79157636527	0.6475830078125
2231.80157636524	0.64788818359375
2231.81157636522	0.648193359375
2231.82157636519	0.64849853515625
2231.83157636517	0.6488037109375
2231.84157636514	0.6494140625
2231.85157636512	0.64971923828125
2231.86157636509	0.6500244140625
2231.87157636507	0.65032958984375
2231.88157636504	0.650634765625
2231.89157636502	0.65093994140625
2231.90157636499	0.6512451171875
2231.91157636497	0.65155029296875
2231.92157636494	0.65216064453125
2231.93157636491	0.6524658203125
2231.94157636489	0.65277099609375
2231.95157636486	0.653076171875
2231.96157636484	0.65338134765625
2231.97157636481	0.6536865234375
2231.98157636479	0.65399169921875
2231.99157636476	0.654296875
2232.00157636474	0.65460205078125
2232.01157636471	0.65521240234375
2232.02157636469	0.655517578125
2232.03157636466	0.65582275390625
2232.04157636464	0.6561279296875
2232.05157636461	0.65643310546875
2232.06157636459	0.65673828125
2232.07157636456	0.65704345703125
2232.08157636454	0.6573486328125
2232.09157636451	0.657958984375
2232.10157636449	0.65826416015625
2232.11157636446	0.6585693359375
2232.12157636443	0.65887451171875
2232.13157636441	0.6591796875
2232.14157636438	0.65948486328125
2232.15157636436	0.6597900390625
2232.16157636433	0.66009521484375
2232.17157636431	0.660400390625
2232.18157636428	0.66070556640625
2232.19157636426	0.6610107421875
2232.20157636423	0.66162109375
2232.21157636421	0.66192626953125
2232.22157636418	0.6622314453125
2232.23157636416	0.66253662109375
2232.24157636413	0.662841796875
2232.25157636411	0.66314697265625
2232.26157636408	0.6634521484375
2232.27157636406	0.66375732421875
2232.28157636403	0.6640625
2232.29157636401	0.6646728515625
2232.30157636398	0.66497802734375
2232.31157636396	0.665283203125
2232.32157636393	0.66558837890625
2232.3315763639	0.6658935546875
2232.34157636388	0.66619873046875
2232.35157636385	0.66650390625
2232.36157636383	0.66680908203125
2232.3715763638	0.6671142578125
2232.38157636378	0.667724609375
2232.39157636375	0.66802978515625
2232.40157636373	0.6683349609375
2232.4115763637	0.66864013671875
2232.42157636368	0.6689453125
2232.43157636365	0.66925048828125
2232.44157636363	0.6695556640625
2232.4515763636	0.66986083984375
2232.46157636358	0.670166015625
2232.47157636355	0.67047119140625
2232.48157636353	0.6707763671875
2232.4915763635	0.67108154296875
2232.50157636348	0.67138671875
2232.51157636345	0.67169189453125
2232.52157636343	0.67230224609375
2232.5315763634	0.672607421875
2232.54157636337	0.67291259765625
2232.55157636335	0.6732177734375
2232.56157636332	0.67352294921875
2232.5715763633	0.673828125
2232.58157636327	0.67413330078125
2232.59157636325	0.6744384765625
2232.60157636322	0.67474365234375
2232.6115763632	0.675048828125
2232.62157636317	0.67535400390625
2232.63157636315	0.67596435546875
2232.64157636312	0.67626953125
2232.6515763631	0.67657470703125
2232.66157636307	0.6768798828125
2232.67157636305	0.67718505859375
2232.68157636302	0.677490234375
2232.691576363	0.67779541015625
2232.70157636297	0.6781005859375
2232.71157636295	0.67840576171875
2232.72157636292	0.6787109375
2232.73157636289	0.67901611328125
2232.74157636287	0.6793212890625
2232.75157636284	0.67962646484375
2232.76157636282	0.68023681640625
2232.77157636279	0.6805419921875
2232.78157636277	0.68084716796875
2232.79157636274	0.68115234375
2232.80157636272	0.68145751953125
2232.81157636269	0.6817626953125
2232.82157636267	0.68206787109375
2232.83157636264	0.682373046875
2232.84157636262	0.68267822265625
2232.85157636259	0.6829833984375
2232.86157636257	0.68328857421875
2232.87157636254	0.68359375
2232.88157636252	0.68389892578125
2232.89157636249	0.6842041015625
2232.90157636247	0.68450927734375
2232.91157636244	0.684814453125
2232.92157636242	0.6854248046875
2232.93157636239	0.68572998046875
2232.94157636236	0.68603515625
2232.95157636234	0.68634033203125
2232.96157636231	0.6866455078125
2232.97157636229	0.68695068359375
2232.98157636226	0.687255859375
2232.99157636224	0.68756103515625
2233.00157636221	0.6878662109375
2233.01157636219	0.68817138671875
2233.02157636216	0.6884765625
2233.03157636214	0.68878173828125
2233.04157636211	0.6890869140625
2233.05157636209	0.68939208984375
2233.06157636206	0.689697265625
2233.07157636204	0.69000244140625
2233.08157636201	0.6903076171875
2233.09157636199	0.69061279296875
2233.10157636196	0.69091796875
2233.11157636194	0.69122314453125
2233.12157636191	0.69183349609375
2233.13157636188	0.692138671875
2233.14157636186	0.69244384765625
2233.15157636183	0.6927490234375
2233.16157636181	0.69305419921875
2233.17157636178	0.693359375
2233.18157636176	0.69366455078125
2233.19157636173	0.6939697265625
2233.20157636171	0.69427490234375
2233.21157636168	0.694580078125
2233.22157636166	0.69488525390625
2233.23157636163	0.6951904296875
2233.24157636161	0.69549560546875
2233.25157636158	0.69580078125
2233.26157636156	0.69610595703125
2233.27157636153	0.6964111328125
2233.28157636151	0.69671630859375
2233.29157636148	0.697021484375
2233.30157636146	0.69732666015625
2233.31157636143	0.6976318359375
2233.32157636141	0.69793701171875
2233.33157636138	0.6982421875
2233.34157636135	0.69854736328125
2233.35157636133	0.69915771484375
2233.3615763613	0.699462890625
2233.37157636128	0.69976806640625
2233.38157636125	0.7000732421875
2233.39157636123	0.70037841796875
2233.4015763612	0.70068359375
2233.41157636118	0.70098876953125
2233.42157636115	0.7012939453125
2233.43157636113	0.70159912109375
2233.4415763611	0.701904296875
2233.45157636108	0.70220947265625
2233.46157636105	0.7025146484375
2233.47157636103	0.70281982421875
2233.481576361	0.703125
2233.49157636098	0.70343017578125
2233.50157636095	0.7037353515625
2233.51157636093	0.70404052734375
2233.5215763609	0.704345703125
2233.53157636088	0.70465087890625
2233.54157636085	0.7049560546875
2233.55157636082	0.70526123046875
2233.5615763608	0.70556640625
2233.57157636077	0.70587158203125
2233.58157636075	0.7061767578125
2233.59157636072	0.70648193359375
2233.6015763607	0.706787109375
2233.61157636067	0.70709228515625
2233.62157636065	0.7073974609375
2233.63157636062	0.70770263671875
2233.6415763606	0.7080078125
2233.65157636057	0.70831298828125
2233.66157636055	0.7086181640625
2233.67157636052	0.70892333984375
2233.6815763605	0.709228515625
2233.69157636047	0.70953369140625
2233.70157636045	0.7098388671875
2233.71157636042	0.71014404296875
2233.7215763604	0.71044921875
2233.73157636037	0.71075439453125
2233.74157636034	0.7110595703125
2233.75157636032	0.71136474609375
2233.76157636029	0.711669921875
2233.77157636027	0.71197509765625
2233.78157636024	0.7122802734375
2233.79157636022	0.71258544921875
2233.80157636019	0.712890625
2233.81157636017	0.71319580078125
2233.82157636014	0.7135009765625
2233.83157636012	0.71380615234375
2233.84157636009	0.714111328125
2233.85157636007	0.71441650390625
2233.86157636004	0.7147216796875
2233.87157636002	0.71502685546875
2233.88157635999	0.71533203125
2233.89157635997	0.71563720703125
2233.90157635994	0.7159423828125
2233.91157635992	0.71624755859375
2233.92157635989	0.716552734375
2233.93157635987	0.71685791015625
2233.94157635984	0.7171630859375
2233.95157635981	0.71746826171875
2233.96157635979	0.7177734375
2233.97157635976	0.71807861328125
2233.98157635974	0.7183837890625
2233.99157635971	0.71868896484375
2234.00157635969	0.718994140625
2234.01157635966	0.71929931640625
2234.02157635964	0.7196044921875
2234.03157635961	0.71990966796875
2234.04157635959	0.72021484375
2234.05157635956	0.72052001953125
2234.06157635954	0.7208251953125
2234.07157635951	0.72113037109375
2234.08157635949	0.721435546875
2234.09157635946	0.72174072265625
2234.10157635944	0.7220458984375
2234.11157635941	0.72235107421875
2234.12157635939	0.72265625
2234.13157635936	0.72296142578125
2234.14157635933	0.7232666015625
2234.15157635931	0.72357177734375
2234.16157635928	0.723876953125
2234.17157635926	0.72418212890625
2234.18157635923	0.7244873046875
2234.19157635921	0.72479248046875
2234.20157635918	0.72509765625
2234.21157635916	0.72509765625
2234.22157635913	0.7257080078125
2234.23157635911	0.7257080078125
2234.24157635908	0.726318359375
2234.25157635906	0.72662353515625
2234.26157635903	0.72662353515625
2234.27157635901	0.7269287109375
2234.28157635898	0.72723388671875
2234.29157635896	0.7275390625
2234.30157635893	0.72784423828125
2234.31157635891	0.7281494140625
2234.32157635888	0.72845458984375
2234.33157635886	0.728759765625
2234.34157635883	0.72906494140625
2234.3515763588	0.7293701171875
2234.36157635878	0.72967529296875
2234.37157635875	0.72998046875
2234.38157635873	0.73028564453125
2234.3915763587	0.7305908203125
2234.40157635868	0.73089599609375
2234.41157635865	0.731201171875
2234.42157635863	0.73150634765625
2234.4315763586	0.7318115234375
2234.44157635858	0.73211669921875
2234.45157635855	0.732421875
2234.46157635853	0.73272705078125
2234.4715763585	0.7330322265625
2234.48157635848	0.73333740234375
2234.49157635845	0.733642578125
2234.50157635843	0.73394775390625
2234.5115763584	0.7342529296875
2234.52157635838	0.73455810546875
2234.53157635835	0.73486328125
2234.54157635833	0.73516845703125
2234.5515763583	0.7354736328125
2234.56157635827	0.73577880859375
2234.57157635825	0.736083984375
2234.58157635822	0.736083984375
2234.5915763582	0.73638916015625
2234.60157635817	0.7366943359375
2234.61157635815	0.73699951171875
2234.62157635812	0.7373046875
2234.6315763581	0.73760986328125
2234.64157635807	0.7379150390625
2234.65157635805	0.73822021484375
2234.66157635802	0.738525390625
2234.671576358	0.73883056640625
2234.68157635797	0.7391357421875
2234.69157635795	0.73944091796875
2234.70157635792	0.73974609375
2234.7115763579	0.74005126953125
2234.72157635787	0.7403564453125
2234.73157635785	0.74066162109375
2234.74157635782	0.740966796875
2234.75157635779	0.74127197265625
2234.76157635777	0.7415771484375
2234.77157635774	0.74188232421875
2234.78157635772	0.7421875
2234.79157635769	0.74249267578125
2234.80157635767	0.7427978515625
2234.81157635764	0.7427978515625
2234.82157635762	0.74310302734375
2234.83157635759	0.743408203125
2234.84157635757	0.74371337890625
2234.85157635754	0.7440185546875
2234.86157635752	0.74432373046875
2234.87157635749	0.74462890625
2234.88157635747	0.74493408203125
2234.89157635744	0.7452392578125
2234.90157635742	0.74554443359375
2234.91157635739	0.745849609375
2234.92157635737	0.74615478515625
2234.93157635734	0.7464599609375
2234.94157635732	0.74676513671875
2234.95157635729	0.7470703125
2234.96157635726	0.74737548828125
2234.97157635724	0.7476806640625
2234.98157635721	0.7476806640625
2234.99157635719	0.74798583984375
2235.00157635716	0.748291015625
2235.01157635714	0.74859619140625
2235.02157635711	0.7489013671875
2235.03157635709	0.74920654296875
2235.04157635706	0.74951171875
2235.05157635704	0.74981689453125
2235.06157635701	0.7501220703125
2235.07157635699	0.75042724609375
2235.08157635696	0.750732421875
2235.09157635694	0.75103759765625
2235.10157635691	0.7513427734375
2235.11157635689	0.75164794921875
2235.12157635686	0.75164794921875
2235.13157635684	0.751953125
2235.14157635681	0.75225830078125
2235.15157635678	0.7525634765625
2235.16157635676	0.75286865234375
2235.17157635673	0.753173828125
2235.18157635671	0.75347900390625
2235.19157635668	0.7537841796875
2235.20157635666	0.75408935546875
2235.21157635663	0.75439453125
2235.22157635661	0.75469970703125
2235.23157635658	0.7550048828125
2235.24157635656	0.7550048828125
2235.25157635653	0.75531005859375
2235.26157635651	0.755615234375
2235.27157635648	0.75592041015625
2235.28157635646	0.7562255859375
2235.29157635643	0.75653076171875
2235.30157635641	0.7568359375
2235.31157635638	0.75714111328125
2235.32157635636	0.7574462890625
2235.33157635633	0.75775146484375
2235.34157635631	0.758056640625
2235.35157635628	0.75836181640625
2235.36157635625	0.75836181640625
2235.37157635623	0.7586669921875
2235.3815763562	0.75897216796875
2235.39157635618	0.75927734375
2235.40157635615	0.75958251953125
2235.41157635613	0.7598876953125
2235.4215763561	0.76019287109375
2235.43157635608	0.760498046875
2235.44157635605	0.76080322265625
2235.45157635603	0.7611083984375
2235.461576356	0.7611083984375
2235.47157635598	0.76141357421875
2235.48157635595	0.76171875
2235.49157635593	0.76202392578125
2235.5015763559	0.7623291015625
2235.51157635588	0.76263427734375
2235.52157635585	0.762939453125
2235.53157635583	0.76324462890625
2235.5415763558	0.7635498046875
2235.55157635578	0.7635498046875
2235.56157635575	0.76385498046875
2235.57157635572	0.76416015625
2235.5815763557	0.76446533203125
2235.59157635567	0.7647705078125
2235.60157635565	0.76507568359375
2235.61157635562	0.765380859375
2235.6215763556	0.76568603515625
2235.63157635557	0.7659912109375
2235.64157635555	0.7659912109375
2235.65157635552	0.76629638671875
2235.6615763555	0.7666015625
2235.67157635547	0.76690673828125
2235.68157635545	0.7672119140625
2235.69157635542	0.76751708984375
2235.7015763554	0.767822265625
2235.71157635537	0.76812744140625
2235.72157635535	0.7684326171875
2235.73157635532	0.7684326171875
2235.7415763553	0.76873779296875
2235.75157635527	0.76904296875
2235.76157635524	0.76934814453125
2235.77157635522	0.7696533203125
2235.78157635519	0.76995849609375
2235.79157635517	0.770263671875
2235.80157635514	0.77056884765625
2235.81157635512	0.77056884765625
2235.82157635509	0.7708740234375
2235.83157635507	0.77117919921875
2235.84157635504	0.771484375
2235.85157635502	0.77178955078125
2235.86157635499	0.7720947265625
2235.87157635497	0.7720947265625
2235.88157635494	0.77239990234375
2235.89157635492	0.772705078125
2235.90157635489	0.77301025390625
2235.91157635487	0.7733154296875
2235.92157635484	0.77362060546875
2235.93157635482	0.77392578125
2235.94157635479	0.77423095703125
2235.95157635477	0.77423095703125
2235.96157635474	0.7745361328125
2235.97157635471	0.77484130859375
2235.98157635469	0.775146484375
2235.99157635466	0.77545166015625
2236.00157635464	0.7757568359375
2236.01157635461	0.77606201171875
2236.02157635459	0.77606201171875
2236.03157635456	0.7763671875
2236.04157635454	0.77667236328125
2236.05157635451	0.7769775390625
2236.06157635449	0.77728271484375
2236.07157635446	0.777587890625
2236.08157635444	0.777587890625
2236.09157635441	0.77789306640625
2236.10157635439	0.7781982421875
2236.11157635436	0.77850341796875
2236.12157635434	0.77880859375
2236.13157635431	0.77911376953125
2236.14157635429	0.7794189453125
2236.15157635426	0.7794189453125
2236.16157635423	0.77972412109375
2236.17157635421	0.780029296875
2236.18157635418	0.78033447265625
2236.19157635416	0.7806396484375
2236.20157635413	0.78094482421875
2236.21157635411	0.78094482421875
2236.22157635408	0.78125
2236.23157635406	0.78125
2236.24157635403	0.78155517578125
2236.25157635401	0.7818603515625
2236.26157635398	0.7818603515625
2236.27157635396	0.78216552734375
2236.28157635393	0.782470703125
2236.29157635391	0.78277587890625
2236.30157635388	0.7830810546875
2236.31157635386	0.7830810546875
2236.32157635383	0.78338623046875
2236.33157635381	0.78369140625
2236.34157635378	0.78399658203125
2236.35157635376	0.7843017578125
2236.36157635373	0.7843017578125
2236.3715763537	0.78460693359375
2236.38157635368	0.784912109375
2236.39157635365	0.78521728515625
2236.40157635363	0.7855224609375
2236.4115763536	0.78582763671875
2236.42157635358	0.78582763671875
2236.43157635355	0.7861328125
2236.44157635353	0.78643798828125
2236.4515763535	0.7867431640625
2236.46157635348	0.78704833984375
2236.47157635345	0.78704833984375
2236.48157635343	0.787353515625
2236.4915763534	0.78765869140625
2236.50157635338	0.7879638671875
2236.51157635335	0.78826904296875
2236.52157635333	0.78826904296875
2236.5315763533	0.78857421875
2236.54157635328	0.78887939453125
2236.55157635325	0.7891845703125
2236.56157635323	0.78948974609375
2236.5715763532	0.789794921875
2236.58157635317	0.789794921875
2236.59157635315	0.79010009765625
2236.60157635312	0.7904052734375
2236.6115763531	0.79071044921875
2236.62157635307	0.79071044921875
2236.63157635305	0.791015625
2236.64157635302	0.79132080078125
2236.651576353	0.7916259765625
2236.66157635297	0.79193115234375
2236.67157635295	0.792236328125
2236.68157635292	0.792236328125
2236.6915763529	0.79254150390625
2236.70157635287	0.7928466796875
2236.71157635285	0.79315185546875
2236.72157635282	0.79315185546875
2236.7315763528	0.79345703125
2236.74157635277	0.79376220703125
2236.75157635275	0.7940673828125
2236.76157635272	0.79437255859375
2236.77157635269	0.79437255859375
2236.78157635267	0.794677734375
2236.79157635264	0.79498291015625
2236.80157635262	0.7952880859375
2236.81157635259	0.7952880859375
2236.82157635257	0.79559326171875
2236.83157635254	0.7958984375
2236.84157635252	0.79620361328125
2236.85157635249	0.7965087890625
2236.86157635247	0.7965087890625
2236.87157635244	0.79681396484375
2236.88157635242	0.797119140625
2236.89157635239	0.79742431640625
2236.90157635237	0.7977294921875
2236.91157635234	0.7977294921875
2236.92157635232	0.79803466796875
2236.93157635229	0.79833984375
2236.94157635227	0.79864501953125
2236.95157635224	0.79864501953125
2236.96157635222	0.7989501953125
2236.97157635219	0.79925537109375
2236.98157635216	0.799560546875
2236.99157635214	0.79986572265625
2237.00157635211	0.79986572265625
2237.01157635209	0.8001708984375
2237.02157635206	0.80047607421875
2237.03157635204	0.80078125
2237.04157635201	0.80078125
