EXPLAIN
TAG	CHRONOP
TITLE	LABEL	Chronopotentiometry Scan	Test Identifier
DATE	LABEL	23/12/2024	Date
TIME	LABEL	19:13:10	Time
NOTES	NOTES	1	Notes...
	
PSTAT	PSTAT	IFC1000-07087	Potentiostat
IPRESTEP	QUANT	0.00000E+000	Pre-step Current(A)
TPRESTEP	QUANT	0.00000E+000	Pre-step Delay Time (s)
ISTEP1	QUANT	3.49125E-004	A Real Number
TSTEP1	QUANT	5.00000E+003	Step 1 Time (s)
ISTEP2	QUANT	-3.49125E-004	A Real Number
TSTEP2	QUANT	5.00000E+003	Step 2 Time (s)
SAMPLETIME	QUANT	1.00000E-002	Sample Period (s)
DECIMATE	TOGGLE	F	Decimate
VLIMITLOWER	QUANT	0.00000E+000	Lower Limit V (V)
VLIMITUPPER	QUANT	8.50000E-001	Upper Limit V (V)
EQDELAY	QUANT	1.00000E+000	Equil. Time (s)
SAMPLINGMODE	SELECTOR	1	Sampling Mode
AREA	QUANT	2.00000E+000	Sample Area (cm^2)
ELECTRODETYPE	SELECTOR	0	Electrode Type
STRIPPING	TOGGLE	F	Used for Stripping
SEQUENCER	TOGGLE	TRUE	Run as Sequence
PSTATMODEL	IQUANT	48	Pstat Model
PSTATSECTION	LABEL	IFC1000-07087	Pstat Section
PSTATSERIALNO	LABEL	07087	Pstat Serial Number
CTRLMODE	IQUANT	0	Control Mode
ELECTROMETER	IQUANT	0	RE=0 or CS=1
IESTAB	IQUANT	0	I/E Stability
CASPEED	IQUANT	4	Control Amp Speed
CONVENTION	IQUANT	1	Current Convention
ICHRANGE	IQUANT	2	Ich Range
ICHRANGEMODE	TOGGLE	T	Ich Auto Range
ICHOFFSETENABLE	TOGGLE	F	Ich Offset Enable
ICHOFFSET	QUANT	0	Ich Offset (V)
ICHFILTER	IQUANT	3	Ich Filter
VCHRANGE	IQUANT	3	Vch Range
VCHRANGEMODE	TOGGLE	T	Vch Auto Range
VCHOFFSETENABLE	TOGGLE	F	Vch Offset Enable
VCHOFFSET	QUANT	0	Vch Offset (V)
VCHFILTER	IQUANT	3	Vch Filter
IERANGELOWERLIMIT	IQUANT	4	I/E Range Lower Limit
IERANGEMODE	TOGGLE	F	I/E AutoRange
IERANGE	IQUANT	11	I/E Range
ACHSELECT	IQUANT	0	Ach Select
ACHRANGE	IQUANT	2	Ach Range
ACHOFFSETENABLE	TOGGLE	F	Ach Offset Enable
ACHOFFSET	QUANT	0	Ach Offset (V)
ACHFILTER	IQUANT	1	Ach Filter
SENSECABLEID	IQUANT	14	Sense Cable ID
PWRCABLEID	IQUANT	14	Power Cable ID
DCCALDATE	LABEL	11/14/2024	DC Calibration Date
ACCALDATE	LABEL	7/17/2019	AC Calibration Date
FRAMEWORKVERSION	LABEL	7.10.3	Framework Version
INSTRUMENTVERSION	LABEL	4.91	Instrument Version
COMMVERSION	LABEL	3.10	Communications Version
CPUPLDVERSION	LABEL	1.10	CPU PLD Version
CTRLPLDVERSION	LABEL	0.00	CTRL PLD Version
PSTATPLDVERSION	LABEL	0.00	PSTAT PLD Version
CURVE	TABLE	448
	Pt	T	Vf	Im	Vu	Sig	Ach	IERange	Over	Temp
	#	s	V vs. Ref.	A	V	V	V	#	bits	deg C
	0	0	3.37197E-001	-1.24959E-007	0.00000E+000	0.00000E+000	0.00000E+000	9	...........	 0.00
	1	0.01	3.48781E-001	3.48642E-004	0.00000E+000	1.04759E+000	0.00000E+000	9	...........	 0.00
	2	0.02	3.51477E-001	3.48650E-004	0.00000E+000	1.04759E+000	0.00000E+000	9	...........	 0.00
	3	0.03	3.53847E-001	3.48649E-004	0.00000E+000	1.04759E+000	0.00000E+000	9	...........	 0.00
	4	0.04	3.56111E-001	3.48648E-004	0.00000E+000	1.04759E+000	0.00000E+000	9	...........	 0.00
	5	0.05	3.58320E-001	3.48645E-004	0.00000E+000	1.04759E+000	0.00000E+000	9	...........	 0.00
	6	0.06	3.60546E-001	3.48643E-004	0.00000E+000	1.04759E+000	0.00000E+000	9	...........	 0.00
	7	0.07	3.62706E-001	3.48642E-004	0.00000E+000	1.04759E+000	0.00000E+000	9	...........	 0.00
	8	0.08	3.64881E-001	3.48643E-004	0.00000E+000	1.04759E+000	0.00000E+000	9	...........	 0.00
	9	0.09	3.67022E-001	3.48639E-004	0.00000E+000	1.04759E+000	0.00000E+000	9	...........	 0.00
	10	0.1	3.69162E-001	3.48599E-004	0.00000E+000	1.04759E+000	0.00000E+000	9	...........	 0.00
	11	0.11	3.71291E-001	3.48637E-004	0.00000E+000	1.04759E+000	0.00000E+000	9	...........	 0.00
	12	0.12	3.73445E-001	3.48665E-004	0.00000E+000	1.04759E+000	0.00000E+000	9	...........	 0.00
	13	0.13	3.75576E-001	3.48676E-004	0.00000E+000	1.04759E+000	0.00000E+000	9	...........	 0.00
	14	0.14	3.77702E-001	3.48644E-004	0.00000E+000	1.04759E+000	0.00000E+000	9	...........	 0.00
	15	0.15	3.79854E-001	3.48640E-004	0.00000E+000	1.04759E+000	0.00000E+000	9	...........	 0.00
	16	0.16	3.82003E-001	3.48615E-004	0.00000E+000	1.04759E+000	0.00000E+000	9	...........	 0.00
	17	0.17	3.84147E-001	3.48614E-004	0.00000E+000	1.04759E+000	0.00000E+000	9	...........	 0.00
	18	0.18	3.86330E-001	3.48624E-004	0.00000E+000	1.04759E+000	0.00000E+000	9	...........	 0.00
	19	0.19	3.88497E-001	3.48626E-004	0.00000E+000	1.04759E+000	0.00000E+000	9	...........	 0.00
	20	0.2	3.90653E-001	3.48638E-004	0.00000E+000	1.04759E+000	0.00000E+000	9	...........	 0.00
	21	0.21	3.92838E-001	3.48635E-004	0.00000E+000	1.04759E+000	0.00000E+000	9	...........	 0.00
	22	0.22	3.95025E-001	3.48632E-004	0.00000E+000	1.04759E+000	0.00000E+000	9	...........	 0.00
	23	0.23	3.97235E-001	3.48646E-004	0.00000E+000	1.04759E+000	0.00000E+000	9	...........	 0.00
	24	0.24	3.99443E-001	3.48652E-004	0.00000E+000	1.04759E+000	0.00000E+000	9	...........	 0.00
	25	0.25	4.01654E-001	3.48657E-004	0.00000E+000	1.04759E+000	0.00000E+000	9	...........	 0.00
	26	0.26	4.03878E-001	3.48550E-004	0.00000E+000	1.04759E+000	0.00000E+000	9	...........	 0.00
	27	0.27	4.06119E-001	3.48503E-004	0.00000E+000	1.04759E+000	0.00000E+000	9	...........	 0.00
	28	0.28	4.08354E-001	3.48579E-004	0.00000E+000	1.04759E+000	0.00000E+000	9	...........	 0.00
	29	0.29	4.10636E-001	3.48629E-004	0.00000E+000	1.04759E+000	0.00000E+000	9	...........	 0.00
	30	0.3	4.12897E-001	3.48649E-004	0.00000E+000	1.04759E+000	0.00000E+000	9	...........	 0.00
	31	0.31	4.15172E-001	3.48659E-004	0.00000E+000	1.04759E+000	0.00000E+000	9	...........	 0.00
	32	0.32	4.17476E-001	3.48658E-004	0.00000E+000	1.04759E+000	0.00000E+000	9	...........	 0.00
	33	0.33	4.19774E-001	3.48654E-004	0.00000E+000	1.04759E+000	0.00000E+000	9	...........	 0.00
	34	0.34	4.22076E-001	3.48652E-004	0.00000E+000	1.04759E+000	0.00000E+000	9	...........	 0.00
	35	0.35	4.24439E-001	3.48642E-004	0.00000E+000	1.04759E+000	0.00000E+000	9	...........	 0.00
	36	0.36	4.26781E-001	3.48651E-004	0.00000E+000	1.04759E+000	0.00000E+000	9	...........	 0.00
	37	0.37	4.29132E-001	3.48649E-004	0.00000E+000	1.04759E+000	0.00000E+000	9	...........	 0.00
	38	0.38	4.31498E-001	3.48627E-004	0.00000E+000	1.04759E+000	0.00000E+000	9	...........	 0.00
	39	0.39	4.33878E-001	3.48632E-004	0.00000E+000	1.04759E+000	0.00000E+000	9	...........	 0.00
	40	0.4	4.36290E-001	3.48636E-004	0.00000E+000	1.04759E+000	0.00000E+000	9	...........	 0.00
	41	0.41	4.38702E-001	3.48630E-004	0.00000E+000	1.04759E+000	0.00000E+000	9	...........	 0.00
	42	0.42	4.41125E-001	3.48638E-004	0.00000E+000	1.04759E+000	0.00000E+000	9	...........	 0.00
	43	0.43	4.43558E-001	3.48640E-004	0.00000E+000	1.04759E+000	0.00000E+000	9	...........	 0.00
	44	0.44	4.46012E-001	3.48653E-004	0.00000E+000	1.04759E+000	0.00000E+000	9	...........	 0.00
	45	0.45	4.48478E-001	3.48647E-004	0.00000E+000	1.04759E+000	0.00000E+000	9	...........	 0.00
	46	0.46	4.50955E-001	3.48649E-004	0.00000E+000	1.04759E+000	0.00000E+000	9	...........	 0.00
	47	0.47	4.53443E-001	3.48661E-004	0.00000E+000	1.04759E+000	0.00000E+000	9	...........	 0.00
	48	0.48	4.55948E-001	3.48633E-004	0.00000E+000	1.04759E+000	0.00000E+000	9	...........	 0.00
	49	0.49	4.58465E-001	3.48501E-004	0.00000E+000	1.04759E+000	0.00000E+000	9	...........	 0.00
	50	0.5	4.60994E-001	3.48520E-004	0.00000E+000	1.04759E+000	0.00000E+000	9	...........	 0.00
	51	0.51	4.63572E-001	3.48609E-004	0.00000E+000	1.04759E+000	0.00000E+000	9	...........	 0.00
	52	0.52	4.66140E-001	3.48636E-004	0.00000E+000	1.04759E+000	0.00000E+000	9	...........	 0.00
	53	0.53	4.68738E-001	3.48656E-004	0.00000E+000	1.04759E+000	0.00000E+000	9	...........	 0.00
	54	0.54	4.71345E-001	3.48660E-004	0.00000E+000	1.04759E+000	0.00000E+000	9	...........	 0.00
	55	0.55	4.73960E-001	3.48646E-004	0.00000E+000	1.04759E+000	0.00000E+000	9	...........	 0.00
	56	0.56	4.76627E-001	3.48636E-004	0.00000E+000	1.04759E+000	0.00000E+000	9	...........	 0.00
	57	0.57	4.79277E-001	3.48636E-004	0.00000E+000	1.04759E+000	0.00000E+000	9	...........	 0.00
	58	0.58	4.81956E-001	3.48648E-004	0.00000E+000	1.04759E+000	0.00000E+000	9	...........	 0.00
	59	0.59	4.84661E-001	3.48658E-004	0.00000E+000	1.04759E+000	0.00000E+000	9	...........	 0.00
	60	0.6	4.87398E-001	3.48641E-004	0.00000E+000	1.04759E+000	0.00000E+000	9	...........	 0.00
	61	0.61	4.90142E-001	3.48620E-004	0.00000E+000	1.04759E+000	0.00000E+000	9	...........	 0.00
	62	0.62	4.92894E-001	3.48608E-004	0.00000E+000	1.04759E+000	0.00000E+000	9	...........	 0.00
	63	0.63	4.95690E-001	3.48641E-004	0.00000E+000	1.04759E+000	0.00000E+000	9	...........	 0.00
	64	0.64	4.98498E-001	3.48663E-004	0.00000E+000	1.04759E+000	0.00000E+000	9	...........	 0.00
	65	0.65	5.01345E-001	3.48653E-004	0.00000E+000	1.04759E+000	0.00000E+000	9	...........	 0.00
	66	0.66	5.04193E-001	3.48571E-004	0.00000E+000	1.04759E+000	0.00000E+000	9	...........	 0.00
	67	0.67	5.07071E-001	3.48582E-004	0.00000E+000	1.04759E+000	0.00000E+000	9	...........	 0.00
	68	0.68	5.09973E-001	3.48574E-004	0.00000E+000	1.04759E+000	0.00000E+000	9	...........	 0.00
	69	0.69	5.12922E-001	3.48591E-004	0.00000E+000	1.04759E+000	0.00000E+000	9	...........	 0.00
	70	0.7	5.15873E-001	3.48617E-004	0.00000E+000	1.04759E+000	0.00000E+000	9	...........	 0.00
	71	0.71	5.18838E-001	3.48625E-004	0.00000E+000	1.04759E+000	0.00000E+000	9	...........	 0.00
	72	0.72	5.21829E-001	3.48639E-004	0.00000E+000	1.04759E+000	0.00000E+000	9	...........	 0.00
	73	0.73	5.24853E-001	3.48644E-004	0.00000E+000	1.04759E+000	0.00000E+000	9	...........	 0.00
	74	0.74	5.27936E-001	3.48638E-004	0.00000E+000	1.04759E+000	0.00000E+000	9	...........	 0.00
	75	0.75	5.30987E-001	3.48645E-004	0.00000E+000	1.04759E+000	0.00000E+000	9	...........	 0.00
	76	0.76	5.34081E-001	3.48647E-004	0.00000E+000	1.04759E+000	0.00000E+000	9	...........	 0.00
	77	0.77	5.37200E-001	3.48643E-004	0.00000E+000	1.04759E+000	0.00000E+000	9	...........	 0.00
	78	0.78	5.40358E-001	3.48639E-004	0.00000E+000	1.04759E+000	0.00000E+000	9	...........	 0.00
	79	0.79	5.43507E-001	3.48642E-004	0.00000E+000	1.04759E+000	0.00000E+000	9	...........	 0.00
	80	0.8	5.46706E-001	3.48638E-004	0.00000E+000	1.04759E+000	0.00000E+000	9	...........	 0.00
	81	0.81	5.49904E-001	3.48643E-004	0.00000E+000	1.04759E+000	0.00000E+000	9	...........	 0.00
	82	0.82	5.53148E-001	3.48639E-004	0.00000E+000	1.04759E+000	0.00000E+000	9	...........	 0.00
	83	0.83	5.56401E-001	3.48642E-004	0.00000E+000	1.04759E+000	0.00000E+000	9	...........	 0.00
	84	0.84	5.59667E-001	3.48630E-004	0.00000E+000	1.04759E+000	0.00000E+000	9	...........	 0.00
	85	0.85	5.62956E-001	3.48617E-004	0.00000E+000	1.04759E+000	0.00000E+000	9	...........	 0.00
	86	0.86	5.66293E-001	3.48660E-004	0.00000E+000	1.04759E+000	0.00000E+000	9	...........	 0.00
	87	0.87	5.69625E-001	3.48681E-004	0.00000E+000	1.04759E+000	0.00000E+000	9	...........	 0.00
	88	0.88	5.72981E-001	3.48626E-004	0.00000E+000	1.04759E+000	0.00000E+000	9	...........	 0.00
	89	0.89	5.76339E-001	3.48576E-004	0.00000E+000	1.04759E+000	0.00000E+000	9	...........	 0.00
	90	0.9	5.79747E-001	3.48598E-004	0.00000E+000	1.04759E+000	0.00000E+000	9	...........	 0.00
	91	0.91	5.83144E-001	3.48586E-004	0.00000E+000	1.04759E+000	0.00000E+000	9	...........	 0.00
	92	0.92	5.86572E-001	3.48607E-004	0.00000E+000	1.04759E+000	0.00000E+000	9	...........	 0.00
	93	0.93	5.90030E-001	3.48625E-004	0.00000E+000	1.04759E+000	0.00000E+000	9	...........	 0.00
	94	0.94	5.93492E-001	3.48630E-004	0.00000E+000	1.04759E+000	0.00000E+000	9	...........	 0.00
	95	0.95	5.96969E-001	3.48645E-004	0.00000E+000	1.04759E+000	0.00000E+000	9	...........	 0.00
	96	0.96	6.00443E-001	3.48639E-004	0.00000E+000	1.04759E+000	0.00000E+000	9	...........	 0.00
	97	0.97	6.03958E-001	3.48636E-004	0.00000E+000	1.04759E+000	0.00000E+000	9	...........	 0.00
	98	0.98	6.07468E-001	3.48646E-004	0.00000E+000	1.04759E+000	0.00000E+000	9	...........	 0.00
	99	0.99	6.10976E-001	3.48652E-004	0.00000E+000	1.04759E+000	0.00000E+000	9	...........	 0.00
	100	1	6.14516E-001	3.48631E-004	0.00000E+000	1.04759E+000	0.00000E+000	9	...........	 0.00
	101	1.01	6.18061E-001	3.48532E-004	0.00000E+000	1.04759E+000	0.00000E+000	9	...........	 0.00
	102	1.02	6.21623E-001	3.48538E-004	0.00000E+000	1.04759E+000	0.00000E+000	9	...........	 0.00
	103	1.03	6.25190E-001	3.48623E-004	0.00000E+000	1.04759E+000	0.00000E+000	9	...........	 0.00
	104	1.04	6.28781E-001	3.48651E-004	0.00000E+000	1.04759E+000	0.00000E+000	9	...........	 0.00
	105	1.05	6.32365E-001	3.48662E-004	0.00000E+000	1.04759E+000	0.00000E+000	9	...........	 0.00
	106	1.06	6.35954E-001	3.48668E-004	0.00000E+000	1.04759E+000	0.00000E+000	9	...........	 0.00
	107	1.07	6.39551E-001	3.48655E-004	0.00000E+000	1.04759E+000	0.00000E+000	9	...........	 0.00
	108	1.08	6.43182E-001	3.48650E-004	0.00000E+000	1.04759E+000	0.00000E+000	9	...........	 0.00
	109	1.09	6.46791E-001	3.48645E-004	0.00000E+000	1.04759E+000	0.00000E+000	9	...........	 0.00
	110	1.1	6.50410E-001	3.48639E-004	0.00000E+000	1.04759E+000	0.00000E+000	9	...........	 0.00
	111	1.11	6.54039E-001	3.48646E-004	0.00000E+000	1.04759E+000	0.00000E+000	9	...........	 0.00
	112	1.12	6.57659E-001	3.48634E-004	0.00000E+000	1.04759E+000	0.00000E+000	9	...........	 0.00
	113	1.13	6.61290E-001	3.48620E-004	0.00000E+000	1.04759E+000	0.00000E+000	9	...........	 0.00
	114	1.14	6.64919E-001	3.48632E-004	0.00000E+000	1.04759E+000	0.00000E+000	9	...........	 0.00
	115	1.15	6.68583E-001	3.48636E-004	0.00000E+000	1.04759E+000	0.00000E+000	9	...........	 0.00
	116	1.16	6.72220E-001	3.48638E-004	0.00000E+000	1.04759E+000	0.00000E+000	9	...........	 0.00
	117	1.17	6.75859E-001	3.48639E-004	0.00000E+000	1.04759E+000	0.00000E+000	9	...........	 0.00
	118	1.18	6.79512E-001	3.48645E-004	0.00000E+000	1.04759E+000	0.00000E+000	9	...........	 0.00
	119	1.19	6.83145E-001	3.48646E-004	0.00000E+000	1.04759E+000	0.00000E+000	9	...........	 0.00
	120	1.2	6.86759E-001	3.48642E-004	0.00000E+000	1.04759E+000	0.00000E+000	9	...........	 0.00
	121	1.21	6.90391E-001	3.48642E-004	0.00000E+000	1.04759E+000	0.00000E+000	9	...........	 0.00
	122	1.22	6.94028E-001	3.48651E-004	0.00000E+000	1.04759E+000	0.00000E+000	9	...........	 0.00
	123	1.23	6.97623E-001	3.48598E-004	0.00000E+000	1.04759E+000	0.00000E+000	9	...........	 0.00
	124	1.24	7.01230E-001	3.48514E-004	0.00000E+000	1.04759E+000	0.00000E+000	9	...........	 0.00
	125	1.25	7.04848E-001	3.48580E-004	0.00000E+000	1.04759E+000	0.00000E+000	9	...........	 0.00
	126	1.26	7.08449E-001	3.48642E-004	0.00000E+000	1.04759E+000	0.00000E+000	9	...........	 0.00
	127	1.27	7.12035E-001	3.48652E-004	0.00000E+000	1.04759E+000	0.00000E+000	9	...........	 0.00
	128	1.28	7.15584E-001	3.48662E-004	0.00000E+000	1.04759E+000	0.00000E+000	9	...........	 0.00
	129	1.29	7.19164E-001	3.48663E-004	0.00000E+000	1.04759E+000	0.00000E+000	9	...........	 0.00
	130	1.3	7.22719E-001	3.48651E-004	0.00000E+000	1.04759E+000	0.00000E+000	9	...........	 0.00
	131	1.31	7.26234E-001	3.48649E-004	0.00000E+000	1.04759E+000	0.00000E+000	9	...........	 0.00
	132	1.32	7.29758E-001	3.48641E-004	0.00000E+000	1.04759E+000	0.00000E+000	9	...........	 0.00
	133	1.33	7.33288E-001	3.48638E-004	0.00000E+000	1.04759E+000	0.00000E+000	9	...........	 0.00
	134	1.34	7.36795E-001	3.48641E-004	0.00000E+000	1.04759E+000	0.00000E+000	9	...........	 0.00
	135	1.35	7.40282E-001	3.48624E-004	0.00000E+000	1.04759E+000	0.00000E+000	9	...........	 0.00
	136	1.36	7.43800E-001	3.48626E-004	0.00000E+000	1.04759E+000	0.00000E+000	9	...........	 0.00
	137	1.37	7.47263E-001	3.48642E-004	0.00000E+000	1.04759E+000	0.00000E+000	9	...........	 0.00
	138	1.38	7.50732E-001	3.48673E-004	0.00000E+000	1.04759E+000	0.00000E+000	9	...........	 0.00
	139	1.39	7.54173E-001	3.48672E-004	0.00000E+000	1.04759E+000	0.00000E+000	9	...........	 0.00
	140	1.4	7.57610E-001	3.48544E-004	0.00000E+000	1.04759E+000	0.00000E+000	9	...........	 0.00
	141	1.41	7.61032E-001	3.48501E-004	0.00000E+000	1.04759E+000	0.00000E+000	9	...........	 0.00
	142	1.42	7.64448E-001	3.48558E-004	0.00000E+000	1.04759E+000	0.00000E+000	9	...........	 0.00
	143	1.43	7.67817E-001	3.48576E-004	0.00000E+000	1.04759E+000	0.00000E+000	9	...........	 0.00
	144	1.44	7.71205E-001	3.48612E-004	0.00000E+000	1.04759E+000	0.00000E+000	9	...........	 0.00
	145	1.45	7.74563E-001	3.48633E-004	0.00000E+000	1.04759E+000	0.00000E+000	9	...........	 0.00
	146	1.46	7.77904E-001	3.48631E-004	0.00000E+000	1.04759E+000	0.00000E+000	9	...........	 0.00
	147	1.47	7.81216E-001	3.48644E-004	0.00000E+000	1.04759E+000	0.00000E+000	9	...........	 0.00
	148	1.48	7.84526E-001	3.48634E-004	0.00000E+000	1.04759E+000	0.00000E+000	9	...........	 0.00
	149	1.49	7.87781E-001	3.48638E-004	0.00000E+000	1.04759E+000	0.00000E+000	9	...........	 0.00
	150	1.5	7.91020E-001	3.48648E-004	0.00000E+000	1.04759E+000	0.00000E+000	9	...........	 0.00
	151	1.51	7.94230E-001	3.48644E-004	0.00000E+000	1.04759E+000	0.00000E+000	9	...........	 0.00
	152	1.52	7.97454E-001	3.48626E-004	0.00000E+000	1.04759E+000	0.00000E+000	9	...........	 0.00
	153	1.53	8.00609E-001	3.48629E-004	0.00000E+000	1.04759E+000	0.00000E+000	9	...........	 0.00
	154	1.54	8.03734E-001	3.48639E-004	0.00000E+000	1.04759E+000	0.00000E+000	9	...........	 0.00
	155	1.55	8.06832E-001	3.48645E-004	0.00000E+000	1.04759E+000	0.00000E+000	9	...........	 0.00
	156	1.56	8.09920E-001	3.48644E-004	0.00000E+000	1.04759E+000	0.00000E+000	9	...........	 0.00
	157	1.57	8.12943E-001	3.48648E-004	0.00000E+000	1.04759E+000	0.00000E+000	9	...........	 0.00
	158	1.58	8.15938E-001	3.48641E-004	0.00000E+000	1.04759E+000	0.00000E+000	9	...........	 0.00
	159	1.59	8.18889E-001	3.48639E-004	0.00000E+000	1.04759E+000	0.00000E+000	9	...........	 0.00
	160	1.6	8.21806E-001	3.48653E-004	0.00000E+000	1.04759E+000	0.00000E+000	9	...........	 0.00
	161	1.61	8.24654E-001	3.48678E-004	0.00000E+000	1.04759E+000	0.00000E+000	9	...........	 0.00
	162	1.62	8.27496E-001	3.48652E-004	0.00000E+000	1.04759E+000	0.00000E+000	9	...........	 0.00
	163	1.63	8.30269E-001	3.48519E-004	0.00000E+000	1.04759E+000	0.00000E+000	9	...........	 0.00
	164	1.64	8.33036E-001	3.48541E-004	0.00000E+000	1.04759E+000	0.00000E+000	9	...........	 0.00
	165	1.65	8.35714E-001	3.48580E-004	0.00000E+000	1.04759E+000	0.00000E+000	9	...........	 0.00
	166	1.66	8.38372E-001	3.48598E-004	0.00000E+000	1.04759E+000	0.00000E+000	9	...........	 0.00
	167	1.67	8.40979E-001	3.48627E-004	0.00000E+000	1.04759E+000	0.00000E+000	9	...........	 0.00
	168	1.68	8.43546E-001	3.48644E-004	0.00000E+000	1.04759E+000	0.00000E+000	9	...........	 0.00
	169	1.69	8.46062E-001	3.48644E-004	0.00000E+000	1.04759E+000	0.00000E+000	9	...........	 0.00
	170	1.7	8.48526E-001	3.48654E-004	0.00000E+000	1.04759E+000	0.00000E+000	9	...........	 0.00
	171	1.71	8.50948E-001	3.48640E-004	0.00000E+000	1.04759E+000	0.00000E+000	9	...........	 0.00
	172	1.72	8.53293E-001	3.48642E-004	0.00000E+000	1.04759E+000	0.00000E+000	9	...........	 0.00
	173	1.73	8.55618E-001	3.48649E-004	0.00000E+000	1.04759E+000	0.00000E+000	9	...........	 0.00
	174	1.74	8.31767E-001	-3.48873E-004	0.00000E+000	-1.04759E+000	0.00000E+000	9	...........	 0.00
	175	1.75	8.24629E-001	-3.48918E-004	0.00000E+000	-1.04759E+000	0.00000E+000	9	...........	 0.00
	176	1.76	8.18475E-001	-3.48974E-004	0.00000E+000	-1.04759E+000	0.00000E+000	9	...........	 0.00
	177	1.77	8.12716E-001	-3.48905E-004	0.00000E+000	-1.04759E+000	0.00000E+000	9	...........	 0.00
	178	1.78	8.07150E-001	-3.48855E-004	0.00000E+000	-1.04759E+000	0.00000E+000	9	...........	 0.00
	179	1.79	8.01721E-001	-3.48839E-004	0.00000E+000	-1.04759E+000	0.00000E+000	9	...........	 0.00
	180	1.8	7.96391E-001	-3.48846E-004	0.00000E+000	-1.04759E+000	0.00000E+000	9	...........	 0.00
	181	1.81	7.91091E-001	-3.48878E-004	0.00000E+000	-1.04759E+000	0.00000E+000	9	...........	 0.00
	182	1.82	7.85864E-001	-3.48903E-004	0.00000E+000	-1.04759E+000	0.00000E+000	9	...........	 0.00
	183	1.83	7.80686E-001	-3.48896E-004	0.00000E+000	-1.04759E+000	0.00000E+000	9	...........	 0.00
	184	1.84	7.75522E-001	-3.48889E-004	0.00000E+000	-1.04759E+000	0.00000E+000	9	...........	 0.00
	185	1.85	7.70414E-001	-3.48892E-004	0.00000E+000	-1.04759E+000	0.00000E+000	9	...........	 0.00
	186	1.86	7.65314E-001	-3.48885E-004	0.00000E+000	-1.04759E+000	0.00000E+000	9	...........	 0.00
	187	1.87	7.60236E-001	-3.48900E-004	0.00000E+000	-1.04759E+000	0.00000E+000	9	...........	 0.00
	188	1.88	7.55172E-001	-3.48905E-004	0.00000E+000	-1.04759E+000	0.00000E+000	9	...........	 0.00
	189	1.89	7.50136E-001	-3.48894E-004	0.00000E+000	-1.04759E+000	0.00000E+000	9	...........	 0.00
	190	1.9	7.45101E-001	-3.48890E-004	0.00000E+000	-1.04759E+000	0.00000E+000	9	...........	 0.00
	191	1.91	7.40079E-001	-3.48880E-004	0.00000E+000	-1.04759E+000	0.00000E+000	9	...........	 0.00
	192	1.92	7.35055E-001	-3.48875E-004	0.00000E+000	-1.04759E+000	0.00000E+000	9	...........	 0.00
	193	1.93	7.30046E-001	-3.48881E-004	0.00000E+000	-1.04759E+000	0.00000E+000	9	...........	 0.00
	194	1.94	7.25060E-001	-3.48881E-004	0.00000E+000	-1.04759E+000	0.00000E+000	9	...........	 0.00
	195	1.95	7.20071E-001	-3.48895E-004	0.00000E+000	-1.04759E+000	0.00000E+000	9	...........	 0.00
	196	1.96	7.15071E-001	-3.48895E-004	0.00000E+000	-1.04759E+000	0.00000E+000	9	...........	 0.00
	197	1.97	7.10101E-001	-3.48896E-004	0.00000E+000	-1.04759E+000	0.00000E+000	9	...........	 0.00
	198	1.98	7.05122E-001	-3.48962E-004	0.00000E+000	-1.04759E+000	0.00000E+000	9	...........	 0.00
	199	1.99	7.00149E-001	-3.48976E-004	0.00000E+000	-1.04759E+000	0.00000E+000	9	...........	 0.00
	200	2	6.95190E-001	-3.48887E-004	0.00000E+000	-1.04759E+000	0.00000E+000	9	...........	 0.00
	201	2.01	6.90217E-001	-3.48858E-004	0.00000E+000	-1.04759E+000	0.00000E+000	9	...........	 0.00
	202	2.02	6.85249E-001	-3.48850E-004	0.00000E+000	-1.04759E+000	0.00000E+000	9	...........	 0.00
	203	2.03	6.80320E-001	-3.48868E-004	0.00000E+000	-1.04759E+000	0.00000E+000	9	...........	 0.00
	204	2.04	6.75341E-001	-3.48891E-004	0.00000E+000	-1.04759E+000	0.00000E+000	9	...........	 0.00
	205	2.05	6.70417E-001	-3.48896E-004	0.00000E+000	-1.04759E+000	0.00000E+000	9	...........	 0.00
	206	2.06	6.65454E-001	-3.48874E-004	0.00000E+000	-1.04759E+000	0.00000E+000	9	...........	 0.00
	207	2.07	6.60543E-001	-3.48883E-004	0.00000E+000	-1.04759E+000	0.00000E+000	9	...........	 0.00
	208	2.08	6.55599E-001	-3.48891E-004	0.00000E+000	-1.04759E+000	0.00000E+000	9	...........	 0.00
	209	2.09	6.50664E-001	-3.48911E-004	0.00000E+000	-1.04759E+000	0.00000E+000	9	...........	 0.00
	210	2.1	6.45747E-001	-3.48926E-004	0.00000E+000	-1.04759E+000	0.00000E+000	9	...........	 0.00
	211	2.11	6.40832E-001	-3.48912E-004	0.00000E+000	-1.04759E+000	0.00000E+000	9	...........	 0.00
	212	2.12	6.35888E-001	-3.48879E-004	0.00000E+000	-1.04759E+000	0.00000E+000	9	...........	 0.00
	213	2.13	6.30995E-001	-3.48839E-004	0.00000E+000	-1.04759E+000	0.00000E+000	9	...........	 0.00
	214	2.14	6.26076E-001	-3.48893E-004	0.00000E+000	-1.04759E+000	0.00000E+000	9	...........	 0.00
	215	2.15	6.21175E-001	-3.49053E-004	0.00000E+000	-1.04759E+000	0.00000E+000	9	...........	 0.00
	216	2.16	6.16284E-001	-3.49035E-004	0.00000E+000	-1.04759E+000	0.00000E+000	9	...........	 0.00
	217	2.17	6.11402E-001	-3.48964E-004	0.00000E+000	-1.04759E+000	0.00000E+000	9	...........	 0.00
	218	2.18	6.06518E-001	-3.48932E-004	0.00000E+000	-1.04759E+000	0.00000E+000	9	...........	 0.00
	219	2.19	6.01614E-001	-3.48891E-004	0.00000E+000	-1.04759E+000	0.00000E+000	9	...........	 0.00
	220	2.2	5.96750E-001	-3.48878E-004	0.00000E+000	-1.04759E+000	0.00000E+000	9	...........	 0.00
	221	2.21	5.91887E-001	-3.48881E-004	0.00000E+000	-1.04759E+000	0.00000E+000	9	...........	 0.00
	222	2.22	5.86997E-001	-3.48878E-004	0.00000E+000	-1.04759E+000	0.00000E+000	9	...........	 0.00
	223	2.23	5.82128E-001	-3.48887E-004	0.00000E+000	-1.04759E+000	0.00000E+000	9	...........	 0.00
	224	2.24	5.77310E-001	-3.48886E-004	0.00000E+000	-1.04759E+000	0.00000E+000	9	...........	 0.00
	225	2.25	5.72435E-001	-3.48880E-004	0.00000E+000	-1.04759E+000	0.00000E+000	9	...........	 0.00
	226	2.26	5.67601E-001	-3.48908E-004	0.00000E+000	-1.04759E+000	0.00000E+000	9	...........	 0.00
	227	2.27	5.62741E-001	-3.48910E-004	0.00000E+000	-1.04759E+000	0.00000E+000	9	...........	 0.00
	228	2.28	5.57938E-001	-3.48897E-004	0.00000E+000	-1.04759E+000	0.00000E+000	9	...........	 0.00
	229	2.29	5.53107E-001	-3.48895E-004	0.00000E+000	-1.04759E+000	0.00000E+000	9	...........	 0.00
	230	2.3	5.48284E-001	-3.48897E-004	0.00000E+000	-1.04759E+000	0.00000E+000	9	...........	 0.00
	231	2.31	5.43474E-001	-3.48890E-004	0.00000E+000	-1.04759E+000	0.00000E+000	9	...........	 0.00
	232	2.32	5.38692E-001	-3.48893E-004	0.00000E+000	-1.04759E+000	0.00000E+000	9	...........	 0.00
	233	2.33	5.33883E-001	-3.48887E-004	0.00000E+000	-1.04759E+000	0.00000E+000	9	...........	 0.00
	234	2.34	5.29098E-001	-3.48890E-004	0.00000E+000	-1.04759E+000	0.00000E+000	9	...........	 0.00
	235	2.35	5.24309E-001	-3.48860E-004	0.00000E+000	-1.04759E+000	0.00000E+000	9	...........	 0.00
	236	2.36	5.19558E-001	-3.48846E-004	0.00000E+000	-1.04759E+000	0.00000E+000	9	...........	 0.00
	237	2.37	5.14814E-001	-3.48959E-004	0.00000E+000	-1.04759E+000	0.00000E+000	9	...........	 0.00
	238	2.38	5.10050E-001	-3.49064E-004	0.00000E+000	-1.04759E+000	0.00000E+000	9	...........	 0.00
	239	2.39	5.05313E-001	-3.48984E-004	0.00000E+000	-1.04759E+000	0.00000E+000	9	...........	 0.00
	240	2.4	5.00597E-001	-3.48940E-004	0.00000E+000	-1.04759E+000	0.00000E+000	9	...........	 0.00
	241	2.41	4.95877E-001	-3.48906E-004	0.00000E+000	-1.04759E+000	0.00000E+000	9	...........	 0.00
	242	2.42	4.91178E-001	-3.48884E-004	0.00000E+000	-1.04759E+000	0.00000E+000	9	...........	 0.00
	243	2.43	4.86479E-001	-3.48881E-004	0.00000E+000	-1.04759E+000	0.00000E+000	9	...........	 0.00
	244	2.44	4.81814E-001	-3.48880E-004	0.00000E+000	-1.04759E+000	0.00000E+000	9	...........	 0.00
	245	2.45	4.77159E-001	-3.48874E-004	0.00000E+000	-1.04759E+000	0.00000E+000	9	...........	 0.00
	246	2.46	4.72506E-001	-3.48889E-004	0.00000E+000	-1.04759E+000	0.00000E+000	9	...........	 0.00
	247	2.47	4.67887E-001	-3.48881E-004	0.00000E+000	-1.04759E+000	0.00000E+000	9	...........	 0.00
	248	2.48	4.63318E-001	-3.48888E-004	0.00000E+000	-1.04759E+000	0.00000E+000	9	...........	 0.00
	249	2.49	4.58725E-001	-3.48914E-004	0.00000E+000	-1.04759E+000	0.00000E+000	9	...........	 0.00
	250	2.5	4.54182E-001	-3.48937E-004	0.00000E+000	-1.04759E+000	0.00000E+000	9	...........	 0.00
	251	2.51	4.49677E-001	-3.48938E-004	0.00000E+000	-1.04759E+000	0.00000E+000	9	...........	 0.00
	252	2.52	4.45184E-001	-3.48876E-004	0.00000E+000	-1.04759E+000	0.00000E+000	9	...........	 0.00
	253	2.53	4.40739E-001	-3.48853E-004	0.00000E+000	-1.04759E+000	0.00000E+000	9	...........	 0.00
	254	2.54	4.36319E-001	-3.48874E-004	0.00000E+000	-1.04759E+000	0.00000E+000	9	...........	 0.00
	255	2.55	4.31930E-001	-3.48901E-004	0.00000E+000	-1.04759E+000	0.00000E+000	9	...........	 0.00
	256	2.56	4.27617E-001	-3.48927E-004	0.00000E+000	-1.04759E+000	0.00000E+000	9	...........	 0.00
	257	2.57	4.23321E-001	-3.48933E-004	0.00000E+000	-1.04759E+000	0.00000E+000	9	...........	 0.00
	258	2.58	4.19065E-001	-3.48915E-004	0.00000E+000	-1.04759E+000	0.00000E+000	9	...........	 0.00
	259	2.59	4.14886E-001	-3.48914E-004	0.00000E+000	-1.04759E+000	0.00000E+000	9	...........	 0.00
	260	2.6	4.10782E-001	-3.48902E-004	0.00000E+000	-1.04759E+000	0.00000E+000	9	...........	 0.00
	261	2.61	4.06697E-001	-3.48904E-004	0.00000E+000	-1.04759E+000	0.00000E+000	9	...........	 0.00
	262	2.62	4.02693E-001	-3.48907E-004	0.00000E+000	-1.04759E+000	0.00000E+000	9	...........	 0.00
	263	2.63	3.98755E-001	-3.48898E-004	0.00000E+000	-1.04759E+000	0.00000E+000	9	...........	 0.00
	264	2.64	3.94890E-001	-3.48888E-004	0.00000E+000	-1.04759E+000	0.00000E+000	9	...........	 0.00
	265	2.65	3.91089E-001	-3.48887E-004	0.00000E+000	-1.04759E+000	0.00000E+000	9	...........	 0.00
	266	2.66	3.87358E-001	-3.48888E-004	0.00000E+000	-1.04759E+000	0.00000E+000	9	...........	 0.00
	267	2.67	3.83689E-001	-3.48885E-004	0.00000E+000	-1.04759E+000	0.00000E+000	9	...........	 0.00
	268	2.68	3.80128E-001	-3.48892E-004	0.00000E+000	-1.04759E+000	0.00000E+000	9	...........	 0.00
	269	2.69	3.76623E-001	-3.48892E-004	0.00000E+000	-1.04759E+000	0.00000E+000	9	...........	 0.00
	270	2.7	3.73202E-001	-3.48895E-004	0.00000E+000	-1.04759E+000	0.00000E+000	9	...........	 0.00
	271	2.71	3.69835E-001	-3.48893E-004	0.00000E+000	-1.04759E+000	0.00000E+000	9	...........	 0.00
	272	2.72	3.66571E-001	-3.48898E-004	0.00000E+000	-1.04759E+000	0.00000E+000	9	...........	 0.00
	273	2.73	3.63381E-001	-3.48944E-004	0.00000E+000	-1.04759E+000	0.00000E+000	9	...........	 0.00
	274	2.74	3.60263E-001	-3.48912E-004	0.00000E+000	-1.04759E+000	0.00000E+000	9	...........	 0.00
	275	2.75	3.57188E-001	-3.48861E-004	0.00000E+000	-1.04759E+000	0.00000E+000	9	...........	 0.00
	276	2.76	3.54202E-001	-3.48843E-004	0.00000E+000	-1.04759E+000	0.00000E+000	9	...........	 0.00
	277	2.77	3.51272E-001	-3.48882E-004	0.00000E+000	-1.04759E+000	0.00000E+000	9	...........	 0.00
	278	2.78	3.48427E-001	-3.48893E-004	0.00000E+000	-1.04759E+000	0.00000E+000	9	...........	 0.00
	279	2.79	3.45620E-001	-3.48927E-004	0.00000E+000	-1.04759E+000	0.00000E+000	9	...........	 0.00
	280	2.8	3.42903E-001	-3.48923E-004	0.00000E+000	-1.04759E+000	0.00000E+000	9	...........	 0.00
	281	2.81	3.40226E-001	-3.48909E-004	0.00000E+000	-1.04759E+000	0.00000E+000	9	...........	 0.00
	282	2.82	3.37609E-001	-3.48909E-004	0.00000E+000	-1.04759E+000	0.00000E+000	9	...........	 0.00
	283	2.83	3.35037E-001	-3.48892E-004	0.00000E+000	-1.04759E+000	0.00000E+000	9	...........	 0.00
	284	2.84	3.32503E-001	-3.48901E-004	0.00000E+000	-1.04759E+000	0.00000E+000	9	...........	 0.00
	285	2.85	3.30027E-001	-3.48901E-004	0.00000E+000	-1.04759E+000	0.00000E+000	9	...........	 0.00
	286	2.86	3.27610E-001	-3.48890E-004	0.00000E+000	-1.04759E+000	0.00000E+000	9	...........	 0.00
	287	2.87	3.25223E-001	-3.48875E-004	0.00000E+000	-1.04759E+000	0.00000E+000	9	...........	 0.00
	288	2.88	3.22885E-001	-3.48863E-004	0.00000E+000	-1.04759E+000	0.00000E+000	9	...........	 0.00
	289	2.89	3.20580E-001	-3.48968E-004	0.00000E+000	-1.04759E+000	0.00000E+000	9	...........	 0.00
	290	2.9	3.18293E-001	-3.49063E-004	0.00000E+000	-1.04759E+000	0.00000E+000	9	...........	 0.00
	291	2.91	3.16059E-001	-3.48984E-004	0.00000E+000	-1.04759E+000	0.00000E+000	9	...........	 0.00
	292	2.92	3.13850E-001	-3.48918E-004	0.00000E+000	-1.04759E+000	0.00000E+000	9	...........	 0.00
	293	2.93	3.11675E-001	-3.48892E-004	0.00000E+000	-1.04759E+000	0.00000E+000	9	...........	 0.00
	294	2.94	3.09527E-001	-3.48880E-004	0.00000E+000	-1.04759E+000	0.00000E+000	9	...........	 0.00
	295	2.95	3.07386E-001	-3.48872E-004	0.00000E+000	-1.04759E+000	0.00000E+000	9	...........	 0.00
	296	2.96	3.05288E-001	-3.48872E-004	0.00000E+000	-1.04759E+000	0.00000E+000	9	...........	 0.00
	297	2.97	3.03230E-001	-3.48871E-004	0.00000E+000	-1.04759E+000	0.00000E+000	9	...........	 0.00
	298	2.98	3.01171E-001	-3.48888E-004	0.00000E+000	-1.04759E+000	0.00000E+000	9	...........	 0.00
	299	2.99	2.99159E-001	-3.48884E-004	0.00000E+000	-1.04759E+000	0.00000E+000	9	...........	 0.00
	300	3	2.97155E-001	-3.48890E-004	0.00000E+000	-1.04759E+000	0.00000E+000	9	...........	 0.00
	301	3.01	2.95165E-001	-3.48918E-004	0.00000E+000	-1.04759E+000	0.00000E+000	9	...........	 0.00
	302	3.02	2.93182E-001	-3.48915E-004	0.00000E+000	-1.04759E+000	0.00000E+000	9	...........	 0.00
	303	3.03	2.91228E-001	-3.48898E-004	0.00000E+000	-1.04759E+000	0.00000E+000	9	...........	 0.00
	304	3.04	2.89309E-001	-3.48897E-004	0.00000E+000	-1.04759E+000	0.00000E+000	9	...........	 0.00
	305	3.05	2.87390E-001	-3.48904E-004	0.00000E+000	-1.04759E+000	0.00000E+000	9	...........	 0.00
	306	3.06	2.85488E-001	-3.48905E-004	0.00000E+000	-1.04759E+000	0.00000E+000	9	...........	 0.00
	307	3.07	2.83604E-001	-3.48895E-004	0.00000E+000	-1.04759E+000	0.00000E+000	9	...........	 0.00
	308	3.08	2.81711E-001	-3.48897E-004	0.00000E+000	-1.04759E+000	0.00000E+000	9	...........	 0.00
	309	3.09	2.79865E-001	-3.48892E-004	0.00000E+000	-1.04759E+000	0.00000E+000	9	...........	 0.00
	310	3.1	2.78005E-001	-3.48877E-004	0.00000E+000	-1.04759E+000	0.00000E+000	9	...........	 0.00
	311	3.11	2.76174E-001	-3.48890E-004	0.00000E+000	-1.04759E+000	0.00000E+000	9	...........	 0.00
	312	3.12	2.74342E-001	-3.49043E-004	0.00000E+000	-1.04759E+000	0.00000E+000	9	...........	 0.00
	313	3.13	2.72532E-001	-3.49051E-004	0.00000E+000	-1.04759E+000	0.00000E+000	9	...........	 0.00
	314	3.14	2.70724E-001	-3.48941E-004	0.00000E+000	-1.04759E+000	0.00000E+000	9	...........	 0.00
	315	3.15	2.68898E-001	-3.48910E-004	0.00000E+000	-1.04759E+000	0.00000E+000	9	...........	 0.00
	316	3.16	2.67120E-001	-3.48889E-004	0.00000E+000	-1.04759E+000	0.00000E+000	9	...........	 0.00
	317	3.17	2.65340E-001	-3.48873E-004	0.00000E+000	-1.04759E+000	0.00000E+000	9	...........	 0.00
	318	3.18	2.63572E-001	-3.48876E-004	0.00000E+000	-1.04759E+000	0.00000E+000	9	...........	 0.00
	319	3.19	2.61797E-001	-3.48884E-004	0.00000E+000	-1.04759E+000	0.00000E+000	9	...........	 0.00
	320	3.2	2.60035E-001	-3.48885E-004	0.00000E+000	-1.04759E+000	0.00000E+000	9	...........	 0.00
	321	3.21	2.58276E-001	-3.48894E-004	0.00000E+000	-1.04759E+000	0.00000E+000	9	...........	 0.00
	322	3.22	2.56507E-001	-3.48886E-004	0.00000E+000	-1.04759E+000	0.00000E+000	9	...........	 0.00
	323	3.23	2.54716E-001	-3.48903E-004	0.00000E+000	-1.04759E+000	0.00000E+000	9	...........	 0.00
	324	3.24	2.52971E-001	-3.48921E-004	0.00000E+000	-1.04759E+000	0.00000E+000	9	...........	 0.00
	325	3.25	2.51213E-001	-3.48920E-004	0.00000E+000	-1.04759E+000	0.00000E+000	9	...........	 0.00
	326	3.26	2.49467E-001	-3.48887E-004	0.00000E+000	-1.04759E+000	0.00000E+000	9	...........	 0.00
	327	3.27	2.47726E-001	-3.48850E-004	0.00000E+000	-1.04759E+000	0.00000E+000	9	...........	 0.00
	328	3.28	2.45969E-001	-3.48860E-004	0.00000E+000	-1.04759E+000	0.00000E+000	9	...........	 0.00
	329	3.29	2.44221E-001	-3.48961E-004	0.00000E+000	-1.04759E+000	0.00000E+000	9	...........	 0.00
	330	3.3	2.42450E-001	-3.48959E-004	0.00000E+000	-1.04759E+000	0.00000E+000	9	...........	 0.00
	331	3.31	2.40937E-001	-3.48962E-004	0.00000E+000	-1.04759E+000	0.00000E+000	9	...........	 0.00
	332	3.32	2.39177E-001	-3.48936E-004	0.00000E+000	-1.04759E+000	0.00000E+000	9	...........	 0.00
	333	3.33	2.37414E-001	-3.48911E-004	0.00000E+000	-1.04759E+000	0.00000E+000	9	...........	 0.00
	334	3.34	2.35649E-001	-3.48911E-004	0.00000E+000	-1.04759E+000	0.00000E+000	9	...........	 0.00
	335	3.35	2.33878E-001	-3.48903E-004	0.00000E+000	-1.04759E+000	0.00000E+000	9	...........	 0.00
	336	3.36	2.32104E-001	-3.48902E-004	0.00000E+000	-1.04759E+000	0.00000E+000	9	...........	 0.00
	337	3.37	2.30323E-001	-3.48900E-004	0.00000E+000	-1.04759E+000	0.00000E+000	9	...........	 0.00
	338	3.38	2.28543E-001	-3.48888E-004	0.00000E+000	-1.04759E+000	0.00000E+000	9	...........	 0.00
	339	3.39	2.26751E-001	-3.48880E-004	0.00000E+000	-1.04759E+000	0.00000E+000	9	...........	 0.00
	340	3.4	2.24957E-001	-3.48878E-004	0.00000E+000	-1.04759E+000	0.00000E+000	9	...........	 0.00
	341	3.41	2.23158E-001	-3.48891E-004	0.00000E+000	-1.04759E+000	0.00000E+000	9	...........	 0.00
	342	3.42	2.21348E-001	-3.48895E-004	0.00000E+000	-1.04759E+000	0.00000E+000	9	...........	 0.00
	343	3.43	2.19535E-001	-3.48898E-004	0.00000E+000	-1.04759E+000	0.00000E+000	9	...........	 0.00
	344	3.44	2.17710E-001	-3.48899E-004	0.00000E+000	-1.04759E+000	0.00000E+000	9	...........	 0.00
	345	3.45	2.15883E-001	-3.48893E-004	0.00000E+000	-1.04759E+000	0.00000E+000	9	...........	 0.00
	346	3.46	2.14048E-001	-3.48886E-004	0.00000E+000	-1.04759E+000	0.00000E+000	9	...........	 0.00
	347	3.47	2.12200E-001	-3.48897E-004	0.00000E+000	-1.04759E+000	0.00000E+000	9	...........	 0.00
	348	3.48	2.10350E-001	-3.48908E-004	0.00000E+000	-1.04759E+000	0.00000E+000	9	...........	 0.00
	349	3.49	2.08488E-001	-3.48870E-004	0.00000E+000	-1.04759E+000	0.00000E+000	9	...........	 0.00
	350	3.5	2.06618E-001	-3.48861E-004	0.00000E+000	-1.04759E+000	0.00000E+000	9	...........	 0.00
	351	3.51	2.04733E-001	-3.48925E-004	0.00000E+000	-1.04759E+000	0.00000E+000	9	...........	 0.00
	352	3.52	2.02847E-001	-3.48965E-004	0.00000E+000	-1.04759E+000	0.00000E+000	9	...........	 0.00
	353	3.53	2.00949E-001	-3.48934E-004	0.00000E+000	-1.04759E+000	0.00000E+000	9	...........	 0.00
	354	3.54	1.99047E-001	-3.48934E-004	0.00000E+000	-1.04759E+000	0.00000E+000	9	...........	 0.00
	355	3.55	1.97132E-001	-3.48914E-004	0.00000E+000	-1.04759E+000	0.00000E+000	9	...........	 0.00
	356	3.56	1.95209E-001	-3.48918E-004	0.00000E+000	-1.04759E+000	0.00000E+000	9	...........	 0.00
	357	3.57	1.93275E-001	-3.48926E-004	0.00000E+000	-1.04759E+000	0.00000E+000	9	...........	 0.00
	358	3.58	1.91338E-001	-3.48906E-004	0.00000E+000	-1.04759E+000	0.00000E+000	9	...........	 0.00
	359	3.59	1.89387E-001	-3.48898E-004	0.00000E+000	-1.04759E+000	0.00000E+000	9	...........	 0.00
	360	3.6	1.87427E-001	-3.48892E-004	0.00000E+000	-1.04759E+000	0.00000E+000	9	...........	 0.00
	361	3.61	1.85457E-001	-3.48881E-004	0.00000E+000	-1.04759E+000	0.00000E+000	9	...........	 0.00
	362	3.62	1.83481E-001	-3.48880E-004	0.00000E+000	-1.04759E+000	0.00000E+000	9	...........	 0.00
	363	3.63	1.81495E-001	-3.48898E-004	0.00000E+000	-1.04759E+000	0.00000E+000	9	...........	 0.00
	364	3.64	1.79497E-001	-3.49008E-004	0.00000E+000	-1.04759E+000	0.00000E+000	9	...........	 0.00
	365	3.65	1.77490E-001	-3.49002E-004	0.00000E+000	-1.04759E+000	0.00000E+000	9	...........	 0.00
	366	3.66	1.75480E-001	-3.48909E-004	0.00000E+000	-1.04759E+000	0.00000E+000	9	...........	 0.00
	367	3.67	1.73458E-001	-3.48876E-004	0.00000E+000	-1.04759E+000	0.00000E+000	9	...........	 0.00
	368	3.68	1.71425E-001	-3.48867E-004	0.00000E+000	-1.04759E+000	0.00000E+000	9	...........	 0.00
	369	3.69	1.69390E-001	-3.48861E-004	0.00000E+000	-1.04759E+000	0.00000E+000	9	...........	 0.00
	370	3.7	1.67340E-001	-3.48873E-004	0.00000E+000	-1.04759E+000	0.00000E+000	9	...........	 0.00
	371	3.71	1.65286E-001	-3.48882E-004	0.00000E+000	-1.04759E+000	0.00000E+000	9	...........	 0.00
	372	3.72	1.63225E-001	-3.48884E-004	0.00000E+000	-1.04759E+000	0.00000E+000	9	...........	 0.00
	373	3.73	1.61157E-001	-3.48897E-004	0.00000E+000	-1.04759E+000	0.00000E+000	9	...........	 0.00
	374	3.74	1.59083E-001	-3.48882E-004	0.00000E+000	-1.04759E+000	0.00000E+000	9	...........	 0.00
	375	3.75	1.56998E-001	-3.48901E-004	0.00000E+000	-1.04759E+000	0.00000E+000	9	...........	 0.00
	376	3.76	1.54910E-001	-3.48916E-004	0.00000E+000	-1.04759E+000	0.00000E+000	9	...........	 0.00
	377	3.77	1.52817E-001	-3.48890E-004	0.00000E+000	-1.04759E+000	0.00000E+000	9	...........	 0.00
	378	3.78	1.50708E-001	-3.48899E-004	0.00000E+000	-1.04759E+000	0.00000E+000	9	...........	 0.00
	379	3.79	1.48597E-001	-3.48900E-004	0.00000E+000	-1.04759E+000	0.00000E+000	9	...........	 0.00
	380	3.8	1.46481E-001	-3.48894E-004	0.00000E+000	-1.04759E+000	0.00000E+000	9	...........	 0.00
	381	3.81	1.44359E-001	-3.48894E-004	0.00000E+000	-1.04759E+000	0.00000E+000	9	...........	 0.00
	382	3.82	1.42230E-001	-3.48892E-004	0.00000E+000	-1.04759E+000	0.00000E+000	9	...........	 0.00
	383	3.83	1.40096E-001	-3.48895E-004	0.00000E+000	-1.04759E+000	0.00000E+000	9	...........	 0.00
	384	3.84	1.37957E-001	-3.48897E-004	0.00000E+000	-1.04759E+000	0.00000E+000	9	...........	 0.00
	385	3.85	1.35815E-001	-3.48881E-004	0.00000E+000	-1.04759E+000	0.00000E+000	9	...........	 0.00
	386	3.86	1.33666E-001	-3.48938E-004	0.00000E+000	-1.04759E+000	0.00000E+000	9	...........	 0.00
	387	3.87	1.31510E-001	-3.49022E-004	0.00000E+000	-1.04759E+000	0.00000E+000	9	...........	 0.00
	388	3.88	1.29357E-001	-3.48948E-004	0.00000E+000	-1.04759E+000	0.00000E+000	9	...........	 0.00
	389	3.89	1.27196E-001	-3.48887E-004	0.00000E+000	-1.04759E+000	0.00000E+000	9	...........	 0.00
	390	3.9	1.25030E-001	-3.48877E-004	0.00000E+000	-1.04759E+000	0.00000E+000	9	...........	 0.00
	391	3.91	1.22862E-001	-3.48867E-004	0.00000E+000	-1.04759E+000	0.00000E+000	9	...........	 0.00
	392	3.92	1.20692E-001	-3.48865E-004	0.00000E+000	-1.04759E+000	0.00000E+000	9	...........	 0.00
	393	3.93	1.18513E-001	-3.48883E-004	0.00000E+000	-1.04759E+000	0.00000E+000	9	...........	 0.00
	394	3.94	1.16337E-001	-3.48889E-004	0.00000E+000	-1.04759E+000	0.00000E+000	9	...........	 0.00
	395	3.95	1.14157E-001	-3.48902E-004	0.00000E+000	-1.04759E+000	0.00000E+000	9	...........	 0.00
	396	3.96	1.11971E-001	-3.48895E-004	0.00000E+000	-1.04759E+000	0.00000E+000	9	...........	 0.00
	397	3.97	1.09786E-001	-3.48895E-004	0.00000E+000	-1.04759E+000	0.00000E+000	9	...........	 0.00
	398	3.98	1.07597E-001	-3.48918E-004	0.00000E+000	-1.04759E+000	0.00000E+000	9	...........	 0.00
	399	3.99	1.05408E-001	-3.48910E-004	0.00000E+000	-1.04759E+000	0.00000E+000	9	...........	 0.00
	400	4	1.03217E-001	-3.48900E-004	0.00000E+000	-1.04759E+000	0.00000E+000	9	...........	 0.00
	401	4.01	1.01028E-001	-3.48858E-004	0.00000E+000	-1.04759E+000	0.00000E+000	9	...........	 0.00
	402	4.02	9.88337E-002	-3.48850E-004	0.00000E+000	-1.04759E+000	0.00000E+000	9	...........	 0.00
	403	4.03	9.66335E-002	-3.48976E-004	0.00000E+000	-1.04759E+000	0.00000E+000	9	...........	 0.00
	404	4.04	9.44346E-002	-3.49031E-004	0.00000E+000	-1.04759E+000	0.00000E+000	9	...........	 0.00
	405	4.05	9.22379E-002	-3.48984E-004	0.00000E+000	-1.04759E+000	0.00000E+000	9	...........	 0.00
	406	4.06	9.00399E-002	-3.48958E-004	0.00000E+000	-1.04759E+000	0.00000E+000	9	...........	 0.00
	407	4.07	8.78426E-002	-3.48925E-004	0.00000E+000	-1.04759E+000	0.00000E+000	9	...........	 0.00
	408	4.08	8.56420E-002	-3.48903E-004	0.00000E+000	-1.04759E+000	0.00000E+000	9	...........	 0.00
	409	4.09	8.34417E-002	-3.48899E-004	0.00000E+000	-1.04759E+000	0.00000E+000	9	...........	 0.00
	410	4.1	8.12430E-002	-3.48891E-004	0.00000E+000	-1.04759E+000	0.00000E+000	9	...........	 0.00
	411	4.11	7.90380E-002	-3.48890E-004	0.00000E+000	-1.04759E+000	0.00000E+000	9	...........	 0.00
	412	4.12	7.68389E-002	-3.48887E-004	0.00000E+000	-1.04759E+000	0.00000E+000	9	...........	 0.00
	413	4.13	7.46363E-002	-3.48883E-004	0.00000E+000	-1.04759E+000	0.00000E+000	9	...........	 0.00
	414	4.14	7.24319E-002	-3.48883E-004	0.00000E+000	-1.04759E+000	0.00000E+000	9	...........	 0.00
	415	4.15	7.02274E-002	-3.48904E-004	0.00000E+000	-1.04759E+000	0.00000E+000	9	...........	 0.00
	416	4.16	6.80248E-002	-3.48896E-004	0.00000E+000	-1.04759E+000	0.00000E+000	9	...........	 0.00
	417	4.17	6.58202E-002	-3.48897E-004	0.00000E+000	-1.04759E+000	0.00000E+000	9	...........	 0.00
	418	4.18	6.36168E-002	-3.48890E-004	0.00000E+000	-1.04759E+000	0.00000E+000	9	...........	 0.00
	419	4.19	6.14118E-002	-3.48889E-004	0.00000E+000	-1.04759E+000	0.00000E+000	9	...........	 0.00
	420	4.2	5.92124E-002	-3.48894E-004	0.00000E+000	-1.04759E+000	0.00000E+000	9	...........	 0.00
	421	4.21	5.70068E-002	-3.48894E-004	0.00000E+000	-1.04759E+000	0.00000E+000	9	...........	 0.00
	422	4.22	5.48031E-002	-3.48899E-004	0.00000E+000	-1.04759E+000	0.00000E+000	9	...........	 0.00
	423	4.23	5.25990E-002	-3.48884E-004	0.00000E+000	-1.04759E+000	0.00000E+000	9	...........	 0.00
	424	4.24	5.03955E-002	-3.48849E-004	0.00000E+000	-1.04759E+000	0.00000E+000	9	...........	 0.00
	425	4.25	4.81860E-002	-3.48866E-004	0.00000E+000	-1.04759E+000	0.00000E+000	9	...........	 0.00
	426	4.26	4.59779E-002	-3.49009E-004	0.00000E+000	-1.04759E+000	0.00000E+000	9	...........	 0.00
	427	4.27	4.37759E-002	-3.48997E-004	0.00000E+000	-1.04759E+000	0.00000E+000	9	...........	 0.00
	428	4.28	4.15750E-002	-3.48959E-004	0.00000E+000	-1.04759E+000	0.00000E+000	9	...........	 0.00
	429	4.29	3.93732E-002	-3.48938E-004	0.00000E+000	-1.04759E+000	0.00000E+000	9	...........	 0.00
	430	4.3	3.71706E-002	-3.48908E-004	0.00000E+000	-1.04759E+000	0.00000E+000	9	...........	 0.00
	431	4.31	3.49689E-002	-3.48898E-004	0.00000E+000	-1.04759E+000	0.00000E+000	9	...........	 0.00
	432	4.32	3.27684E-002	-3.48892E-004	0.00000E+000	-1.04759E+000	0.00000E+000	9	...........	 0.00
	433	4.33	3.05672E-002	-3.48878E-004	0.00000E+000	-1.04759E+000	0.00000E+000	9	...........	 0.00
	434	4.34	2.83657E-002	-3.48890E-004	0.00000E+000	-1.04759E+000	0.00000E+000	9	...........	 0.00
	435	4.35	2.61662E-002	-3.48892E-004	0.00000E+000	-1.04759E+000	0.00000E+000	9	...........	 0.00
	436	4.36	2.39685E-002	-3.48889E-004	0.00000E+000	-1.04759E+000	0.00000E+000	9	...........	 0.00
	437	4.37	2.17520E-002	-3.48896E-004	0.00000E+000	-1.04759E+000	0.00000E+000	9	...........	 0.00
	438	4.38	1.95624E-002	-3.48933E-004	0.00000E+000	-1.04759E+000	0.00000E+000	9	...........	 0.00
	439	4.39	1.73714E-002	-3.48992E-004	0.00000E+000	-1.04759E+000	0.00000E+000	9	...........	 0.00
	440	4.4	1.51863E-002	-3.48935E-004	0.00000E+000	-1.04759E+000	0.00000E+000	9	...........	 0.00
	441	4.41	1.30036E-002	-3.48882E-004	0.00000E+000	-1.04759E+000	0.00000E+000	9	...........	 0.00
	442	4.42	1.08214E-002	-3.48867E-004	0.00000E+000	-1.04759E+000	0.00000E+000	9	...........	 0.00
	443	4.43	8.64113E-003	-3.48865E-004	0.00000E+000	-1.04759E+000	0.00000E+000	9	...........	 0.00
	444	4.44	6.46632E-003	-3.48870E-004	0.00000E+000	-1.04759E+000	0.00000E+000	9	...........	 0.00
	445	4.45	4.29238E-003	-3.48891E-004	0.00000E+000	-1.04759E+000	0.00000E+000	9	...........	 0.00
	446	4.46	2.12443E-003	-3.48895E-004	0.00000E+000	-1.04759E+000	0.00000E+000	9	...........	 0.00
	447	4.47	-4.13088E-005	-3.48893E-004	0.00000E+000	-1.04759E+000	0.00000E+000	9	...........	 0.00
