EXPLAIN
TAG	CHRONOP
TITLE	LABEL	Chronopotentiometry Scan	Test Identifier
DATE	LABEL	23/12/2024	Date
TIME	LABEL	19:13:16	Time
NOTES	NOTES	1	Notes...
	
PSTAT	PSTAT	IFC1000-07087	Potentiostat
IPRESTEP	QUANT	0.00000E+000	Pre-step Current(A)
TPRESTEP	QUANT	0.00000E+000	Pre-step Delay Time (s)
ISTEP1	QUANT	3.49125E-004	A Real Number
TSTEP1	QUANT	5.00000E+003	Step 1 Time (s)
ISTEP2	QUANT	-3.49125E-004	A Real Number
TSTEP2	QUANT	5.00000E+003	Step 2 Time (s)
SAMPLETIME	QUANT	1.00000E-002	Sample Period (s)
DECIMATE	TOGGLE	F	Decimate
VLIMITLOWER	QUANT	0.00000E+000	Lower Limit V (V)
VLIMITUPPER	QUANT	8.50000E-001	Upper Limit V (V)
EQDELAY	QUANT	1.00000E+000	Equil. Time (s)
SAMPLINGMODE	SELECTOR	1	Sampling Mode
AREA	QUANT	2.00000E+000	Sample Area (cm^2)
ELECTRODETYPE	SELECTOR	0	Electrode Type
STRIPPING	TOGGLE	F	Used for Stripping
SEQUENCER	TOGGLE	TRUE	Run as Sequence
PSTATMODEL	IQUANT	48	Pstat Model
PSTATSECTION	LABEL	IFC1000-07087	Pstat Section
PSTATSERIALNO	LABEL	07087	Pstat Serial Number
CTRLMODE	IQUANT	0	Control Mode
ELECTROMETER	IQUANT	0	RE=0 or CS=1
IESTAB	IQUANT	0	I/E Stability
CASPEED	IQUANT	4	Control Amp Speed
CONVENTION	IQUANT	1	Current Convention
ICHRANGE	IQUANT	2	Ich Range
ICHRANGEMODE	TOGGLE	T	Ich Auto Range
ICHOFFSETENABLE	TOGGLE	F	Ich Offset Enable
ICHOFFSET	QUANT	0	Ich Offset (V)
ICHFILTER	IQUANT	3	Ich Filter
VCHRANGE	IQUANT	3	Vch Range
VCHRANGEMODE	TOGGLE	T	Vch Auto Range
VCHOFFSETENABLE	TOGGLE	F	Vch Offset Enable
VCHOFFSET	QUANT	0	Vch Offset (V)
VCHFILTER	IQUANT	3	Vch Filter
IERANGELOWERLIMIT	IQUANT	4	I/E Range Lower Limit
IERANGEMODE	TOGGLE	F	I/E AutoRange
IERANGE	IQUANT	11	I/E Range
ACHSELECT	IQUANT	0	Ach Select
ACHRANGE	IQUANT	2	Ach Range
ACHOFFSETENABLE	TOGGLE	F	Ach Offset Enable
ACHOFFSET	QUANT	0	Ach Offset (V)
ACHFILTER	IQUANT	1	Ach Filter
SENSECABLEID	IQUANT	14	Sense Cable ID
PWRCABLEID	IQUANT	14	Power Cable ID
DCCALDATE	LABEL	11/14/2024	DC Calibration Date
ACCALDATE	LABEL	7/17/2019	AC Calibration Date
FRAMEWORKVERSION	LABEL	7.10.3	Framework Version
INSTRUMENTVERSION	LABEL	4.91	Instrument Version
COMMVERSION	LABEL	3.10	Communications Version
CPUPLDVERSION	LABEL	1.10	CPU PLD Version
CTRLPLDVERSION	LABEL	0.00	CTRL PLD Version
PSTATPLDVERSION	LABEL	0.00	PSTAT PLD Version
CURVE	TABLE	447
	Pt	T	Vf	Im	Vu	Sig	Ach	IERange	Over	Temp
	#	s	V vs. Ref.	A	V	V	V	#	bits	deg C
	0	0	3.37450E-001	-1.13007E-007	0.00000E+000	0.00000E+000	0.00000E+000	9	...........	 0.00
	1	0.01	3.49086E-001	3.48645E-004	0.00000E+000	1.04759E+000	0.00000E+000	9	...........	 0.00
	2	0.02	3.51801E-001	3.48642E-004	0.00000E+000	1.04759E+000	0.00000E+000	9	...........	 0.00
	3	0.03	3.54184E-001	3.48649E-004	0.00000E+000	1.04759E+000	0.00000E+000	9	...........	 0.00
	4	0.04	3.56453E-001	3.48641E-004	0.00000E+000	1.04759E+000	0.00000E+000	9	...........	 0.00
	5	0.05	3.58676E-001	3.48626E-004	0.00000E+000	1.04759E+000	0.00000E+000	9	...........	 0.00
	6	0.06	3.60905E-001	3.48634E-004	0.00000E+000	1.04759E+000	0.00000E+000	9	...........	 0.00
	7	0.07	3.63067E-001	3.48639E-004	0.00000E+000	1.04759E+000	0.00000E+000	9	...........	 0.00
	8	0.08	3.65235E-001	3.48636E-004	0.00000E+000	1.04759E+000	0.00000E+000	9	...........	 0.00
	9	0.09	3.67394E-001	3.48636E-004	0.00000E+000	1.04759E+000	0.00000E+000	9	...........	 0.00
	10	0.1	3.69543E-001	3.48636E-004	0.00000E+000	1.04759E+000	0.00000E+000	9	...........	 0.00
	11	0.11	3.71688E-001	3.48640E-004	0.00000E+000	1.04759E+000	0.00000E+000	9	...........	 0.00
	12	0.12	3.73859E-001	3.48639E-004	0.00000E+000	1.04759E+000	0.00000E+000	9	...........	 0.00
	13	0.13	3.75996E-001	3.48660E-004	0.00000E+000	1.04759E+000	0.00000E+000	9	...........	 0.00
	14	0.14	3.78136E-001	3.48674E-004	0.00000E+000	1.04759E+000	0.00000E+000	9	...........	 0.00
	15	0.15	3.80283E-001	3.48631E-004	0.00000E+000	1.04759E+000	0.00000E+000	9	...........	 0.00
	16	0.16	3.82436E-001	3.48510E-004	0.00000E+000	1.04759E+000	0.00000E+000	9	...........	 0.00
	17	0.17	3.84610E-001	3.48545E-004	0.00000E+000	1.04759E+000	0.00000E+000	9	...........	 0.00
	18	0.18	3.86778E-001	3.48582E-004	0.00000E+000	1.04759E+000	0.00000E+000	9	...........	 0.00
	19	0.19	3.88959E-001	3.48605E-004	0.00000E+000	1.04759E+000	0.00000E+000	9	...........	 0.00
	20	0.2	3.91134E-001	3.48634E-004	0.00000E+000	1.04759E+000	0.00000E+000	9	...........	 0.00
	21	0.21	3.93333E-001	3.48646E-004	0.00000E+000	1.04759E+000	0.00000E+000	9	...........	 0.00
	22	0.22	3.95520E-001	3.48646E-004	0.00000E+000	1.04759E+000	0.00000E+000	9	...........	 0.00
	23	0.23	3.97754E-001	3.48649E-004	0.00000E+000	1.04759E+000	0.00000E+000	9	...........	 0.00
	24	0.24	3.99958E-001	3.48641E-004	0.00000E+000	1.04759E+000	0.00000E+000	9	...........	 0.00
	25	0.25	4.02178E-001	3.48648E-004	0.00000E+000	1.04759E+000	0.00000E+000	9	...........	 0.00
	26	0.26	4.04421E-001	3.48649E-004	0.00000E+000	1.04759E+000	0.00000E+000	9	...........	 0.00
	27	0.27	4.06651E-001	3.48637E-004	0.00000E+000	1.04759E+000	0.00000E+000	9	...........	 0.00
	28	0.28	4.08915E-001	3.48606E-004	0.00000E+000	1.04759E+000	0.00000E+000	9	...........	 0.00
	29	0.29	4.11189E-001	3.48570E-004	0.00000E+000	1.04759E+000	0.00000E+000	9	...........	 0.00
	30	0.3	4.13473E-001	3.48624E-004	0.00000E+000	1.04759E+000	0.00000E+000	9	...........	 0.00
	31	0.31	4.15760E-001	3.48662E-004	0.00000E+000	1.04759E+000	0.00000E+000	9	...........	 0.00
	32	0.32	4.18067E-001	3.48676E-004	0.00000E+000	1.04759E+000	0.00000E+000	9	...........	 0.00
	33	0.33	4.20387E-001	3.48672E-004	0.00000E+000	1.04759E+000	0.00000E+000	9	...........	 0.00
	34	0.34	4.22717E-001	3.48658E-004	0.00000E+000	1.04759E+000	0.00000E+000	9	...........	 0.00
	35	0.35	4.25091E-001	3.48635E-004	0.00000E+000	1.04759E+000	0.00000E+000	9	...........	 0.00
	36	0.36	4.27458E-001	3.48641E-004	0.00000E+000	1.04759E+000	0.00000E+000	9	...........	 0.00
	37	0.37	4.29819E-001	3.48637E-004	0.00000E+000	1.04759E+000	0.00000E+000	9	...........	 0.00
	38	0.38	4.32180E-001	3.48644E-004	0.00000E+000	1.04759E+000	0.00000E+000	9	...........	 0.00
	39	0.39	4.34561E-001	3.48644E-004	0.00000E+000	1.04759E+000	0.00000E+000	9	...........	 0.00
	40	0.4	4.37007E-001	3.48628E-004	0.00000E+000	1.04759E+000	0.00000E+000	9	...........	 0.00
	41	0.41	4.39419E-001	3.48630E-004	0.00000E+000	1.04759E+000	0.00000E+000	9	...........	 0.00
	42	0.42	4.41849E-001	3.48640E-004	0.00000E+000	1.04759E+000	0.00000E+000	9	...........	 0.00
	43	0.43	4.44305E-001	3.48646E-004	0.00000E+000	1.04759E+000	0.00000E+000	9	...........	 0.00
	44	0.44	4.46757E-001	3.48649E-004	0.00000E+000	1.04759E+000	0.00000E+000	9	...........	 0.00
	45	0.45	4.49242E-001	3.48648E-004	0.00000E+000	1.04759E+000	0.00000E+000	9	...........	 0.00
	46	0.46	4.51737E-001	3.48643E-004	0.00000E+000	1.04759E+000	0.00000E+000	9	...........	 0.00
	47	0.47	4.54228E-001	3.48641E-004	0.00000E+000	1.04759E+000	0.00000E+000	9	...........	 0.00
	48	0.48	4.56746E-001	3.48642E-004	0.00000E+000	1.04759E+000	0.00000E+000	9	...........	 0.00
	49	0.49	4.59280E-001	3.48646E-004	0.00000E+000	1.04759E+000	0.00000E+000	9	...........	 0.00
	50	0.5	4.61864E-001	3.48636E-004	0.00000E+000	1.04759E+000	0.00000E+000	9	...........	 0.00
	51	0.51	4.64437E-001	3.48589E-004	0.00000E+000	1.04759E+000	0.00000E+000	9	...........	 0.00
	52	0.52	4.67014E-001	3.48589E-004	0.00000E+000	1.04759E+000	0.00000E+000	9	...........	 0.00
	53	0.53	4.69611E-001	3.48651E-004	0.00000E+000	1.04759E+000	0.00000E+000	9	...........	 0.00
	54	0.54	4.72236E-001	3.48670E-004	0.00000E+000	1.04759E+000	0.00000E+000	9	...........	 0.00
	55	0.55	4.74894E-001	3.48671E-004	0.00000E+000	1.04759E+000	0.00000E+000	9	...........	 0.00
	56	0.56	4.77540E-001	3.48668E-004	0.00000E+000	1.04759E+000	0.00000E+000	9	...........	 0.00
	57	0.57	4.80217E-001	3.48637E-004	0.00000E+000	1.04759E+000	0.00000E+000	9	...........	 0.00
	58	0.58	4.82916E-001	3.48636E-004	0.00000E+000	1.04759E+000	0.00000E+000	9	...........	 0.00
	59	0.59	4.85631E-001	3.48636E-004	0.00000E+000	1.04759E+000	0.00000E+000	9	...........	 0.00
	60	0.6	4.88391E-001	3.48635E-004	0.00000E+000	1.04759E+000	0.00000E+000	9	...........	 0.00
	61	0.61	4.91141E-001	3.48638E-004	0.00000E+000	1.04759E+000	0.00000E+000	9	...........	 0.00
	62	0.62	4.93931E-001	3.48638E-004	0.00000E+000	1.04759E+000	0.00000E+000	9	...........	 0.00
	63	0.63	4.96725E-001	3.48626E-004	0.00000E+000	1.04759E+000	0.00000E+000	9	...........	 0.00
	64	0.64	4.99560E-001	3.48637E-004	0.00000E+000	1.04759E+000	0.00000E+000	9	...........	 0.00
	65	0.65	5.02431E-001	3.48647E-004	0.00000E+000	1.04759E+000	0.00000E+000	9	...........	 0.00
	66	0.66	5.05300E-001	3.48678E-004	0.00000E+000	1.04759E+000	0.00000E+000	9	...........	 0.00
	67	0.67	5.08184E-001	3.48621E-004	0.00000E+000	1.04759E+000	0.00000E+000	9	...........	 0.00
	68	0.68	5.11098E-001	3.48494E-004	0.00000E+000	1.04759E+000	0.00000E+000	9	...........	 0.00
	69	0.69	5.14067E-001	3.48528E-004	0.00000E+000	1.04759E+000	0.00000E+000	9	...........	 0.00
	70	0.7	5.17024E-001	3.48586E-004	0.00000E+000	1.04759E+000	0.00000E+000	9	...........	 0.00
	71	0.71	5.20017E-001	3.48605E-004	0.00000E+000	1.04759E+000	0.00000E+000	9	...........	 0.00
	72	0.72	5.23039E-001	3.48637E-004	0.00000E+000	1.04759E+000	0.00000E+000	9	...........	 0.00
	73	0.73	5.26093E-001	3.48647E-004	0.00000E+000	1.04759E+000	0.00000E+000	9	...........	 0.00
	74	0.74	5.29154E-001	3.48651E-004	0.00000E+000	1.04759E+000	0.00000E+000	9	...........	 0.00
	75	0.75	5.32236E-001	3.48654E-004	0.00000E+000	1.04759E+000	0.00000E+000	9	...........	 0.00
	76	0.76	5.35337E-001	3.48645E-004	0.00000E+000	1.04759E+000	0.00000E+000	9	...........	 0.00
	77	0.77	5.38492E-001	3.48646E-004	0.00000E+000	1.04759E+000	0.00000E+000	9	...........	 0.00
	78	0.78	5.41654E-001	3.48644E-004	0.00000E+000	1.04759E+000	0.00000E+000	9	...........	 0.00
	79	0.79	5.44828E-001	3.48623E-004	0.00000E+000	1.04759E+000	0.00000E+000	9	...........	 0.00
	80	0.8	5.48035E-001	3.48625E-004	0.00000E+000	1.04759E+000	0.00000E+000	9	...........	 0.00
	81	0.81	5.51277E-001	3.48637E-004	0.00000E+000	1.04759E+000	0.00000E+000	9	...........	 0.00
	82	0.82	5.54524E-001	3.48641E-004	0.00000E+000	1.04759E+000	0.00000E+000	9	...........	 0.00
	83	0.83	5.57804E-001	3.48644E-004	0.00000E+000	1.04759E+000	0.00000E+000	9	...........	 0.00
	84	0.84	5.61079E-001	3.48642E-004	0.00000E+000	1.04759E+000	0.00000E+000	9	...........	 0.00
	85	0.85	5.64421E-001	3.48631E-004	0.00000E+000	1.04759E+000	0.00000E+000	9	...........	 0.00
	86	0.86	5.67757E-001	3.48621E-004	0.00000E+000	1.04759E+000	0.00000E+000	9	...........	 0.00
	87	0.87	5.71096E-001	3.48627E-004	0.00000E+000	1.04759E+000	0.00000E+000	9	...........	 0.00
	88	0.88	5.74477E-001	3.48666E-004	0.00000E+000	1.04759E+000	0.00000E+000	9	...........	 0.00
	89	0.89	5.77882E-001	3.48680E-004	0.00000E+000	1.04759E+000	0.00000E+000	9	...........	 0.00
	90	0.9	5.81272E-001	3.48560E-004	0.00000E+000	1.04759E+000	0.00000E+000	9	...........	 0.00
	91	0.91	5.84707E-001	3.48495E-004	0.00000E+000	1.04759E+000	0.00000E+000	9	...........	 0.00
	92	0.92	5.88142E-001	3.48562E-004	0.00000E+000	1.04759E+000	0.00000E+000	9	...........	 0.00
	93	0.93	5.91613E-001	3.48587E-004	0.00000E+000	1.04759E+000	0.00000E+000	9	...........	 0.00
	94	0.94	5.95096E-001	3.48618E-004	0.00000E+000	1.04759E+000	0.00000E+000	9	...........	 0.00
	95	0.95	5.98571E-001	3.48652E-004	0.00000E+000	1.04759E+000	0.00000E+000	9	...........	 0.00
	96	0.96	6.02074E-001	3.48657E-004	0.00000E+000	1.04759E+000	0.00000E+000	9	...........	 0.00
	97	0.97	6.05605E-001	3.48654E-004	0.00000E+000	1.04759E+000	0.00000E+000	9	...........	 0.00
	98	0.98	6.09139E-001	3.48649E-004	0.00000E+000	1.04759E+000	0.00000E+000	9	...........	 0.00
	99	0.99	6.12667E-001	3.48634E-004	0.00000E+000	1.04759E+000	0.00000E+000	9	...........	 0.00
	100	1	6.16220E-001	3.48640E-004	0.00000E+000	1.04759E+000	0.00000E+000	9	...........	 0.00
	101	1.01	6.19776E-001	3.48636E-004	0.00000E+000	1.04759E+000	0.00000E+000	9	...........	 0.00
	102	1.02	6.23370E-001	3.48615E-004	0.00000E+000	1.04759E+000	0.00000E+000	9	...........	 0.00
	103	1.03	6.26922E-001	3.48601E-004	0.00000E+000	1.04759E+000	0.00000E+000	9	...........	 0.00
	104	1.04	6.30551E-001	3.48614E-004	0.00000E+000	1.04759E+000	0.00000E+000	9	...........	 0.00
	105	1.05	6.34150E-001	3.48660E-004	0.00000E+000	1.04759E+000	0.00000E+000	9	...........	 0.00
	106	1.06	6.37759E-001	3.48675E-004	0.00000E+000	1.04759E+000	0.00000E+000	9	...........	 0.00
	107	1.07	6.41393E-001	3.48639E-004	0.00000E+000	1.04759E+000	0.00000E+000	9	...........	 0.00
	108	1.08	6.45013E-001	3.48621E-004	0.00000E+000	1.04759E+000	0.00000E+000	9	...........	 0.00
	109	1.09	6.48638E-001	3.48597E-004	0.00000E+000	1.04759E+000	0.00000E+000	9	...........	 0.00
	110	1.1	6.52263E-001	3.48603E-004	0.00000E+000	1.04759E+000	0.00000E+000	9	...........	 0.00
	111	1.11	6.55922E-001	3.48627E-004	0.00000E+000	1.04759E+000	0.00000E+000	9	...........	 0.00
	112	1.12	6.59587E-001	3.48630E-004	0.00000E+000	1.04759E+000	0.00000E+000	9	...........	 0.00
	113	1.13	6.63232E-001	3.48636E-004	0.00000E+000	1.04759E+000	0.00000E+000	9	...........	 0.00
	114	1.14	6.66904E-001	3.48636E-004	0.00000E+000	1.04759E+000	0.00000E+000	9	...........	 0.00
	115	1.15	6.70536E-001	3.48628E-004	0.00000E+000	1.04759E+000	0.00000E+000	9	...........	 0.00
	116	1.16	6.74182E-001	3.48636E-004	0.00000E+000	1.04759E+000	0.00000E+000	9	...........	 0.00
	117	1.17	6.77824E-001	3.48644E-004	0.00000E+000	1.04759E+000	0.00000E+000	9	...........	 0.00
	118	1.18	6.81493E-001	3.48646E-004	0.00000E+000	1.04759E+000	0.00000E+000	9	...........	 0.00
	119	1.19	6.85148E-001	3.48648E-004	0.00000E+000	1.04759E+000	0.00000E+000	9	...........	 0.00
	120	1.2	6.88809E-001	3.48648E-004	0.00000E+000	1.04759E+000	0.00000E+000	9	...........	 0.00
	121	1.21	6.92444E-001	3.48646E-004	0.00000E+000	1.04759E+000	0.00000E+000	9	...........	 0.00
	122	1.22	6.96058E-001	3.48645E-004	0.00000E+000	1.04759E+000	0.00000E+000	9	...........	 0.00
	123	1.23	6.99701E-001	3.48641E-004	0.00000E+000	1.04759E+000	0.00000E+000	9	...........	 0.00
	124	1.24	7.03317E-001	3.48639E-004	0.00000E+000	1.04759E+000	0.00000E+000	9	...........	 0.00
	125	1.25	7.06937E-001	3.48629E-004	0.00000E+000	1.04759E+000	0.00000E+000	9	...........	 0.00
	126	1.26	7.10529E-001	3.48598E-004	0.00000E+000	1.04759E+000	0.00000E+000	9	...........	 0.00
	127	1.27	7.14112E-001	3.48641E-004	0.00000E+000	1.04759E+000	0.00000E+000	9	...........	 0.00
	128	1.28	7.17688E-001	3.48664E-004	0.00000E+000	1.04759E+000	0.00000E+000	9	...........	 0.00
	129	1.29	7.21266E-001	3.48671E-004	0.00000E+000	1.04759E+000	0.00000E+000	9	...........	 0.00
	130	1.3	7.24815E-001	3.48622E-004	0.00000E+000	1.04759E+000	0.00000E+000	9	...........	 0.00
	131	1.31	7.28356E-001	3.48615E-004	0.00000E+000	1.04759E+000	0.00000E+000	9	...........	 0.00
	132	1.32	7.31921E-001	3.48593E-004	0.00000E+000	1.04759E+000	0.00000E+000	9	...........	 0.00
	133	1.33	7.35438E-001	3.48608E-004	0.00000E+000	1.04759E+000	0.00000E+000	9	...........	 0.00
	134	1.34	7.38952E-001	3.48620E-004	0.00000E+000	1.04759E+000	0.00000E+000	9	...........	 0.00
	135	1.35	7.42462E-001	3.48623E-004	0.00000E+000	1.04759E+000	0.00000E+000	9	...........	 0.00
	136	1.36	7.45980E-001	3.48635E-004	0.00000E+000	1.04759E+000	0.00000E+000	9	...........	 0.00
	137	1.37	7.49476E-001	3.48633E-004	0.00000E+000	1.04759E+000	0.00000E+000	9	...........	 0.00
	138	1.38	7.52941E-001	3.48628E-004	0.00000E+000	1.04759E+000	0.00000E+000	9	...........	 0.00
	139	1.39	7.56402E-001	3.48640E-004	0.00000E+000	1.04759E+000	0.00000E+000	9	...........	 0.00
	140	1.4	7.59846E-001	3.48654E-004	0.00000E+000	1.04759E+000	0.00000E+000	9	...........	 0.00
	141	1.41	7.63281E-001	3.48657E-004	0.00000E+000	1.04759E+000	0.00000E+000	9	...........	 0.00
	142	1.42	7.66683E-001	3.48539E-004	0.00000E+000	1.04759E+000	0.00000E+000	9	...........	 0.00
	143	1.43	7.70100E-001	3.48495E-004	0.00000E+000	1.04759E+000	0.00000E+000	9	...........	 0.00
	144	1.44	7.73465E-001	3.48574E-004	0.00000E+000	1.04759E+000	0.00000E+000	9	...........	 0.00
	145	1.45	7.76840E-001	3.48621E-004	0.00000E+000	1.04759E+000	0.00000E+000	9	...........	 0.00
	146	1.46	7.80190E-001	3.48635E-004	0.00000E+000	1.04759E+000	0.00000E+000	9	...........	 0.00
	147	1.47	7.83510E-001	3.48650E-004	0.00000E+000	1.04759E+000	0.00000E+000	9	...........	 0.00
	148	1.48	7.86788E-001	3.48652E-004	0.00000E+000	1.04759E+000	0.00000E+000	9	...........	 0.00
	149	1.49	7.90056E-001	3.48647E-004	0.00000E+000	1.04759E+000	0.00000E+000	9	...........	 0.00
	150	1.5	7.93279E-001	3.48646E-004	0.00000E+000	1.04759E+000	0.00000E+000	9	...........	 0.00
	151	1.51	7.96524E-001	3.48638E-004	0.00000E+000	1.04759E+000	0.00000E+000	9	...........	 0.00
	152	1.52	7.99713E-001	3.48650E-004	0.00000E+000	1.04759E+000	0.00000E+000	9	...........	 0.00
	153	1.53	8.02869E-001	3.48639E-004	0.00000E+000	1.04759E+000	0.00000E+000	9	...........	 0.00
	154	1.54	8.05997E-001	3.48619E-004	0.00000E+000	1.04759E+000	0.00000E+000	9	...........	 0.00
	155	1.55	8.09100E-001	3.48633E-004	0.00000E+000	1.04759E+000	0.00000E+000	9	...........	 0.00
	156	1.56	8.12160E-001	3.48636E-004	0.00000E+000	1.04759E+000	0.00000E+000	9	...........	 0.00
	157	1.57	8.15175E-001	3.48639E-004	0.00000E+000	1.04759E+000	0.00000E+000	9	...........	 0.00
	158	1.58	8.18159E-001	3.48638E-004	0.00000E+000	1.04759E+000	0.00000E+000	9	...........	 0.00
	159	1.59	8.21096E-001	3.48648E-004	0.00000E+000	1.04759E+000	0.00000E+000	9	...........	 0.00
	160	1.6	8.23994E-001	3.48641E-004	0.00000E+000	1.04759E+000	0.00000E+000	9	...........	 0.00
	161	1.61	8.26854E-001	3.48645E-004	0.00000E+000	1.04759E+000	0.00000E+000	9	...........	 0.00
	162	1.62	8.29656E-001	3.48646E-004	0.00000E+000	1.04759E+000	0.00000E+000	9	...........	 0.00
	163	1.63	8.32417E-001	3.48662E-004	0.00000E+000	1.04759E+000	0.00000E+000	9	...........	 0.00
	164	1.64	8.35154E-001	3.48626E-004	0.00000E+000	1.04759E+000	0.00000E+000	9	...........	 0.00
	165	1.65	8.37833E-001	3.48494E-004	0.00000E+000	1.04759E+000	0.00000E+000	9	...........	 0.00
	166	1.66	8.40465E-001	3.48529E-004	0.00000E+000	1.04759E+000	0.00000E+000	9	...........	 0.00
	167	1.67	8.43036E-001	3.48616E-004	0.00000E+000	1.04759E+000	0.00000E+000	9	...........	 0.00
	168	1.68	8.45583E-001	3.48639E-004	0.00000E+000	1.04759E+000	0.00000E+000	9	...........	 0.00
	169	1.69	8.48063E-001	3.48654E-004	0.00000E+000	1.04759E+000	0.00000E+000	9	...........	 0.00
	170	1.7	8.50498E-001	3.48656E-004	0.00000E+000	1.04759E+000	0.00000E+000	9	...........	 0.00
	171	1.71	8.52881E-001	3.48655E-004	0.00000E+000	1.04759E+000	0.00000E+000	9	...........	 0.00
	172	1.72	8.55206E-001	3.48656E-004	0.00000E+000	1.04759E+000	0.00000E+000	9	...........	 0.00
	173	1.73	8.31368E-001	-3.48864E-004	0.00000E+000	-1.04759E+000	0.00000E+000	9	...........	 0.00
	174	1.74	8.24247E-001	-3.48865E-004	0.00000E+000	-1.04759E+000	0.00000E+000	9	...........	 0.00
	175	1.75	8.18126E-001	-3.48871E-004	0.00000E+000	-1.04759E+000	0.00000E+000	9	...........	 0.00
	176	1.76	8.12355E-001	-3.48899E-004	0.00000E+000	-1.04759E+000	0.00000E+000	9	...........	 0.00
	177	1.77	8.06778E-001	-3.48913E-004	0.00000E+000	-1.04759E+000	0.00000E+000	9	...........	 0.00
	178	1.78	8.01361E-001	-3.48907E-004	0.00000E+000	-1.04759E+000	0.00000E+000	9	...........	 0.00
	179	1.79	7.96026E-001	-3.48858E-004	0.00000E+000	-1.04759E+000	0.00000E+000	9	...........	 0.00
	180	1.8	7.90724E-001	-3.48838E-004	0.00000E+000	-1.04759E+000	0.00000E+000	9	...........	 0.00
	181	1.81	7.85523E-001	-3.48886E-004	0.00000E+000	-1.04759E+000	0.00000E+000	9	...........	 0.00
	182	1.82	7.80331E-001	-3.49001E-004	0.00000E+000	-1.04759E+000	0.00000E+000	9	...........	 0.00
	183	1.83	7.75184E-001	-3.48985E-004	0.00000E+000	-1.04759E+000	0.00000E+000	9	...........	 0.00
	184	1.84	7.70082E-001	-3.48976E-004	0.00000E+000	-1.04759E+000	0.00000E+000	9	...........	 0.00
	185	1.85	7.64960E-001	-3.48934E-004	0.00000E+000	-1.04759E+000	0.00000E+000	9	...........	 0.00
	186	1.86	7.59903E-001	-3.48907E-004	0.00000E+000	-1.04759E+000	0.00000E+000	9	...........	 0.00
	187	1.87	7.54825E-001	-3.48908E-004	0.00000E+000	-1.04759E+000	0.00000E+000	9	...........	 0.00
	188	1.88	7.49795E-001	-3.48898E-004	0.00000E+000	-1.04759E+000	0.00000E+000	9	...........	 0.00
	189	1.89	7.44760E-001	-3.48900E-004	0.00000E+000	-1.04759E+000	0.00000E+000	9	...........	 0.00
	190	1.9	7.39724E-001	-3.48895E-004	0.00000E+000	-1.04759E+000	0.00000E+000	9	...........	 0.00
	191	1.91	7.34712E-001	-3.48884E-004	0.00000E+000	-1.04759E+000	0.00000E+000	9	...........	 0.00
	192	1.92	7.29686E-001	-3.48880E-004	0.00000E+000	-1.04759E+000	0.00000E+000	9	...........	 0.00
	193	1.93	7.24694E-001	-3.48891E-004	0.00000E+000	-1.04759E+000	0.00000E+000	9	...........	 0.00
	194	1.94	7.19702E-001	-3.48890E-004	0.00000E+000	-1.04759E+000	0.00000E+000	9	...........	 0.00
	195	1.95	7.14700E-001	-3.48889E-004	0.00000E+000	-1.04759E+000	0.00000E+000	9	...........	 0.00
	196	1.96	7.09724E-001	-3.48895E-004	0.00000E+000	-1.04759E+000	0.00000E+000	9	...........	 0.00
	197	1.97	7.04754E-001	-3.48891E-004	0.00000E+000	-1.04759E+000	0.00000E+000	9	...........	 0.00
	198	1.98	6.99775E-001	-3.48892E-004	0.00000E+000	-1.04759E+000	0.00000E+000	9	...........	 0.00
	199	1.99	6.94817E-001	-3.48889E-004	0.00000E+000	-1.04759E+000	0.00000E+000	9	...........	 0.00
	200	2	6.89835E-001	-3.48893E-004	0.00000E+000	-1.04759E+000	0.00000E+000	9	...........	 0.00
	201	2.01	6.84876E-001	-3.48903E-004	0.00000E+000	-1.04759E+000	0.00000E+000	9	...........	 0.00
	202	2.02	6.79952E-001	-3.48855E-004	0.00000E+000	-1.04759E+000	0.00000E+000	9	...........	 0.00
	203	2.03	6.74967E-001	-3.48842E-004	0.00000E+000	-1.04759E+000	0.00000E+000	9	...........	 0.00
	204	2.04	6.70034E-001	-3.48959E-004	0.00000E+000	-1.04759E+000	0.00000E+000	9	...........	 0.00
	205	2.05	6.65073E-001	-3.48991E-004	0.00000E+000	-1.04759E+000	0.00000E+000	9	...........	 0.00
	206	2.06	6.60136E-001	-3.48951E-004	0.00000E+000	-1.04759E+000	0.00000E+000	9	...........	 0.00
	207	2.07	6.55205E-001	-3.48950E-004	0.00000E+000	-1.04759E+000	0.00000E+000	9	...........	 0.00
	208	2.08	6.50266E-001	-3.48921E-004	0.00000E+000	-1.04759E+000	0.00000E+000	9	...........	 0.00
	209	2.09	6.45346E-001	-3.48912E-004	0.00000E+000	-1.04759E+000	0.00000E+000	9	...........	 0.00
	210	2.1	6.40409E-001	-3.48905E-004	0.00000E+000	-1.04759E+000	0.00000E+000	9	...........	 0.00
	211	2.11	6.35497E-001	-3.48894E-004	0.00000E+000	-1.04759E+000	0.00000E+000	9	...........	 0.00
	212	2.12	6.30587E-001	-3.48901E-004	0.00000E+000	-1.04759E+000	0.00000E+000	9	...........	 0.00
	213	2.13	6.25672E-001	-3.48894E-004	0.00000E+000	-1.04759E+000	0.00000E+000	9	...........	 0.00
	214	2.14	6.20766E-001	-3.48879E-004	0.00000E+000	-1.04759E+000	0.00000E+000	9	...........	 0.00
	215	2.15	6.15867E-001	-3.48882E-004	0.00000E+000	-1.04759E+000	0.00000E+000	9	...........	 0.00
	216	2.16	6.10977E-001	-3.48906E-004	0.00000E+000	-1.04759E+000	0.00000E+000	9	...........	 0.00
	217	2.17	6.06082E-001	-3.49015E-004	0.00000E+000	-1.04759E+000	0.00000E+000	9	...........	 0.00
	218	2.18	6.01168E-001	-3.48991E-004	0.00000E+000	-1.04759E+000	0.00000E+000	9	...........	 0.00
	219	2.19	5.96315E-001	-3.48898E-004	0.00000E+000	-1.04759E+000	0.00000E+000	9	...........	 0.00
	220	2.2	5.91441E-001	-3.48873E-004	0.00000E+000	-1.04759E+000	0.00000E+000	9	...........	 0.00
	221	2.21	5.86565E-001	-3.48856E-004	0.00000E+000	-1.04759E+000	0.00000E+000	9	...........	 0.00
	222	2.22	5.81708E-001	-3.48851E-004	0.00000E+000	-1.04759E+000	0.00000E+000	9	...........	 0.00
	223	2.23	5.76851E-001	-3.48871E-004	0.00000E+000	-1.04759E+000	0.00000E+000	9	...........	 0.00
	224	2.24	5.71997E-001	-3.48884E-004	0.00000E+000	-1.04759E+000	0.00000E+000	9	...........	 0.00
	225	2.25	5.67148E-001	-3.48895E-004	0.00000E+000	-1.04759E+000	0.00000E+000	9	...........	 0.00
	226	2.26	5.62294E-001	-3.48900E-004	0.00000E+000	-1.04759E+000	0.00000E+000	9	...........	 0.00
	227	2.27	5.57474E-001	-3.48891E-004	0.00000E+000	-1.04759E+000	0.00000E+000	9	...........	 0.00
	228	2.28	5.52654E-001	-3.48903E-004	0.00000E+000	-1.04759E+000	0.00000E+000	9	...........	 0.00
	229	2.29	5.47824E-001	-3.48913E-004	0.00000E+000	-1.04759E+000	0.00000E+000	9	...........	 0.00
	230	2.3	5.43020E-001	-3.48891E-004	0.00000E+000	-1.04759E+000	0.00000E+000	9	...........	 0.00
	231	2.31	5.38205E-001	-3.48895E-004	0.00000E+000	-1.04759E+000	0.00000E+000	9	...........	 0.00
	232	2.32	5.33415E-001	-3.48904E-004	0.00000E+000	-1.04759E+000	0.00000E+000	9	...........	 0.00
	233	2.33	5.28631E-001	-3.48909E-004	0.00000E+000	-1.04759E+000	0.00000E+000	9	...........	 0.00
	234	2.34	5.23845E-001	-3.48907E-004	0.00000E+000	-1.04759E+000	0.00000E+000	9	...........	 0.00
	235	2.35	5.19091E-001	-3.48889E-004	0.00000E+000	-1.04759E+000	0.00000E+000	9	...........	 0.00
	236	2.36	5.14333E-001	-3.48878E-004	0.00000E+000	-1.04759E+000	0.00000E+000	9	...........	 0.00
	237	2.37	5.09567E-001	-3.48873E-004	0.00000E+000	-1.04759E+000	0.00000E+000	9	...........	 0.00
	238	2.38	5.04827E-001	-3.48887E-004	0.00000E+000	-1.04759E+000	0.00000E+000	9	...........	 0.00
	239	2.39	5.00108E-001	-3.48966E-004	0.00000E+000	-1.04759E+000	0.00000E+000	9	...........	 0.00
	240	2.4	4.95376E-001	-3.49045E-004	0.00000E+000	-1.04759E+000	0.00000E+000	9	...........	 0.00
	241	2.41	4.90689E-001	-3.48949E-004	0.00000E+000	-1.04759E+000	0.00000E+000	9	...........	 0.00
	242	2.42	4.85988E-001	-3.48883E-004	0.00000E+000	-1.04759E+000	0.00000E+000	9	...........	 0.00
	243	2.43	4.81313E-001	-3.48862E-004	0.00000E+000	-1.04759E+000	0.00000E+000	9	...........	 0.00
	244	2.44	4.76665E-001	-3.48855E-004	0.00000E+000	-1.04759E+000	0.00000E+000	9	...........	 0.00
	245	2.45	4.72020E-001	-3.48867E-004	0.00000E+000	-1.04759E+000	0.00000E+000	9	...........	 0.00
	246	2.46	4.67407E-001	-3.48888E-004	0.00000E+000	-1.04759E+000	0.00000E+000	9	...........	 0.00
	247	2.47	4.62824E-001	-3.48888E-004	0.00000E+000	-1.04759E+000	0.00000E+000	9	...........	 0.00
	248	2.48	4.58239E-001	-3.48897E-004	0.00000E+000	-1.04759E+000	0.00000E+000	9	...........	 0.00
	249	2.49	4.53703E-001	-3.48889E-004	0.00000E+000	-1.04759E+000	0.00000E+000	9	...........	 0.00
	250	2.5	4.49212E-001	-3.48887E-004	0.00000E+000	-1.04759E+000	0.00000E+000	9	...........	 0.00
	251	2.51	4.44699E-001	-3.48912E-004	0.00000E+000	-1.04759E+000	0.00000E+000	9	...........	 0.00
	252	2.52	4.40267E-001	-3.48905E-004	0.00000E+000	-1.04759E+000	0.00000E+000	9	...........	 0.00
	253	2.53	4.35829E-001	-3.48892E-004	0.00000E+000	-1.04759E+000	0.00000E+000	9	...........	 0.00
	254	2.54	4.31442E-001	-3.48852E-004	0.00000E+000	-1.04759E+000	0.00000E+000	9	...........	 0.00
	255	2.55	4.27124E-001	-3.48858E-004	0.00000E+000	-1.04759E+000	0.00000E+000	9	...........	 0.00
	256	2.56	4.22834E-001	-3.49002E-004	0.00000E+000	-1.04759E+000	0.00000E+000	9	...........	 0.00
	257	2.57	4.18601E-001	-3.49041E-004	0.00000E+000	-1.04759E+000	0.00000E+000	9	...........	 0.00
	258	2.58	4.14401E-001	-3.48976E-004	0.00000E+000	-1.04759E+000	0.00000E+000	9	...........	 0.00
	259	2.59	4.10285E-001	-3.48952E-004	0.00000E+000	-1.04759E+000	0.00000E+000	9	...........	 0.00
	260	2.6	4.06210E-001	-3.48911E-004	0.00000E+000	-1.04759E+000	0.00000E+000	9	...........	 0.00
	261	2.61	4.02204E-001	-3.48901E-004	0.00000E+000	-1.04759E+000	0.00000E+000	9	...........	 0.00
	262	2.62	3.98284E-001	-3.48901E-004	0.00000E+000	-1.04759E+000	0.00000E+000	9	...........	 0.00
	263	2.63	3.94399E-001	-3.48880E-004	0.00000E+000	-1.04759E+000	0.00000E+000	9	...........	 0.00
	264	2.64	3.90595E-001	-3.48885E-004	0.00000E+000	-1.04759E+000	0.00000E+000	9	...........	 0.00
	265	2.65	3.86879E-001	-3.48887E-004	0.00000E+000	-1.04759E+000	0.00000E+000	9	...........	 0.00
	266	2.66	3.83213E-001	-3.48882E-004	0.00000E+000	-1.04759E+000	0.00000E+000	9	...........	 0.00
	267	2.67	3.79641E-001	-3.48897E-004	0.00000E+000	-1.04759E+000	0.00000E+000	9	...........	 0.00
	268	2.68	3.76151E-001	-3.48912E-004	0.00000E+000	-1.04759E+000	0.00000E+000	9	...........	 0.00
	269	2.69	3.72735E-001	-3.48903E-004	0.00000E+000	-1.04759E+000	0.00000E+000	9	...........	 0.00
	270	2.7	3.69368E-001	-3.48902E-004	0.00000E+000	-1.04759E+000	0.00000E+000	9	...........	 0.00
	271	2.71	3.66108E-001	-3.48896E-004	0.00000E+000	-1.04759E+000	0.00000E+000	9	...........	 0.00
	272	2.72	3.62904E-001	-3.48898E-004	0.00000E+000	-1.04759E+000	0.00000E+000	9	...........	 0.00
	273	2.73	3.59779E-001	-3.48890E-004	0.00000E+000	-1.04759E+000	0.00000E+000	9	...........	 0.00
	274	2.74	3.56711E-001	-3.48891E-004	0.00000E+000	-1.04759E+000	0.00000E+000	9	...........	 0.00
	275	2.75	3.53749E-001	-3.48886E-004	0.00000E+000	-1.04759E+000	0.00000E+000	9	...........	 0.00
	276	2.76	3.50834E-001	-3.48874E-004	0.00000E+000	-1.04759E+000	0.00000E+000	9	...........	 0.00
	277	2.77	3.47980E-001	-3.48845E-004	0.00000E+000	-1.04759E+000	0.00000E+000	9	...........	 0.00
	278	2.78	3.45183E-001	-3.48896E-004	0.00000E+000	-1.04759E+000	0.00000E+000	9	...........	 0.00
	279	2.79	3.42446E-001	-3.49039E-004	0.00000E+000	-1.04759E+000	0.00000E+000	9	...........	 0.00
	280	2.8	3.39794E-001	-3.48995E-004	0.00000E+000	-1.04759E+000	0.00000E+000	9	...........	 0.00
	281	2.81	3.37175E-001	-3.48950E-004	0.00000E+000	-1.04759E+000	0.00000E+000	9	...........	 0.00
	282	2.82	3.34602E-001	-3.48930E-004	0.00000E+000	-1.04759E+000	0.00000E+000	9	...........	 0.00
	283	2.83	3.32059E-001	-3.48900E-004	0.00000E+000	-1.04759E+000	0.00000E+000	9	...........	 0.00
	284	2.84	3.29606E-001	-3.48892E-004	0.00000E+000	-1.04759E+000	0.00000E+000	9	...........	 0.00
	285	2.85	3.27183E-001	-3.48895E-004	0.00000E+000	-1.04759E+000	0.00000E+000	9	...........	 0.00
	286	2.86	3.24785E-001	-3.48883E-004	0.00000E+000	-1.04759E+000	0.00000E+000	9	...........	 0.00
	287	2.87	3.22445E-001	-3.48891E-004	0.00000E+000	-1.04759E+000	0.00000E+000	9	...........	 0.00
	288	2.88	3.20119E-001	-3.48884E-004	0.00000E+000	-1.04759E+000	0.00000E+000	9	...........	 0.00
	289	2.89	3.17869E-001	-3.48880E-004	0.00000E+000	-1.04759E+000	0.00000E+000	9	...........	 0.00
	290	2.9	3.15629E-001	-3.48903E-004	0.00000E+000	-1.04759E+000	0.00000E+000	9	...........	 0.00
	291	2.91	3.13410E-001	-3.48937E-004	0.00000E+000	-1.04759E+000	0.00000E+000	9	...........	 0.00
	292	2.92	3.11247E-001	-3.48974E-004	0.00000E+000	-1.04759E+000	0.00000E+000	9	...........	 0.00
	293	2.93	3.09109E-001	-3.48897E-004	0.00000E+000	-1.04759E+000	0.00000E+000	9	...........	 0.00
	294	2.94	3.06969E-001	-3.48863E-004	0.00000E+000	-1.04759E+000	0.00000E+000	9	...........	 0.00
	295	2.95	3.04858E-001	-3.48851E-004	0.00000E+000	-1.04759E+000	0.00000E+000	9	...........	 0.00
	296	2.96	3.02787E-001	-3.48867E-004	0.00000E+000	-1.04759E+000	0.00000E+000	9	...........	 0.00
	297	2.97	3.00726E-001	-3.48887E-004	0.00000E+000	-1.04759E+000	0.00000E+000	9	...........	 0.00
	298	2.98	2.98720E-001	-3.48910E-004	0.00000E+000	-1.04759E+000	0.00000E+000	9	...........	 0.00
	299	2.99	2.96708E-001	-3.48904E-004	0.00000E+000	-1.04759E+000	0.00000E+000	9	...........	 0.00
	300	3	2.94715E-001	-3.48906E-004	0.00000E+000	-1.04759E+000	0.00000E+000	9	...........	 0.00
	301	3.01	2.92745E-001	-3.48904E-004	0.00000E+000	-1.04759E+000	0.00000E+000	9	...........	 0.00
	302	3.02	2.90804E-001	-3.48892E-004	0.00000E+000	-1.04759E+000	0.00000E+000	9	...........	 0.00
	303	3.03	2.88879E-001	-3.48910E-004	0.00000E+000	-1.04759E+000	0.00000E+000	9	...........	 0.00
	304	3.04	2.86960E-001	-3.48901E-004	0.00000E+000	-1.04759E+000	0.00000E+000	9	...........	 0.00
	305	3.05	2.85061E-001	-3.48887E-004	0.00000E+000	-1.04759E+000	0.00000E+000	9	...........	 0.00
	306	3.06	2.83172E-001	-3.48889E-004	0.00000E+000	-1.04759E+000	0.00000E+000	9	...........	 0.00
	307	3.07	2.81276E-001	-3.48889E-004	0.00000E+000	-1.04759E+000	0.00000E+000	9	...........	 0.00
	308	3.08	2.79434E-001	-3.48885E-004	0.00000E+000	-1.04759E+000	0.00000E+000	9	...........	 0.00
	309	3.09	2.77590E-001	-3.48885E-004	0.00000E+000	-1.04759E+000	0.00000E+000	9	...........	 0.00
	310	3.1	2.75754E-001	-3.48892E-004	0.00000E+000	-1.04759E+000	0.00000E+000	9	...........	 0.00
	311	3.11	2.73923E-001	-3.48890E-004	0.00000E+000	-1.04759E+000	0.00000E+000	9	...........	 0.00
	312	3.12	2.72108E-001	-3.48892E-004	0.00000E+000	-1.04759E+000	0.00000E+000	9	...........	 0.00
	313	3.13	2.70301E-001	-3.48895E-004	0.00000E+000	-1.04759E+000	0.00000E+000	9	...........	 0.00
	314	3.14	2.68488E-001	-3.48959E-004	0.00000E+000	-1.04759E+000	0.00000E+000	9	...........	 0.00
	315	3.15	2.66687E-001	-3.48947E-004	0.00000E+000	-1.04759E+000	0.00000E+000	9	...........	 0.00
	316	3.16	2.64907E-001	-3.48881E-004	0.00000E+000	-1.04759E+000	0.00000E+000	9	...........	 0.00
	317	3.17	2.63121E-001	-3.48863E-004	0.00000E+000	-1.04759E+000	0.00000E+000	9	...........	 0.00
	318	3.18	2.61345E-001	-3.48856E-004	0.00000E+000	-1.04759E+000	0.00000E+000	9	...........	 0.00
	319	3.19	2.59586E-001	-3.48868E-004	0.00000E+000	-1.04759E+000	0.00000E+000	9	...........	 0.00
	320	3.2	2.57823E-001	-3.48897E-004	0.00000E+000	-1.04759E+000	0.00000E+000	9	...........	 0.00
	321	3.21	2.56032E-001	-3.48900E-004	0.00000E+000	-1.04759E+000	0.00000E+000	9	...........	 0.00
	322	3.22	2.54282E-001	-3.48897E-004	0.00000E+000	-1.04759E+000	0.00000E+000	9	...........	 0.00
	323	3.23	2.52531E-001	-3.48911E-004	0.00000E+000	-1.04759E+000	0.00000E+000	9	...........	 0.00
	324	3.24	2.50766E-001	-3.48904E-004	0.00000E+000	-1.04759E+000	0.00000E+000	9	...........	 0.00
	325	3.25	2.49010E-001	-3.48905E-004	0.00000E+000	-1.04759E+000	0.00000E+000	9	...........	 0.00
	326	3.26	2.47273E-001	-3.48911E-004	0.00000E+000	-1.04759E+000	0.00000E+000	9	...........	 0.00
	327	3.27	2.45524E-001	-3.48896E-004	0.00000E+000	-1.04759E+000	0.00000E+000	9	...........	 0.00
	328	3.28	2.43763E-001	-3.48882E-004	0.00000E+000	-1.04759E+000	0.00000E+000	9	...........	 0.00
	329	3.29	2.41996E-001	-3.48853E-004	0.00000E+000	-1.04759E+000	0.00000E+000	9	...........	 0.00
	330	3.3	2.40485E-001	-3.48918E-004	0.00000E+000	-1.04759E+000	0.00000E+000	9	...........	 0.00
	331	3.31	2.38721E-001	-3.49058E-004	0.00000E+000	-1.04759E+000	0.00000E+000	9	...........	 0.00
	332	3.32	2.36954E-001	-3.49028E-004	0.00000E+000	-1.04759E+000	0.00000E+000	9	...........	 0.00
	333	3.33	2.35186E-001	-3.48953E-004	0.00000E+000	-1.04759E+000	0.00000E+000	9	...........	 0.00
	334	3.34	2.33415E-001	-3.48924E-004	0.00000E+000	-1.04759E+000	0.00000E+000	9	...........	 0.00
	335	3.35	2.31639E-001	-3.48896E-004	0.00000E+000	-1.04759E+000	0.00000E+000	9	...........	 0.00
	336	3.36	2.29856E-001	-3.48883E-004	0.00000E+000	-1.04759E+000	0.00000E+000	9	...........	 0.00
	337	3.37	2.28071E-001	-3.48887E-004	0.00000E+000	-1.04759E+000	0.00000E+000	9	...........	 0.00
	338	3.38	2.26279E-001	-3.48875E-004	0.00000E+000	-1.04759E+000	0.00000E+000	9	...........	 0.00
	339	3.39	2.24487E-001	-3.48882E-004	0.00000E+000	-1.04759E+000	0.00000E+000	9	...........	 0.00
	340	3.4	2.22682E-001	-3.48884E-004	0.00000E+000	-1.04759E+000	0.00000E+000	9	...........	 0.00
	341	3.41	2.20873E-001	-3.48885E-004	0.00000E+000	-1.04759E+000	0.00000E+000	9	...........	 0.00
	342	3.42	2.19053E-001	-3.48915E-004	0.00000E+000	-1.04759E+000	0.00000E+000	9	...........	 0.00
	343	3.43	2.17226E-001	-3.48922E-004	0.00000E+000	-1.04759E+000	0.00000E+000	9	...........	 0.00
	344	3.44	2.15395E-001	-3.48905E-004	0.00000E+000	-1.04759E+000	0.00000E+000	9	...........	 0.00
	345	3.45	2.13552E-001	-3.48897E-004	0.00000E+000	-1.04759E+000	0.00000E+000	9	...........	 0.00
	346	3.46	2.11705E-001	-3.48895E-004	0.00000E+000	-1.04759E+000	0.00000E+000	9	...........	 0.00
	347	3.47	2.09848E-001	-3.48897E-004	0.00000E+000	-1.04759E+000	0.00000E+000	9	...........	 0.00
	348	3.48	2.07983E-001	-3.48894E-004	0.00000E+000	-1.04759E+000	0.00000E+000	9	...........	 0.00
	349	3.49	2.06111E-001	-3.48892E-004	0.00000E+000	-1.04759E+000	0.00000E+000	9	...........	 0.00
	350	3.5	2.04229E-001	-3.48893E-004	0.00000E+000	-1.04759E+000	0.00000E+000	9	...........	 0.00
	351	3.51	2.02335E-001	-3.48868E-004	0.00000E+000	-1.04759E+000	0.00000E+000	9	...........	 0.00
	352	3.52	2.00438E-001	-3.48862E-004	0.00000E+000	-1.04759E+000	0.00000E+000	9	...........	 0.00
	353	3.53	1.98523E-001	-3.48994E-004	0.00000E+000	-1.04759E+000	0.00000E+000	9	...........	 0.00
	354	3.54	1.96604E-001	-3.49052E-004	0.00000E+000	-1.04759E+000	0.00000E+000	9	...........	 0.00
	355	3.55	1.94681E-001	-3.48960E-004	0.00000E+000	-1.04759E+000	0.00000E+000	9	...........	 0.00
	356	3.56	1.92744E-001	-3.48929E-004	0.00000E+000	-1.04759E+000	0.00000E+000	9	...........	 0.00
	357	3.57	1.90801E-001	-3.48903E-004	0.00000E+000	-1.04759E+000	0.00000E+000	9	...........	 0.00
	358	3.58	1.88847E-001	-3.48885E-004	0.00000E+000	-1.04759E+000	0.00000E+000	9	...........	 0.00
	359	3.59	1.86885E-001	-3.48883E-004	0.00000E+000	-1.04759E+000	0.00000E+000	9	...........	 0.00
	360	3.6	1.84914E-001	-3.48877E-004	0.00000E+000	-1.04759E+000	0.00000E+000	9	...........	 0.00
	361	3.61	1.82933E-001	-3.48878E-004	0.00000E+000	-1.04759E+000	0.00000E+000	9	...........	 0.00
	362	3.62	1.80944E-001	-3.48885E-004	0.00000E+000	-1.04759E+000	0.00000E+000	9	...........	 0.00
	363	3.63	1.78946E-001	-3.48883E-004	0.00000E+000	-1.04759E+000	0.00000E+000	9	...........	 0.00
	364	3.64	1.76938E-001	-3.48902E-004	0.00000E+000	-1.04759E+000	0.00000E+000	9	...........	 0.00
	365	3.65	1.74918E-001	-3.48931E-004	0.00000E+000	-1.04759E+000	0.00000E+000	9	...........	 0.00
	366	3.66	1.72893E-001	-3.48938E-004	0.00000E+000	-1.04759E+000	0.00000E+000	9	...........	 0.00
	367	3.67	1.70862E-001	-3.48915E-004	0.00000E+000	-1.04759E+000	0.00000E+000	9	...........	 0.00
	368	3.68	1.68819E-001	-3.48860E-004	0.00000E+000	-1.04759E+000	0.00000E+000	9	...........	 0.00
	369	3.69	1.66770E-001	-3.48852E-004	0.00000E+000	-1.04759E+000	0.00000E+000	9	...........	 0.00
	370	3.7	1.64710E-001	-3.48904E-004	0.00000E+000	-1.04759E+000	0.00000E+000	9	...........	 0.00
	371	3.71	1.62646E-001	-3.48931E-004	0.00000E+000	-1.04759E+000	0.00000E+000	9	...........	 0.00
	372	3.72	1.60573E-001	-3.48952E-004	0.00000E+000	-1.04759E+000	0.00000E+000	9	...........	 0.00
	373	3.73	1.58492E-001	-3.48948E-004	0.00000E+000	-1.04759E+000	0.00000E+000	9	...........	 0.00
	374	3.74	1.56406E-001	-3.48922E-004	0.00000E+000	-1.04759E+000	0.00000E+000	9	...........	 0.00
	375	3.75	1.54315E-001	-3.48910E-004	0.00000E+000	-1.04759E+000	0.00000E+000	9	...........	 0.00
	376	3.76	1.52214E-001	-3.48893E-004	0.00000E+000	-1.04759E+000	0.00000E+000	9	...........	 0.00
	377	3.77	1.50106E-001	-3.48889E-004	0.00000E+000	-1.04759E+000	0.00000E+000	9	...........	 0.00
	378	3.78	1.47993E-001	-3.48902E-004	0.00000E+000	-1.04759E+000	0.00000E+000	9	...........	 0.00
	379	3.79	1.45873E-001	-3.48905E-004	0.00000E+000	-1.04759E+000	0.00000E+000	9	...........	 0.00
	380	3.8	1.43747E-001	-3.48908E-004	0.00000E+000	-1.04759E+000	0.00000E+000	9	...........	 0.00
	381	3.81	1.41618E-001	-3.48903E-004	0.00000E+000	-1.04759E+000	0.00000E+000	9	...........	 0.00
	382	3.82	1.39481E-001	-3.48884E-004	0.00000E+000	-1.04759E+000	0.00000E+000	9	...........	 0.00
	383	3.83	1.37340E-001	-3.48875E-004	0.00000E+000	-1.04759E+000	0.00000E+000	9	...........	 0.00
	384	3.84	1.35194E-001	-3.48881E-004	0.00000E+000	-1.04759E+000	0.00000E+000	9	...........	 0.00
	385	3.85	1.33042E-001	-3.48890E-004	0.00000E+000	-1.04759E+000	0.00000E+000	9	...........	 0.00
	386	3.86	1.30884E-001	-3.48909E-004	0.00000E+000	-1.04759E+000	0.00000E+000	9	...........	 0.00
	387	3.87	1.28726E-001	-3.48911E-004	0.00000E+000	-1.04759E+000	0.00000E+000	9	...........	 0.00
	388	3.88	1.26563E-001	-3.48909E-004	0.00000E+000	-1.04759E+000	0.00000E+000	9	...........	 0.00
	389	3.89	1.24398E-001	-3.48918E-004	0.00000E+000	-1.04759E+000	0.00000E+000	9	...........	 0.00
	390	3.9	1.22229E-001	-3.48870E-004	0.00000E+000	-1.04759E+000	0.00000E+000	9	...........	 0.00
	391	3.91	1.20054E-001	-3.48847E-004	0.00000E+000	-1.04759E+000	0.00000E+000	9	...........	 0.00
	392	3.92	1.17876E-001	-3.48863E-004	0.00000E+000	-1.04759E+000	0.00000E+000	9	...........	 0.00
	393	3.93	1.15694E-001	-3.48931E-004	0.00000E+000	-1.04759E+000	0.00000E+000	9	...........	 0.00
	394	3.94	1.13508E-001	-3.48924E-004	0.00000E+000	-1.04759E+000	0.00000E+000	9	...........	 0.00
	395	3.95	1.11326E-001	-3.48942E-004	0.00000E+000	-1.04759E+000	0.00000E+000	9	...........	 0.00
	396	3.96	1.09136E-001	-3.48921E-004	0.00000E+000	-1.04759E+000	0.00000E+000	9	...........	 0.00
	397	3.97	1.06948E-001	-3.48907E-004	0.00000E+000	-1.04759E+000	0.00000E+000	9	...........	 0.00
	398	3.98	1.04755E-001	-3.48906E-004	0.00000E+000	-1.04759E+000	0.00000E+000	9	...........	 0.00
	399	3.99	1.02564E-001	-3.48890E-004	0.00000E+000	-1.04759E+000	0.00000E+000	9	...........	 0.00
	400	4	1.00370E-001	-3.48904E-004	0.00000E+000	-1.04759E+000	0.00000E+000	9	...........	 0.00
	401	4.01	9.81701E-002	-3.48904E-004	0.00000E+000	-1.04759E+000	0.00000E+000	9	...........	 0.00
	402	4.02	9.59722E-002	-3.48893E-004	0.00000E+000	-1.04759E+000	0.00000E+000	9	...........	 0.00
	403	4.03	9.37749E-002	-3.48880E-004	0.00000E+000	-1.04759E+000	0.00000E+000	9	...........	 0.00
	404	4.04	9.15741E-002	-3.48883E-004	0.00000E+000	-1.04759E+000	0.00000E+000	9	...........	 0.00
	405	4.05	8.93681E-002	-3.48993E-004	0.00000E+000	-1.04759E+000	0.00000E+000	9	...........	 0.00
	406	4.06	8.71673E-002	-3.49035E-004	0.00000E+000	-1.04759E+000	0.00000E+000	9	...........	 0.00
	407	4.07	8.49665E-002	-3.48945E-004	0.00000E+000	-1.04759E+000	0.00000E+000	9	...........	 0.00
	408	4.08	8.27627E-002	-3.48901E-004	0.00000E+000	-1.04759E+000	0.00000E+000	9	...........	 0.00
	409	4.09	8.05614E-002	-3.48882E-004	0.00000E+000	-1.04759E+000	0.00000E+000	9	...........	 0.00
	410	4.1	7.83578E-002	-3.48868E-004	0.00000E+000	-1.04759E+000	0.00000E+000	9	...........	 0.00
	411	4.11	7.61546E-002	-3.48873E-004	0.00000E+000	-1.04759E+000	0.00000E+000	9	...........	 0.00
	412	4.12	7.39482E-002	-3.48875E-004	0.00000E+000	-1.04759E+000	0.00000E+000	9	...........	 0.00
	413	4.13	7.17454E-002	-3.48880E-004	0.00000E+000	-1.04759E+000	0.00000E+000	9	...........	 0.00
	414	4.14	6.95367E-002	-3.48892E-004	0.00000E+000	-1.04759E+000	0.00000E+000	9	...........	 0.00
	415	4.15	6.73329E-002	-3.48882E-004	0.00000E+000	-1.04759E+000	0.00000E+000	9	...........	 0.00
	416	4.16	6.51269E-002	-3.48901E-004	0.00000E+000	-1.04759E+000	0.00000E+000	9	...........	 0.00
	417	4.17	6.29224E-002	-3.48927E-004	0.00000E+000	-1.04759E+000	0.00000E+000	9	...........	 0.00
	418	4.18	6.07178E-002	-3.48910E-004	0.00000E+000	-1.04759E+000	0.00000E+000	9	...........	 0.00
	419	4.19	5.85126E-002	-3.48900E-004	0.00000E+000	-1.04759E+000	0.00000E+000	9	...........	 0.00
	420	4.2	5.63059E-002	-3.48896E-004	0.00000E+000	-1.04759E+000	0.00000E+000	9	...........	 0.00
	421	4.21	5.41016E-002	-3.48894E-004	0.00000E+000	-1.04759E+000	0.00000E+000	9	...........	 0.00
	422	4.22	5.18934E-002	-3.48894E-004	0.00000E+000	-1.04759E+000	0.00000E+000	9	...........	 0.00
	423	4.23	4.96891E-002	-3.48890E-004	0.00000E+000	-1.04759E+000	0.00000E+000	9	...........	 0.00
	424	4.24	4.74819E-002	-3.48891E-004	0.00000E+000	-1.04759E+000	0.00000E+000	9	...........	 0.00
	425	4.25	4.52773E-002	-3.48889E-004	0.00000E+000	-1.04759E+000	0.00000E+000	9	...........	 0.00
	426	4.26	4.30727E-002	-3.48871E-004	0.00000E+000	-1.04759E+000	0.00000E+000	9	...........	 0.00
	427	4.27	4.08686E-002	-3.48910E-004	0.00000E+000	-1.04759E+000	0.00000E+000	9	...........	 0.00
	428	4.28	3.86582E-002	-3.49033E-004	0.00000E+000	-1.04759E+000	0.00000E+000	9	...........	 0.00
	429	4.29	3.64559E-002	-3.48991E-004	0.00000E+000	-1.04759E+000	0.00000E+000	9	...........	 0.00
	430	4.3	3.42545E-002	-3.48900E-004	0.00000E+000	-1.04759E+000	0.00000E+000	9	...........	 0.00
	431	4.31	3.20523E-002	-3.48889E-004	0.00000E+000	-1.04759E+000	0.00000E+000	9	...........	 0.00
	432	4.32	2.98495E-002	-3.48876E-004	0.00000E+000	-1.04759E+000	0.00000E+000	9	...........	 0.00
	433	4.33	2.76487E-002	-3.48865E-004	0.00000E+000	-1.04759E+000	0.00000E+000	9	...........	 0.00
	434	4.34	2.54464E-002	-3.48873E-004	0.00000E+000	-1.04759E+000	0.00000E+000	9	...........	 0.00
	435	4.35	2.32497E-002	-3.48874E-004	0.00000E+000	-1.04759E+000	0.00000E+000	9	...........	 0.00
	436	4.36	2.10354E-002	-3.48887E-004	0.00000E+000	-1.04759E+000	0.00000E+000	9	...........	 0.00
	437	4.37	1.88449E-002	-3.48890E-004	0.00000E+000	-1.04759E+000	0.00000E+000	9	...........	 0.00
	438	4.38	1.66546E-002	-3.48893E-004	0.00000E+000	-1.04759E+000	0.00000E+000	9	...........	 0.00
	439	4.39	1.44675E-002	-3.48918E-004	0.00000E+000	-1.04759E+000	0.00000E+000	9	...........	 0.00
	440	4.4	1.22850E-002	-3.48924E-004	0.00000E+000	-1.04759E+000	0.00000E+000	9	...........	 0.00
	441	4.41	1.01066E-002	-3.48911E-004	0.00000E+000	-1.04759E+000	0.00000E+000	9	...........	 0.00
	442	4.42	7.92841E-003	-3.48872E-004	0.00000E+000	-1.04759E+000	0.00000E+000	9	...........	 0.00
	443	4.43	5.75547E-003	-3.48846E-004	0.00000E+000	-1.04759E+000	0.00000E+000	9	...........	 0.00
	444	4.44	3.57876E-003	-3.48924E-004	0.00000E+000	-1.04759E+000	0.00000E+000	9	...........	 0.00
	445	4.45	1.40702E-003	-3.49014E-004	0.00000E+000	-1.04759E+000	0.00000E+000	9	...........	 0.00
	446	4.46	-7.55389E-004	-3.48981E-004	0.00000E+000	-1.04759E+000	0.00000E+000	9	...........	 0.00
