Created as New Dataset,Sample 044 By ACMarques Date Tuesday
cm-1,%T
4000,48.83
3999,48.83
3998,48.83
3997,48.83
3996,48.83
3995,48.83
3994,48.83
3993,48.83
3992,48.83
3991,48.82
3990,48.82
3989,48.81
3988,48.81
3987,48.81
3986,48.8
3985,48.8
3984,48.8
3983,48.79
3982,48.79
3981,48.79
3980,48.79
3979,48.8
3978,48.8
3977,48.8
3976,48.8
3975,48.8
3974,48.8
3973,48.8
3972,48.8
3971,48.79
3970,48.79
3969,48.78
3968,48.78
3967,48.78
3966,48.78
3965,48.78
3964,48.78
3963,48.78
3962,48.78
3961,48.78
3960,48.78
3959,48.78
3958,48.77
3957,48.77
3956,48.77
3955,48.78
3954,48.79
3953,48.8
3952,48.81
3951,48.82
3950,48.82
3949,48.82
3948,48.83
3947,48.85
3946,48.85
3945,48.84
3944,48.81
3943,48.8
3942,48.81
3941,48.81
3940,48.79
3939,48.77
3938,48.76
3937,48.78
3936,48.81
3935,48.83
3934,48.83
3933,48.83
3932,48.83
3931,48.83
3930,48.84
3929,48.85
3928,48.84
3927,48.83
3926,48.81
3925,48.82
3924,48.85
3923,48.87
3922,48.87
3921,48.86
3920,48.85
3919,48.84
3918,48.82
3917,48.8
3916,48.79
3915,48.78
3914,48.75
3913,48.72
3912,48.7
3911,48.71
3910,48.76
3909,48.82
3908,48.9
3907,48.96
3906,49.01
3905,49.06
3904,49.1
3903,49.13
3902,49.11
3901,49.02
3900,48.93
3899,48.88
3898,48.87
3897,48.87
3896,48.87
3895,48.87
3894,48.86
3893,48.83
3892,48.82
3891,48.86
3890,48.96
3889,49
3888,48.95
3887,48.86
3886,48.84
3885,48.93
3884,49.03
3883,49.02
3882,48.91
3881,48.82
3880,48.82
3879,48.9
3878,48.94
3877,48.91
3876,48.87
3875,48.89
3874,49
3873,49.1
3872,49.1
3871,49.02
3870,48.98
3869,49.06
3868,49.13
3867,49.08
3866,48.98
3865,48.93
3864,48.93
3863,48.94
3862,48.92
3861,48.91
3860,48.93
3859,49
3858,49.13
3857,49.27
3856,49.38
3855,49.35
3854,49.23
3853,49.18
3852,49.23
3851,49.19
3850,49.01
3849,48.87
3848,48.81
3847,48.82
3846,48.86
3845,48.91
3844,48.98
3843,49.08
3842,49.17
3841,49.22
3840,49.2
3839,49.15
3838,49.13
3837,49.13
3836,49.13
3835,49.09
3834,49.01
3833,48.92
3832,48.89
3831,48.9
3830,48.92
3829,48.91
3828,48.88
3827,48.89
3826,48.99
3825,49.11
3824,49.17
3823,49.14
3822,49.07
3821,49.11
3820,49.23
3819,49.27
3818,49.14
3817,48.95
3816,48.87
3815,48.91
3814,48.95
3813,48.91
3812,48.86
3811,48.89
3810,48.94
3809,48.96
3808,48.94
3807,48.98
3806,49.12
3805,49.24
3804,49.21
3803,49.09
3802,49
3801,49.05
3800,49.15
3799,49.13
3798,49
3797,48.88
3796,48.84
3795,48.86
3794,48.85
3793,48.82
3792,48.79
3791,48.79
3790,48.81
3789,48.85
3788,48.87
3787,48.87
3786,48.87
3785,48.88
3784,48.93
3783,48.97
3782,48.98
3781,48.95
3780,48.91
3779,48.9
3778,48.92
3777,48.91
3776,48.89
3775,48.89
3774,48.93
3773,48.98
3772,49
3771,48.99
3770,49.01
3769,49.06
3768,49.07
3767,49.02
3766,48.96
3765,48.97
3764,49.03
3763,49.07
3762,49.07
3761,49.06
3760,49.07
3759,49.1
3758,49.14
3757,49.2
3756,49.28
3755,49.36
3754,49.44
3753,49.5
3752,49.5
3751,49.48
3750,49.49
3749,49.58
3748,49.64
3747,49.58
3746,49.4
3745,49.24
3744,49.25
3743,49.39
3742,49.42
3741,49.33
3740,49.3
3739,49.37
3738,49.46
3737,49.5
3736,49.51
3735,49.5
3734,49.44
3733,49.33
3732,49.24
3731,49.21
3730,49.21
3729,49.18
3728,49.14
3727,49.14
3726,49.19
3725,49.23
3724,49.23
3723,49.2
3722,49.17
3721,49.16
3720,49.14
3719,49.12
3718,49.13
3717,49.18
3716,49.27
3715,49.34
3714,49.39
3713,49.39
3712,49.37
3711,49.33
3710,49.29
3709,49.23
3708,49.16
3707,49.12
3706,49.11
3705,49.12
3704,49.12
3703,49.1
3702,49.09
3701,49.11
3700,49.13
3699,49.11
3698,49.08
3697,49.07
3696,49.11
3695,49.19
3694,49.28
3693,49.37
3692,49.44
3691,49.47
3690,49.41
3689,49.34
3688,49.3
3687,49.28
3686,49.22
3685,49.14
3684,49.1
3683,49.11
3682,49.17
3681,49.25
3680,49.37
3679,49.52
3678,49.6
3677,49.55
3676,49.47
3675,49.51
3674,49.64
3673,49.64
3672,49.49
3671,49.33
3670,49.25
3669,49.27
3668,49.28
3667,49.21
3666,49.11
3665,49.06
3664,49.05
3663,49.06
3662,49.09
3661,49.15
3660,49.21
3659,49.25
3658,49.23
3657,49.2
3656,49.24
3655,49.36
3654,49.48
3653,49.55
3652,49.61
3651,49.64
3650,49.63
3649,49.56
3648,49.49
3647,49.42
3646,49.34
3645,49.24
3644,49.15
3643,49.09
3642,49.08
3641,49.08
3640,49.09
3639,49.1
3638,49.11
3637,49.14
3636,49.15
3635,49.17
3634,49.24
3633,49.36
3632,49.46
3631,49.46
3630,49.36
3629,49.26
3628,49.27
3627,49.29
3626,49.22
3625,49.13
3624,49.11
3623,49.16
3622,49.22
3621,49.23
3620,49.22
3619,49.22
3618,49.26
3617,49.27
3616,49.24
3615,49.19
3614,49.16
3613,49.17
3612,49.19
3611,49.17
3610,49.11
3609,49.02
3608,48.97
3607,48.95
3606,48.93
3605,48.9
3604,48.86
3603,48.84
3602,48.83
3601,48.83
3600,48.84
3599,48.85
3598,48.85
3597,48.82
3596,48.79
3595,48.76
3594,48.75
3593,48.76
3592,48.79
3591,48.81
3590,48.81
3589,48.77
3588,48.73
3587,48.69
3586,48.67
3585,48.62
3584,48.54
3583,48.47
3582,48.42
3581,48.4
3580,48.38
3579,48.36
3578,48.34
3577,48.32
3576,48.29
3575,48.27
3574,48.26
3573,48.28
3572,48.32
3571,48.38
3570,48.42
3569,48.42
3568,48.38
3567,48.33
3566,48.29
3565,48.25
3564,48.19
3563,48.12
3562,48.06
3561,48.02
3560,47.99
3559,47.96
3558,47.95
3557,47.94
3556,47.94
3555,47.93
3554,47.92
3553,47.9
3552,47.89
3551,47.89
3550,47.9
3549,47.9
3548,47.89
3547,47.87
3546,47.84
3545,47.81
3544,47.77
3543,47.72
3542,47.69
3541,47.66
3540,47.64
3539,47.64
3538,47.63
3537,47.61
3536,47.59
3535,47.57
3534,47.56
3533,47.55
3532,47.54
3531,47.54
3530,47.53
3529,47.53
3528,47.53
3527,47.52
3526,47.52
3525,47.49
3524,47.46
3523,47.42
3522,47.39
3521,47.36
3520,47.34
3519,47.31
3518,47.29
3517,47.28
3516,47.28
3515,47.27
3514,47.26
3513,47.26
3512,47.24
3511,47.23
3510,47.21
3509,47.2
3508,47.2
3507,47.21
3506,47.21
3505,47.2
3504,47.18
3503,47.16
3502,47.14
3501,47.12
3500,47.1
3499,47.08
3498,47.06
3497,47.04
3496,47.02
3495,47
3494,46.99
3493,46.97
3492,46.96
3491,46.95
3490,46.94
3489,46.94
3488,46.93
3487,46.92
3486,46.92
3485,46.9
3484,46.89
3483,46.87
3482,46.86
3481,46.85
3480,46.84
3479,46.82
3478,46.8
3477,46.78
3476,46.76
3475,46.75
3474,46.74
3473,46.74
3472,46.73
3471,46.73
3470,46.73
3469,46.72
3468,46.7
3467,46.68
3466,46.66
3465,46.65
3464,46.63
3463,46.62
3462,46.61
3461,46.59
3460,46.57
3459,46.55
3458,46.53
3457,46.52
3456,46.51
3455,46.5
3454,46.49
3453,46.47
3452,46.47
3451,46.47
3450,46.47
3449,46.46
3448,46.45
3447,46.44
3446,46.43
3445,46.41
3444,46.39
3443,46.37
3442,46.36
3441,46.36
3440,46.36
3439,46.35
3438,46.35
3437,46.34
3436,46.32
3435,46.31
3434,46.29
3433,46.28
3432,46.27
3431,46.26
3430,46.25
3429,46.24
3428,46.22
3427,46.2
3426,46.19
3425,46.18
3424,46.18
3423,46.17
3422,46.16
3421,46.15
3420,46.14
3419,46.12
3418,46.11
3417,46.1
3416,46.09
3415,46.08
3414,46.08
3413,46.07
3412,46.06
3411,46.05
3410,46.04
3409,46.03
3408,46.02
3407,46
3406,45.99
3405,45.98
3404,45.98
3403,45.99
3402,45.99
3401,45.98
3400,45.96
3399,45.93
3398,45.91
3397,45.9
3396,45.89
3395,45.89
3394,45.89
3393,45.88
3392,45.87
3391,45.85
3390,45.83
3389,45.81
3388,45.8
3387,45.79
3386,45.79
3385,45.78
3384,45.77
3383,45.76
3382,45.75
3381,45.74
3380,45.73
3379,45.73
3378,45.72
3377,45.71
3376,45.7
3375,45.7
3374,45.69
3373,45.7
3372,45.71
3371,45.71
3370,45.71
3369,45.71
3368,45.69
3367,45.67
3366,45.66
3365,45.64
3364,45.63
3363,45.63
3362,45.62
3361,45.6
3360,45.59
3359,45.57
3358,45.56
3357,45.55
3356,45.55
3355,45.55
3354,45.55
3353,45.56
3352,45.56
3351,45.55
3350,45.53
3349,45.51
3348,45.5
3347,45.49
3346,45.49
3345,45.49
3344,45.49
3343,45.49
3342,45.49
3341,45.49
3340,45.49
3339,45.49
3338,45.48
3337,45.46
3336,45.44
3335,45.43
3334,45.42
3333,45.41
3332,45.4
3331,45.4
3330,45.4
3329,45.4
3328,45.4
3327,45.4
3326,45.4
3325,45.39
3324,45.37
3323,45.35
3322,45.34
3321,45.33
3320,45.32
3319,45.32
3318,45.32
3317,45.32
3316,45.32
3315,45.32
3314,45.32
3313,45.32
3312,45.33
3311,45.34
3310,45.35
3309,45.35
3308,45.35
3307,45.34
3306,45.33
3305,45.31
3304,45.29
3303,45.27
3302,45.26
3301,45.26
3300,45.26
3299,45.26
3298,45.27
3297,45.27
3296,45.28
3295,45.28
3294,45.27
3293,45.26
3292,45.25
3291,45.23
3290,45.21
3289,45.19
3288,45.18
3287,45.17
3286,45.17
3285,45.17
3284,45.17
3283,45.16
3282,45.16
3281,45.15
3280,45.15
3279,45.15
3278,45.16
3277,45.17
3276,45.17
3275,45.17
3274,45.17
3273,45.17
3272,45.17
3271,45.16
3270,45.14
3269,45.12
3268,45.1
3267,45.09
3266,45.08
3265,45.08
3264,45.07
3263,45.07
3262,45.07
3261,45.07
3260,45.07
3259,45.07
3258,45.08
3257,45.08
3256,45.07
3255,45.06
3254,45.05
3253,45.04
3252,45.03
3251,45.03
3250,45.04
3249,45.05
3248,45.06
3247,45.05
3246,45.04
3245,45.03
3244,45.01
3243,45
3242,44.99
3241,44.99
3240,44.99
3239,44.99
3238,44.99
3237,45
3236,45.01
3235,45.02
3234,45.02
3233,45.01
3232,44.99
3231,44.97
3230,44.95
3229,44.94
3228,44.94
3227,44.94
3226,44.93
3225,44.93
3224,44.93
3223,44.93
3222,44.93
3221,44.93
3220,44.93
3219,44.93
3218,44.93
3217,44.92
3216,44.92
3215,44.91
3214,44.9
3213,44.89
3212,44.88
3211,44.88
3210,44.87
3209,44.87
3208,44.86
3207,44.86
3206,44.85
3205,44.85
3204,44.84
3203,44.84
3202,44.84
3201,44.84
3200,44.84
3199,44.83
3198,44.83
3197,44.82
3196,44.82
3195,44.81
3194,44.81
3193,44.81
3192,44.8
3191,44.8
3190,44.79
3189,44.79
3188,44.79
3187,44.79
3186,44.78
3185,44.78
3184,44.78
3183,44.77
3182,44.77
3181,44.77
3180,44.77
3179,44.77
3178,44.77
3177,44.76
3176,44.75
3175,44.75
3174,44.75
3173,44.74
3172,44.74
3171,44.74
3170,44.73
3169,44.73
3168,44.73
3167,44.73
3166,44.72
3165,44.72
3164,44.72
3163,44.72
3162,44.71
3161,44.71
3160,44.71
3159,44.71
3158,44.71
3157,44.72
3156,44.73
3155,44.74
3154,44.75
3153,44.75
3152,44.74
3151,44.72
3150,44.71
3149,44.69
3148,44.68
3147,44.67
3146,44.66
3145,44.67
3144,44.67
3143,44.68
3142,44.7
3141,44.71
3140,44.72
3139,44.71
3138,44.69
3137,44.67
3136,44.66
3135,44.66
3134,44.66
3133,44.66
3132,44.67
3131,44.67
3130,44.67
3129,44.66
3128,44.65
3127,44.65
3126,44.65
3125,44.66
3124,44.67
3123,44.68
3122,44.7
3121,44.71
3120,44.72
3119,44.72
3118,44.71
3117,44.7
3116,44.68
3115,44.66
3114,44.64
3113,44.63
3112,44.63
3111,44.64
3110,44.64
3109,44.64
3108,44.63
3107,44.61
3106,44.6
3105,44.6
3104,44.6
3103,44.6
3102,44.61
3101,44.61
3100,44.6
3099,44.59
3098,44.58
3097,44.56
3096,44.56
3095,44.56
3094,44.56
3093,44.57
3092,44.58
3091,44.59
3090,44.59
3089,44.59
3088,44.59
3087,44.59
3086,44.6
3085,44.6
3084,44.6
3083,44.6
3082,44.6
3081,44.6
3080,44.6
3079,44.59
3078,44.57
3077,44.55
3076,44.53
3075,44.51
3074,44.51
3073,44.51
3072,44.51
3071,44.52
3070,44.54
3069,44.55
3068,44.55
3067,44.54
3066,44.53
3065,44.52
3064,44.5
3063,44.49
3062,44.48
3061,44.48
3060,44.48
3059,44.49
3058,44.5
3057,44.5
3056,44.5
3055,44.5
3054,44.5
3053,44.5
3052,44.5
3051,44.5
3050,44.49
3049,44.48
3048,44.48
3047,44.49
3046,44.5
3045,44.5
3044,44.5
3043,44.5
3042,44.49
3041,44.48
3040,44.46
3039,44.45
3038,44.45
3037,44.46
3036,44.47
3035,44.48
3034,44.47
3033,44.46
3032,44.45
3031,44.44
3030,44.42
3029,44.42
3028,44.41
3027,44.41
3026,44.42
3025,44.42
3024,44.41
3023,44.41
3022,44.41
3021,44.41
3020,44.42
3019,44.42
3018,44.42
3017,44.42
3016,44.42
3015,44.42
3014,44.42
3013,44.41
3012,44.4
3011,44.38
3010,44.36
3009,44.34
3008,44.33
3007,44.33
3006,44.32
3005,44.32
3004,44.32
3003,44.32
3002,44.32
3001,44.32
3000,44.33
2999,44.33
2998,44.34
2997,44.33
2996,44.33
2995,44.33
2994,44.33
2993,44.33
2992,44.33
2991,44.32
2990,44.31
2989,44.3
2988,44.29
2987,44.29
2986,44.29
2985,44.29
2984,44.29
2983,44.3
2982,44.3
2981,44.3
2980,44.3
2979,44.3
2978,44.29
2977,44.29
2976,44.29
2975,44.29
2974,44.28
2973,44.27
2972,44.26
2971,44.26
2970,44.26
2969,44.26
2968,44.26
2967,44.25
2966,44.25
2965,44.25
2964,44.25
2963,44.25
2962,44.25
2961,44.24
2960,44.23
2959,44.22
2958,44.22
2957,44.21
2956,44.21
2955,44.22
2954,44.22
2953,44.22
2952,44.21
2951,44.21
2950,44.21
2949,44.21
2948,44.22
2947,44.23
2946,44.23
2945,44.23
2944,44.22
2943,44.21
2942,44.2
2941,44.19
2940,44.19
2939,44.18
2938,44.18
2937,44.18
2936,44.18
2935,44.19
2934,44.19
2933,44.2
2932,44.21
2931,44.22
2930,44.22
2929,44.2
2928,44.18
2927,44.16
2926,44.15
2925,44.13
2924,44.11
2923,44.1
2922,44.08
2921,44.08
2920,44.08
2919,44.08
2918,44.09
2917,44.09
2916,44.09
2915,44.09
2914,44.08
2913,44.08
2912,44.07
2911,44.06
2910,44.05
2909,44.04
2908,44.04
2907,44.03
2906,44.03
2905,44.03
2904,44.03
2903,44.03
2902,44.03
2901,44.02
2900,44.02
2899,44.02
2898,44.02
2897,44.02
2896,44.01
2895,44
2894,43.99
2893,43.99
2892,43.98
2891,43.98
2890,43.98
2889,43.97
2888,43.97
2887,43.97
2886,43.97
2885,43.96
2884,43.96
2883,43.96
2882,43.96
2881,43.96
2880,43.96
2879,43.96
2878,43.96
2877,43.97
2876,43.99
2875,44
2874,44.01
2873,44
2872,43.98
2871,43.97
2870,43.96
2869,43.95
2868,43.95
2867,43.95
2866,43.94
2865,43.94
2864,43.94
2863,43.94
2862,43.94
2861,43.95
2860,43.94
2859,43.94
2858,43.93
2857,43.92
2856,43.91
2855,43.91
2854,43.9
2853,43.89
2852,43.89
2851,43.88
2850,43.88
2849,43.88
2848,43.88
2847,43.87
2846,43.86
2845,43.86
2844,43.86
2843,43.87
2842,43.88
2841,43.89
2840,43.9
2839,43.9
2838,43.9
2837,43.89
2836,43.88
2835,43.88
2834,43.87
2833,43.87
2832,43.86
2831,43.86
2830,43.86
2829,43.85
2828,43.85
2827,43.85
2826,43.85
2825,43.85
2824,43.85
2823,43.85
2822,43.85
2821,43.85
2820,43.85
2819,43.85
2818,43.85
2817,43.85
2816,43.85
2815,43.85
2814,43.85
2813,43.85
2812,43.85
2811,43.86
2810,43.86
2809,43.85
2808,43.84
2807,43.84
2806,43.83
2805,43.83
2804,43.82
2803,43.82
2802,43.82
2801,43.83
2800,43.83
2799,43.84
2798,43.84
2797,43.83
2796,43.82
2795,43.82
2794,43.82
2793,43.82
2792,43.82
2791,43.83
2790,43.82
2789,43.82
2788,43.81
2787,43.8
2786,43.79
2785,43.79
2784,43.78
2783,43.78
2782,43.78
2781,43.78
2780,43.78
2779,43.78
2778,43.78
2777,43.79
2776,43.79
2775,43.8
2774,43.79
2773,43.79
2772,43.78
2771,43.78
2770,43.77
2769,43.77
2768,43.77
2767,43.77
2766,43.76
2765,43.76
2764,43.76
2763,43.76
2762,43.76
2761,43.76
2760,43.76
2759,43.76
2758,43.76
2757,43.76
2756,43.76
2755,43.76
2754,43.76
2753,43.76
2752,43.76
2751,43.77
2750,43.77
2749,43.77
2748,43.76
2747,43.76
2746,43.75
2745,43.74
2744,43.74
2743,43.74
2742,43.74
2741,43.74
2740,43.74
2739,43.74
2738,43.74
2737,43.73
2736,43.73
2735,43.73
2734,43.72
2733,43.72
2732,43.72
2731,43.73
2730,43.73
2729,43.73
2728,43.74
2727,43.74
2726,43.73
2725,43.73
2724,43.73
2723,43.73
2722,43.72
2721,43.72
2720,43.72
2719,43.71
2718,43.71
2717,43.71
2716,43.7
2715,43.7
2714,43.7
2713,43.7
2712,43.7
2711,43.7
2710,43.7
2709,43.7
2708,43.69
2707,43.69
2706,43.69
2705,43.69
2704,43.69
2703,43.69
2702,43.69
2701,43.69
2700,43.68
2699,43.68
2698,43.68
2697,43.67
2696,43.67
2695,43.67
2694,43.67
2693,43.66
2692,43.66
2691,43.66
2690,43.66
2689,43.65
2688,43.65
2687,43.65
2686,43.65
2685,43.65
2684,43.65
2683,43.66
2682,43.66
2681,43.66
2680,43.66
2679,43.66
2678,43.66
2677,43.65
2676,43.65
2675,43.65
2674,43.65
2673,43.64
2672,43.64
2671,43.64
2670,43.63
2669,43.63
2668,43.63
2667,43.62
2666,43.62
2665,43.62
2664,43.62
2663,43.63
2662,43.63
2661,43.64
2660,43.64
2659,43.65
2658,43.66
2657,43.67
2656,43.68
2655,43.69
2654,43.7
2653,43.71
2652,43.72
2651,43.73
2650,43.74
2649,43.75
2648,43.76
2647,43.76
2646,43.77
2645,43.78
2644,43.8
2643,43.81
2642,43.82
2641,43.83
2640,43.84
2639,43.85
2638,43.87
2637,43.87
2636,43.88
2635,43.89
2634,43.89
2633,43.9
2632,43.9
2631,43.91
2630,43.92
2629,43.92
2628,43.93
2627,43.93
2626,43.94
2625,43.94
2624,43.94
2623,43.94
2622,43.95
2621,43.95
2620,43.95
2619,43.96
2618,43.97
2617,43.97
2616,43.98
2615,43.98
2614,43.99
2613,43.99
2612,43.99
2611,43.99
2610,43.99
2609,43.99
2608,44
2607,44
2606,44
2605,44
2604,43.99
2603,43.99
2602,43.99
2601,43.99
2600,43.99
2599,44
2598,44
2597,44
2596,44
2595,44
2594,44
2593,43.99
2592,43.99
2591,43.99
2590,43.99
2589,44
2588,43.99
2587,43.99
2586,43.99
2585,43.99
2584,43.99
2583,43.99
2582,43.99
2581,43.99
2580,43.99
2579,43.99
2578,43.99
2577,43.99
2576,43.99
2575,43.98
2574,43.98
2573,43.99
2572,43.99
2571,43.98
2570,43.98
2569,43.98
2568,43.97
2567,43.97
2566,43.96
2565,43.96
2564,43.96
2563,43.96
2562,43.96
2561,43.96
2560,43.96
2559,43.96
2558,43.96
2557,43.96
2556,43.96
2555,43.95
2554,43.94
2553,43.93
2552,43.93
2551,43.94
2550,43.95
2549,43.95
2548,43.95
2547,43.94
2546,43.93
2545,43.93
2544,43.93
2543,43.93
2542,43.92
2541,43.92
2540,43.91
2539,43.91
2538,43.91
2537,43.91
2536,43.91
2535,43.92
2534,43.92
2533,43.91
2532,43.91
2531,43.91
2530,43.91
2529,43.91
2528,43.91
2527,43.9
2526,43.89
2525,43.88
2524,43.87
2523,43.87
2522,43.87
2521,43.87
2520,43.87
2519,43.87
2518,43.87
2517,43.87
2516,43.87
2515,43.86
2514,43.85
2513,43.85
2512,43.84
2511,43.84
2510,43.84
2509,43.83
2508,43.83
2507,43.83
2506,43.82
2505,43.81
2504,43.8
2503,43.8
2502,43.8
2501,43.79
2500,43.79
2499,43.79
2498,43.78
2497,43.78
2496,43.77
2495,43.77
2494,43.76
2493,43.77
2492,43.77
2491,43.77
2490,43.76
2489,43.76
2488,43.75
2487,43.74
2486,43.74
2485,43.73
2484,43.73
2483,43.73
2482,43.72
2481,43.72
2480,43.71
2479,43.71
2478,43.7
2477,43.7
2476,43.7
2475,43.69
2474,43.69
2473,43.69
2472,43.69
2471,43.69
2470,43.68
2469,43.68
2468,43.67
2467,43.67
2466,43.67
2465,43.66
2464,43.65
2463,43.64
2462,43.64
2461,43.64
2460,43.64
2459,43.63
2458,43.63
2457,43.63
2456,43.63
2455,43.63
2454,43.62
2453,43.62
2452,43.61
2451,43.6
2450,43.6
2449,43.59
2448,43.59
2447,43.59
2446,43.59
2445,43.58
2444,43.58
2443,43.57
2442,43.57
2441,43.57
2440,43.56
2439,43.56
2438,43.56
2437,43.56
2436,43.56
2435,43.56
2434,43.55
2433,43.54
2432,43.53
2431,43.53
2430,43.52
2429,43.52
2428,43.52
2427,43.52
2426,43.52
2425,43.52
2424,43.51
2423,43.51
2422,43.5
2421,43.5
2420,43.49
2419,43.49
2418,43.48
2417,43.48
2416,43.47
2415,43.46
2414,43.45
2413,43.45
2412,43.44
2411,43.44
2410,43.44
2409,43.44
2408,43.43
2407,43.42
2406,43.42
2405,43.41
2404,43.4
2403,43.4
2402,43.39
2401,43.38
2400,43.38
2399,43.37
2398,43.36
2397,43.36
2396,43.35
2395,43.34
2394,43.34
2393,43.33
2392,43.33
2391,43.32
2390,43.32
2389,43.32
2388,43.31
2387,43.31
2386,43.31
2385,43.31
2384,43.3
2383,43.3
2382,43.3
2381,43.29
2380,43.29
2379,43.28
2378,43.28
2377,43.27
2376,43.27
2375,43.26
2374,43.26
2373,43.25
2372,43.25
2371,43.25
2370,43.24
2369,43.24
2368,43.23
2367,43.23
2366,43.23
2365,43.22
2364,43.22
2363,43.21
2362,43.21
2361,43.21
2360,43.2
2359,43.2
2358,43.2
2357,43.2
2356,43.19
2355,43.17
2354,43.14
2353,43.11
2352,43.09
2351,43.13
2350,43.2
2349,43.28
2348,43.34
2347,43.34
2346,43.29
2345,43.2
2344,43.11
2343,43.06
2342,43.03
2341,43.03
2340,43.05
2339,43.08
2338,43.1
2337,43.11
2336,43.11
2335,43.11
2334,43.11
2333,43.1
2332,43.09
2331,43.07
2330,43.05
2329,43.02
2328,42.99
2327,42.97
2326,42.96
2325,42.96
2324,42.98
2323,43
2322,43
2321,43
2320,42.99
2319,42.99
2318,42.99
2317,42.99
2316,42.99
2315,42.99
2314,42.98
2313,42.97
2312,42.96
2311,42.96
2310,42.97
2309,42.97
2308,42.97
2307,42.98
2306,42.98
2305,42.99
2304,42.98
2303,42.98
2302,42.98
2301,42.98
2300,42.97
2299,42.97
2298,42.97
2297,42.97
2296,42.97
2295,42.97
2294,42.97
2293,42.97
2292,42.96
2291,42.96
2290,42.96
2289,42.96
2288,42.96
2287,42.96
2286,42.97
2285,42.98
2284,42.99
2283,42.99
2282,42.99
2281,42.98
2280,42.97
2279,42.97
2278,42.98
2277,42.98
2276,42.98
2275,42.97
2274,42.97
2273,42.96
2272,42.95
2271,42.96
2270,42.96
2269,42.96
2268,42.95
2267,42.95
2266,42.95
2265,42.96
2264,42.97
2263,42.98
2262,42.98
2261,42.97
2260,42.96
2259,42.95
2258,42.95
2257,42.95
2256,42.95
2255,42.96
2254,42.96
2253,42.96
2252,42.94
2251,42.93
2250,42.93
2249,42.93
2248,42.93
2247,42.93
2246,42.93
2245,42.92
2244,42.91
2243,42.9
2242,42.89
2241,42.89
2240,42.88
2239,42.89
2238,42.89
2237,42.88
2236,42.88
2235,42.88
2234,42.87
2233,42.87
2232,42.87
2231,42.88
2230,42.88
2229,42.88
2228,42.87
2227,42.87
2226,42.86
2225,42.86
2224,42.85
2223,42.84
2222,42.83
2221,42.82
2220,42.81
2219,42.82
2218,42.82
2217,42.83
2216,42.84
2215,42.85
2214,42.84
2213,42.83
2212,42.82
2211,42.81
2210,42.8
2209,42.79
2208,42.78
2207,42.78
2206,42.78
2205,42.78
2204,42.77
2203,42.77
2202,42.77
2201,42.76
2200,42.76
2199,42.76
2198,42.76
2197,42.76
2196,42.76
2195,42.77
2194,42.76
2193,42.74
2192,42.71
2191,42.69
2190,42.69
2189,42.69
2188,42.68
2187,42.69
2186,42.69
2185,42.7
2184,42.73
2183,42.76
2182,42.78
2181,42.76
2180,42.73
2179,42.69
2178,42.67
2177,42.67
2176,42.69
2175,42.72
2174,42.73
2173,42.72
2172,42.7
2171,42.68
2170,42.67
2169,42.66
2168,42.64
2167,42.64
2166,42.64
2165,42.64
2164,42.63
2163,42.63
2162,42.64
2161,42.68
2160,42.73
2159,42.78
2158,42.81
2157,42.8
2156,42.78
2155,42.77
2154,42.75
2153,42.73
2152,42.7
2151,42.69
2150,42.68
2149,42.69
2148,42.69
2147,42.71
2146,42.72
2145,42.72
2144,42.73
2143,42.73
2142,42.73
2141,42.71
2140,42.69
2139,42.67
2138,42.67
2137,42.66
2136,42.67
2135,42.68
2134,42.7
2133,42.7
2132,42.68
2131,42.66
2130,42.63
2129,42.61
2128,42.6
2127,42.61
2126,42.61
2125,42.61
2124,42.6
2123,42.59
2122,42.58
2121,42.57
2120,42.57
2119,42.58
2118,42.58
2117,42.57
2116,42.55
2115,42.54
2114,42.54
2113,42.53
2112,42.53
2111,42.54
2110,42.54
2109,42.54
2108,42.53
2107,42.53
2106,42.53
2105,42.53
2104,42.52
2103,42.51
2102,42.51
2101,42.51
2100,42.51
2099,42.52
2098,42.52
2097,42.52
2096,42.52
2095,42.51
2094,42.5
2093,42.48
2092,42.47
2091,42.46
2090,42.46
2089,42.45
2088,42.45
2087,42.46
2086,42.47
2085,42.47
2084,42.46
2083,42.46
2082,42.44
2081,42.43
2080,42.43
2079,42.43
2078,42.43
2077,42.43
2076,42.42
2075,42.43
2074,42.43
2073,42.42
2072,42.42
2071,42.43
2070,42.43
2069,42.44
2068,42.44
2067,42.44
2066,42.44
2065,42.43
2064,42.43
2063,42.42
2062,42.42
2061,42.41
2060,42.4
2059,42.4
2058,42.4
2057,42.4
2056,42.39
2055,42.39
2054,42.39
2053,42.39
2052,42.38
2051,42.37
2050,42.36
2049,42.35
2048,42.36
2047,42.37
2046,42.39
2045,42.39
2044,42.38
2043,42.37
2042,42.37
2041,42.37
2040,42.37
2039,42.38
2038,42.39
2037,42.38
2036,42.37
2035,42.37
2034,42.37
2033,42.36
2032,42.36
2031,42.35
2030,42.34
2029,42.32
2028,42.3
2027,42.28
2026,42.28
2025,42.27
2024,42.28
2023,42.33
2022,42.38
2021,42.4
2020,42.4
2019,42.39
2018,42.37
2017,42.34
2016,42.31
2015,42.3
2014,42.29
2013,42.29
2012,42.28
2011,42.28
2010,42.26
2009,42.23
2008,42.24
2007,42.26
2006,42.28
2005,42.28
2004,42.26
2003,42.25
2002,42.23
2001,42.2
2000,42.17
1999,42.17
1998,42.19
1997,42.19
1996,42.19
1995,42.19
1994,42.18
1993,42.17
1992,42.16
1991,42.17
1990,42.18
1989,42.18
1988,42.17
1987,42.16
1986,42.15
1985,42.14
1984,42.11
1983,42.09
1982,42.07
1981,42.06
1980,42.07
1979,42.1
1978,42.12
1977,42.13
1976,42.13
1975,42.14
1974,42.14
1973,42.15
1972,42.15
1971,42.17
1970,42.17
1969,42.15
1968,42.13
1967,42.12
1966,42.12
1965,42.12
1964,42.11
1963,42.11
1962,42.11
1961,42.1
1960,42.09
1959,42.08
1958,42.07
1957,42.05
1956,42.05
1955,42.05
1954,42.04
1953,42.04
1952,42.02
1951,42.02
1950,42.01
1949,42.01
1948,42
1947,42
1946,41.99
1945,41.98
1944,41.96
1943,41.94
1942,41.93
1941,41.92
1940,41.93
1939,41.95
1938,41.96
1937,41.96
1936,41.95
1935,41.94
1934,41.93
1933,41.9
1932,41.89
1931,41.89
1930,41.89
1929,41.89
1928,41.89
1927,41.88
1926,41.88
1925,41.86
1924,41.85
1923,41.85
1922,41.83
1921,41.81
1920,41.78
1919,41.77
1918,41.77
1917,41.77
1916,41.77
1915,41.78
1914,41.78
1913,41.77
1912,41.77
1911,41.77
1910,41.77
1909,41.76
1908,41.74
1907,41.73
1906,41.72
1905,41.71
1904,41.71
1903,41.71
1902,41.7
1901,41.69
1900,41.68
1899,41.68
1898,41.68
1897,41.67
1896,41.66
1895,41.66
1894,41.66
1893,41.65
1892,41.65
1891,41.65
1890,41.64
1889,41.62
1888,41.6
1887,41.59
1886,41.58
1885,41.58
1884,41.59
1883,41.59
1882,41.59
1881,41.58
1880,41.57
1879,41.57
1878,41.56
1877,41.55
1876,41.55
1875,41.55
1874,41.56
1873,41.56
1872,41.55
1871,41.55
1870,41.55
1869,41.53
1868,41.52
1867,41.51
1866,41.5
1865,41.48
1864,41.48
1863,41.48
1862,41.48
1861,41.47
1860,41.46
1859,41.46
1858,41.45
1857,41.44
1856,41.44
1855,41.44
1854,41.44
1853,41.43
1852,41.42
1851,41.42
1850,41.41
1849,41.41
1848,41.41
1847,41.39
1846,41.37
1845,41.36
1844,41.35
1843,41.37
1842,41.37
1841,41.35
1840,41.34
1839,41.35
1838,41.34
1837,41.33
1836,41.32
1835,41.32
1834,41.31
1833,41.3
1832,41.29
1831,41.29
1830,41.3
1829,41.3
1828,41.28
1827,41.26
1826,41.25
1825,41.23
1824,41.23
1823,41.22
1822,41.22
1821,41.21
1820,41.2
1819,41.2
1818,41.19
1817,41.18
1816,41.16
1815,41.15
1814,41.15
1813,41.14
1812,41.12
1811,41.12
1810,41.11
1809,41.09
1808,41.08
1807,41.08
1806,41.08
1805,41.07
1804,41.07
1803,41.07
1802,41.07
1801,41.06
1800,41.04
1799,41.04
1798,41.04
1797,41.03
1796,41.02
1795,41.01
1794,41.01
1793,40.99
1792,40.98
1791,40.98
1790,40.97
1789,40.96
1788,40.95
1787,40.95
1786,40.95
1785,40.94
1784,40.94
1783,40.94
1782,40.94
1781,40.94
1780,40.93
1779,40.92
1778,40.92
1777,40.91
1776,40.91
1775,40.89
1774,40.88
1773,40.88
1772,40.87
1771,40.87
1770,40.84
1769,40.81
1768,40.79
1767,40.8
1766,40.8
1765,40.79
1764,40.77
1763,40.77
1762,40.78
1761,40.79
1760,40.79
1759,40.78
1758,40.77
1757,40.78
1756,40.78
1755,40.77
1754,40.77
1753,40.77
1752,40.77
1751,40.77
1750,40.77
1749,40.77
1748,40.76
1747,40.75
1746,40.75
1745,40.75
1744,40.74
1743,40.72
1742,40.71
1741,40.7
1740,40.71
1739,40.72
1738,40.71
1737,40.68
1736,40.65
1735,40.65
1734,40.66
1733,40.68
1732,40.68
1731,40.65
1730,40.63
1729,40.62
1728,40.62
1727,40.61
1726,40.61
1725,40.61
1724,40.6
1723,40.6
1722,40.59
1721,40.57
1720,40.57
1719,40.58
1718,40.58
1717,40.56
1716,40.54
1715,40.53
1714,40.52
1713,40.5
1712,40.5
1711,40.5
1710,40.5
1709,40.49
1708,40.48
1707,40.47
1706,40.46
1705,40.44
1704,40.4
1703,40.35
1702,40.3
1701,40.27
1700,40.25
1699,40.25
1698,40.2
1697,40.13
1696,40.1
1695,40.12
1694,40.13
1693,40.09
1692,40.06
1691,40.06
1690,40.06
1689,40.05
1688,40.02
1687,39.99
1686,39.99
1685,39.99
1684,39.98
1683,39.98
1682,39.95
1681,39.93
1680,39.91
1679,39.89
1678,39.87
1677,39.85
1676,39.83
1675,39.83
1674,39.83
1673,39.82
1672,39.79
1671,39.77
1670,39.74
1669,39.72
1668,39.7
1667,39.67
1666,39.64
1665,39.61
1664,39.59
1663,39.57
1662,39.54
1661,39.51
1660,39.49
1659,39.47
1658,39.45
1657,39.43
1656,39.4
1655,39.38
1654,39.32
1653,39.25
1652,39.3
1651,39.32
1650,39.28
1649,39.25
1648,39.22
1647,39.17
1646,39.13
1645,39.11
1644,39.1
1643,39.08
1642,39.07
1641,39.06
1640,39.05
1639,39.04
1638,39.02
1637,38.99
1636,38.94
1635,38.92
1634,38.92
1633,38.91
1632,38.9
1631,38.89
1630,38.89
1629,38.88
1628,38.88
1627,38.86
1626,38.85
1625,38.84
1624,38.83
1623,38.83
1622,38.82
1621,38.81
1620,38.79
1619,38.78
1618,38.77
1617,38.77
1616,38.78
1615,38.78
1614,38.77
1613,38.75
1612,38.75
1611,38.74
1610,38.73
1609,38.72
1608,38.7
1607,38.69
1606,38.67
1605,38.66
1604,38.66
1603,38.65
1602,38.63
1601,38.62
1600,38.6
1599,38.59
1598,38.58
1597,38.58
1596,38.58
1595,38.57
1594,38.55
1593,38.54
1592,38.53
1591,38.51
1590,38.5
1589,38.49
1588,38.48
1587,38.47
1586,38.46
1585,38.46
1584,38.45
1583,38.45
1582,38.44
1581,38.44
1580,38.43
1579,38.42
1578,38.4
1577,38.4
1576,38.41
1575,38.42
1574,38.41
1573,38.39
1572,38.38
1571,38.38
1570,38.38
1569,38.38
1568,38.38
1567,38.36
1566,38.36
1565,38.36
1564,38.36
1563,38.34
1562,38.33
1561,38.37
1560,38.41
1559,38.36
1558,38.31
1557,38.31
1556,38.29
1555,38.28
1554,38.28
1553,38.29
1552,38.29
1551,38.28
1550,38.27
1549,38.27
1548,38.26
1547,38.26
1546,38.27
1545,38.27
1544,38.27
1543,38.25
1542,38.25
1541,38.24
1540,38.21
1539,38.22
1538,38.23
1537,38.22
1536,38.21
1535,38.21
1534,38.22
1533,38.21
1532,38.21
1531,38.21
1530,38.21
1529,38.22
1528,38.23
1527,38.23
1526,38.23
1525,38.23
1524,38.22
1523,38.23
1522,38.24
1521,38.24
1520,38.24
1519,38.24
1518,38.25
1517,38.24
1516,38.23
1515,38.21
1514,38.2
1513,38.2
1512,38.21
1511,38.23
1510,38.24
1509,38.25
1508,38.22
1507,38.16
1506,38.13
1505,38.16
1504,38.18
1503,38.18
1502,38.18
1501,38.19
1500,38.2
1499,38.2
1498,38.2
1497,38.18
1496,38.17
1495,38.17
1494,38.17
1493,38.16
1492,38.16
1491,38.16
1490,38.15
1489,38.12
1488,38.1
1487,38.1
1486,38.1
1485,38.11
1484,38.11
1483,38.12
1482,38.13
1481,38.12
1480,38.12
1479,38.12
1478,38.12
1477,38.13
1476,38.12
1475,38.12
1474,38.11
1473,38.1
1472,38.09
1471,38.09
1470,38.09
1469,38.09
1468,38.09
1467,38.1
1466,38.1
1465,38.1
1464,38.09
1463,38.09
1462,38.1
1461,38.1
1460,38.1
1459,38.1
1458,38.08
1457,38.04
1456,38.03
1455,38.03
1454,38.02
1453,38.01
1452,38
1451,37.98
1450,37.97
1449,37.95
1448,37.92
1447,37.9
1446,37.89
1445,37.89
1444,37.87
1443,37.86
1442,37.85
1441,37.84
1440,37.82
1439,37.79
1438,37.77
1437,37.74
1436,37.71
1435,37.7
1434,37.7
1433,37.7
1432,37.7
1431,37.68
1430,37.67
1429,37.66
1428,37.64
1427,37.63
1426,37.63
1425,37.63
1424,37.61
1423,37.58
1422,37.55
1421,37.54
1420,37.54
1419,37.53
1418,37.52
1417,37.51
1416,37.49
1415,37.48
1414,37.48
1413,37.48
1412,37.47
1411,37.45
1410,37.44
1409,37.43
1408,37.42
1407,37.41
1406,37.4
1405,37.39
1404,37.38
1403,37.36
1402,37.36
1401,37.36
1400,37.36
1399,37.36
1398,37.35
1397,37.35
1396,37.34
1395,37.33
1394,37.32
1393,37.31
1392,37.31
1391,37.31
1390,37.31
1389,37.31
1388,37.3
1387,37.3
1386,37.3
1385,37.3
1384,37.3
1383,37.3
1382,37.3
1381,37.3
1380,37.3
1379,37.3
1378,37.3
1377,37.31
1376,37.32
1375,37.32
1374,37.31
1373,37.3
1372,37.29
1371,37.29
1370,37.3
1369,37.3
1368,37.3
1367,37.3
1366,37.3
1365,37.3
1364,37.31
1363,37.3
1362,37.29
1361,37.28
1360,37.27
1359,37.27
1358,37.27
1357,37.27
1356,37.26
1355,37.26
1354,37.25
1353,37.25
1352,37.24
1351,37.24
1350,37.24
1349,37.23
1348,37.22
1347,37.22
1346,37.21
1345,37.21
1344,37.2
1343,37.2
1342,37.19
1341,37.19
1340,37.18
1339,37.16
1338,37.14
1337,37.13
1336,37.12
1335,37.12
1334,37.11
1333,37.11
1332,37.11
1331,37.11
1330,37.1
1329,37.1
1328,37.1
1327,37.1
1326,37.1
1325,37.09
1324,37.09
1323,37.08
1322,37.07
1321,37.06
1320,37.04
1319,37.02
1318,37.01
1317,37
1316,36.99
1315,36.98
1314,36.97
1313,36.96
1312,36.95
1311,36.94
1310,36.93
1309,36.92
1308,36.91
1307,36.9
1306,36.89
1305,36.87
1304,36.86
1303,36.85
1302,36.83
1301,36.82
1300,36.81
1299,36.81
1298,36.8
1297,36.8
1296,36.79
1295,36.78
1294,36.77
1293,36.77
1292,36.76
1291,36.75
1290,36.74
1289,36.73
1288,36.71
1287,36.7
1286,36.68
1285,36.67
1284,36.66
1283,36.65
1282,36.64
1281,36.63
1280,36.62
1279,36.61
1278,36.61
1277,36.61
1276,36.61
1275,36.61
1274,36.61
1273,36.61
1272,36.61
1271,36.6
1270,36.6
1269,36.6
1268,36.6
1267,36.59
1266,36.59
1265,36.58
1264,36.58
1263,36.57
1262,36.57
1261,36.56
1260,36.55
1259,36.54
1258,36.54
1257,36.54
1256,36.53
1255,36.53
1254,36.53
1253,36.52
1252,36.52
1251,36.52
1250,36.52
1249,36.52
1248,36.52
1247,36.51
1246,36.51
1245,36.51
1244,36.51
1243,36.51
1242,36.51
1241,36.5
1240,36.5
1239,36.49
1238,36.49
1237,36.49
1236,36.49
1235,36.48
1234,36.48
1233,36.48
1232,36.47
1231,36.47
1230,36.47
1229,36.47
1228,36.46
1227,36.46
1226,36.46
1225,36.46
1224,36.45
1223,36.45
1222,36.45
1221,36.45
1220,36.45
1219,36.45
1218,36.45
1217,36.45
1216,36.44
1215,36.44
1214,36.44
1213,36.44
1212,36.44
1211,36.43
1210,36.43
1209,36.43
1208,36.42
1207,36.42
1206,36.41
1205,36.42
1204,36.42
1203,36.42
1202,36.42
1201,36.42
1200,36.41
1199,36.41
1198,36.41
1197,36.4
1196,36.4
1195,36.4
1194,36.4
1193,36.4
1192,36.39
1191,36.39
1190,36.38
1189,36.38
1188,36.38
1187,36.37
1186,36.37
1185,36.37
1184,36.37
1183,36.37
1182,36.36
1181,36.36
1180,36.36
1179,36.35
1178,36.35
1177,36.34
1176,36.34
1175,36.34
1174,36.33
1173,36.33
1172,36.32
1171,36.32
1170,36.32
1169,36.31
1168,36.31
1167,36.31
1166,36.31
1165,36.31
1164,36.3
1163,36.29
1162,36.28
1161,36.27
1160,36.27
1159,36.26
1158,36.26
1157,36.26
1156,36.26
1155,36.26
1154,36.25
1153,36.24
1152,36.23
1151,36.23
1150,36.22
1149,36.21
1148,36.2
1147,36.19
1146,36.18
1145,36.16
1144,36.15
1143,36.13
1142,36.12
1141,36.1
1140,36.08
1139,36.06
1138,36.04
1137,36.03
1136,36.02
1135,36.01
1134,36.01
1133,36
1132,35.99
1131,35.99
1130,35.98
1129,35.97
1128,35.97
1127,35.96
1126,35.95
1125,35.95
1124,35.94
1123,35.92
1122,35.91
1121,35.9
1120,35.89
1119,35.88
1118,35.88
1117,35.87
1116,35.87
1115,35.86
1114,35.85
1113,35.84
1112,35.84
1111,35.83
1110,35.83
1109,35.83
1108,35.82
1107,35.82
1106,35.83
1105,35.83
1104,35.84
1103,35.84
1102,35.85
1101,35.85
1100,35.85
1099,35.86
1098,35.86
1097,35.87
1096,35.87
1095,35.88
1094,35.88
1093,35.89
1092,35.89
1091,35.89
1090,35.9
1089,35.9
1088,35.9
1087,35.9
1086,35.9
1085,35.91
1084,35.91
1083,35.91
1082,35.91
1081,35.91
1080,35.9
1079,35.9
1078,35.9
1077,35.9
1076,35.9
1075,35.89
1074,35.88
1073,35.88
1072,35.88
1071,35.88
1070,35.88
1069,35.87
1068,35.87
1067,35.86
1066,35.85
1065,35.84
1064,35.83
1063,35.83
1062,35.82
1061,35.82
1060,35.81
1059,35.81
1058,35.8
1057,35.8
1056,35.79
1055,35.78
1054,35.77
1053,35.75
1052,35.74
1051,35.73
1050,35.72
1049,35.7
1048,35.68
1047,35.67
1046,35.66
1045,35.65
1044,35.65
1043,35.64
1042,35.64
1041,35.64
1040,35.64
1039,35.64
1038,35.63
1037,35.61
1036,35.59
1035,35.57
1034,35.56
1033,35.54
1032,35.52
1031,35.5
1030,35.48
1029,35.46
1028,35.44
1027,35.41
1026,35.39
1025,35.37
1024,35.34
1023,35.32
1022,35.3
1021,35.28
1020,35.26
1019,35.25
1018,35.23
1017,35.21
1016,35.19
1015,35.17
1014,35.16
1013,35.15
1012,35.15
1011,35.15
1010,35.15
1009,35.14
1008,35.14
1007,35.13
1006,35.12
1005,35.11
1004,35.11
1003,35.12
1002,35.12
1001,35.13
1000,35.15
999,35.16
998,35.17
997,35.19
996,35.2
995,35.22
994,35.25
993,35.27
992,35.29
991,35.31
990,35.33
989,35.35
988,35.36
987,35.38
986,35.4
985,35.42
984,35.44
983,35.46
982,35.48
981,35.5
980,35.51
979,35.53
978,35.55
977,35.56
976,35.58
975,35.59
974,35.61
973,35.62
972,35.63
971,35.64
970,35.65
969,35.66
968,35.67
967,35.68
966,35.68
965,35.69
964,35.69
963,35.68
962,35.68
961,35.67
960,35.65
959,35.63
958,35.61
957,35.58
956,35.55
955,35.52
954,35.48
953,35.44
952,35.41
951,35.38
950,35.35
949,35.33
948,35.32
947,35.31
946,35.31
945,35.31
944,35.31
943,35.32
942,35.33
941,35.35
940,35.36
939,35.37
938,35.38
937,35.38
936,35.38
935,35.39
934,35.39
933,35.4
932,35.4
931,35.41
930,35.42
929,35.42
928,35.43
927,35.43
926,35.43
925,35.43
924,35.42
923,35.42
922,35.43
921,35.44
920,35.45
919,35.46
918,35.47
917,35.48
916,35.48
915,35.48
914,35.47
913,35.47
912,35.46
911,35.46
910,35.46
909,35.46
908,35.46
907,35.45
906,35.45
905,35.44
904,35.43
903,35.43
902,35.43
901,35.43
900,35.43
899,35.43
898,35.43
897,35.43
896,35.43
895,35.43
894,35.43
893,35.43
892,35.43
891,35.43
890,35.44
889,35.44
888,35.43
887,35.42
886,35.42
885,35.43
884,35.44
883,35.44
882,35.45
881,35.46
880,35.47
879,35.48
878,35.5
877,35.5
876,35.49
875,35.49
874,35.49
873,35.5
872,35.51
871,35.52
870,35.53
869,35.54
868,35.55
867,35.55
866,35.55
865,35.56
864,35.56
863,35.58
862,35.6
861,35.61
860,35.61
859,35.62
858,35.62
857,35.63
856,35.64
855,35.65
854,35.66
853,35.66
852,35.66
851,35.67
850,35.69
849,35.71
848,35.72
847,35.73
846,35.73
845,35.74
844,35.75
843,35.75
842,35.75
841,35.76
840,35.77
839,35.79
838,35.8
837,35.81
836,35.82
835,35.84
834,35.84
833,35.85
832,35.85
831,35.87
830,35.89
829,35.91
828,35.92
827,35.93
826,35.93
825,35.93
824,35.93
823,35.93
822,35.94
821,35.95
820,35.96
819,35.98
818,35.99
817,36
816,36.01
815,36.01
814,36.02
813,36.04
812,36.05
811,36.07
810,36.09
809,36.1
808,36.12
807,36.14
806,36.16
805,36.17
804,36.19
803,36.21
802,36.22
801,36.24
800,36.26
799,36.28
798,36.3
797,36.32
796,36.34
795,36.35
794,36.36
793,36.37
792,36.39
791,36.41
790,36.43
789,36.45
788,36.46
787,36.47
786,36.48
785,36.49
784,36.5
783,36.5
782,36.51
781,36.51
780,36.52
779,36.52
778,36.53
777,36.52
776,36.52
775,36.51
774,36.51
773,36.5
772,36.5
771,36.49
770,36.48
769,36.46
768,36.45
767,36.44
766,36.43
765,36.42
764,36.41
763,36.39
762,36.37
761,36.35
760,36.34
759,36.32
758,36.31
757,36.29
756,36.28
755,36.26
754,36.24
753,36.23
752,36.22
751,36.21
750,36.2
749,36.18
748,36.17
747,36.16
746,36.16
745,36.17
744,36.18
743,36.18
742,36.17
741,36.17
740,36.16
739,36.16
738,36.16
737,36.16
736,36.16
735,36.18
734,36.2
733,36.22
732,36.24
731,36.25
730,36.25
729,36.26
728,36.27
727,36.28
726,36.29
725,36.31
724,36.34
723,36.36
722,36.38
721,36.4
720,36.42
719,36.45
718,36.47
717,36.5
716,36.52
715,36.55
714,36.58
713,36.6
712,36.63
711,36.66
710,36.7
709,36.73
708,36.76
707,36.79
706,36.83
705,36.86
704,36.91
703,36.95
702,37
701,37.04
700,37.09
699,37.14
698,37.18
697,37.22
696,37.25
695,37.29
694,37.33
693,37.36
692,37.41
691,37.45
690,37.51
689,37.55
688,37.59
687,37.62
686,37.65
685,37.68
684,37.7
683,37.73
682,37.76
681,37.78
680,37.8
679,37.81
678,37.82
677,37.82
676,37.81
675,37.8
674,37.79
673,37.77
672,37.77
671,37.79
670,37.8
669,37.75
668,37.64
667,37.54
666,37.48
665,37.44
664,37.4
663,37.33
662,37.26
661,37.18
660,37.1
659,37.01
658,36.92
657,36.84
656,36.77
655,36.69
654,36.61
653,36.52
652,36.43
651,36.34
650,36.25
649,36.17
648,36.08
647,36
646,35.92
645,35.84
644,35.75
643,35.67
642,35.59
641,35.5
640,35.41
639,35.32
638,35.23
637,35.14
636,35.05
635,34.94
634,34.84
633,34.74
632,34.63
631,34.53
630,34.43
629,34.33
628,34.23
627,34.13
626,34.03
625,33.93
624,33.81
623,33.69
622,33.57
621,33.46
620,33.35
619,33.25
618,33.15
617,33.04
616,32.93
615,32.82
614,32.72
613,32.62
612,32.52
611,32.42
610,32.33
609,32.24
608,32.15
607,32.06
606,31.98
605,31.89
604,31.79
603,31.7
602,31.62
601,31.54
600,31.46
599,31.37
598,31.28
597,31.19
596,31.08
595,30.97
594,30.87
593,30.77
592,30.66
591,30.55
590,30.44
589,30.34
588,30.22
587,30.11
586,30
585,29.88
584,29.76
583,29.64
582,29.52
581,29.39
580,29.26
579,29.13
578,29.01
577,28.91
576,28.79
575,28.68
574,28.58
573,28.47
572,28.36
571,28.25
570,28.15
569,28.04
568,27.95
567,27.86
566,27.79
565,27.72
564,27.64
563,27.57
562,27.5
561,27.42
560,27.31
559,27.21
558,27.13
557,27.05
556,26.97
555,26.88
554,26.81
553,26.73
552,26.64
551,26.54
550,26.45
549,26.35
548,26.25
547,26.17
546,26.11
545,26.03
544,25.93
543,25.84
542,25.75
541,25.66
540,25.56
539,25.46
538,25.38
537,25.31
536,25.23
535,25.15
534,25.07
533,24.97
532,24.85
531,24.72
530,24.61
529,24.51
528,24.4
527,24.3
526,24.2
525,24.09
524,23.96
523,23.84
522,23.73
521,23.62
520,23.51
519,23.41
518,23.31
517,23.18
516,23.03
515,22.89
514,22.77
513,22.65
512,22.53
511,22.41
510,22.3
509,22.18
508,22.04
507,21.91
506,21.81
505,21.71
504,21.59
503,21.46
502,21.35
501,21.24
500,21.12
499,21.02
498,20.93
497,20.82
496,20.71
495,20.62
494,20.57
493,20.51
492,20.43
491,20.35
490,20.27
489,20.19
488,20.13
487,20.1
486,20.09
485,20.06
484,20
483,19.95
482,19.91
481,19.86
480,19.79
479,19.74
478,19.73
477,19.7
476,19.64
475,19.6
474,19.59
473,19.56
472,19.46
471,19.35
470,19.26
469,19.17
468,19.06
467,18.97
466,18.93
465,18.87
464,18.78
463,18.7
462,18.65
461,18.6
460,18.53
459,18.45
458,18.37
457,18.25
456,18.13
455,18.06
454,18.03
453,17.96
452,17.85
451,17.74
450,17.67
449,17.59
448,17.51
447,17.46
446,17.44
445,17.36
444,17.23
443,17.13
442,17.07
441,16.97
440,16.83
439,16.73
438,16.7
437,16.64
436,16.53
435,16.43
434,16.35
433,16.24
432,16.1
431,15.99
430,15.91
429,15.8
428,15.65
427,15.51
426,15.39
425,15.19
424,14.94
423,14.78
422,14.75
421,14.74
420,14.68
419,14.6
418,14.5
417,14.34
416,14.17
415,14.08
414,14.05
413,13.97
412,13.88
411,13.91
410,14
409,13.95
408,13.74
407,13.57
406,13.52
405,13.47
404,13.41
403,13.46
402,13.55
401,13.46
400,13.22