Created as New Dataset,Sample 049 By ACMarques Date Tuesday, March 19 2024
cm-1,%T
4000.00,71.50
3999.00,71.50
3998.00,71.50
3997.00,71.50
3996.00,71.50
3995.00,71.50
3994.00,71.49
3993.00,71.49
3992.00,71.49
3991.00,71.49
3990.00,71.49
3989.00,71.49
3988.00,71.49
3987.00,71.48
3986.00,71.48
3985.00,71.47
3984.00,71.47
3983.00,71.47
3982.00,71.47
3981.00,71.47
3980.00,71.47
3979.00,71.47
3978.00,71.47
3977.00,71.46
3976.00,71.46
3975.00,71.46
3974.00,71.46
3973.00,71.46
3972.00,71.46
3971.00,71.46
3970.00,71.46
3969.00,71.46
3968.00,71.46
3967.00,71.45
3966.00,71.45
3965.00,71.45
3964.00,71.45
3963.00,71.45
3962.00,71.44
3961.00,71.44
3960.00,71.44
3959.00,71.44
3958.00,71.44
3957.00,71.44
3956.00,71.44
3955.00,71.44
3954.00,71.44
3953.00,71.44
3952.00,71.44
3951.00,71.43
3950.00,71.43
3949.00,71.43
3948.00,71.43
3947.00,71.44
3946.00,71.44
3945.00,71.45
3944.00,71.45
3943.00,71.45
3942.00,71.44
3941.00,71.44
3940.00,71.44
3939.00,71.44
3938.00,71.43
3937.00,71.43
3936.00,71.43
3935.00,71.43
3934.00,71.43
3933.00,71.43
3932.00,71.43
3931.00,71.43
3930.00,71.44
3929.00,71.44
3928.00,71.44
3927.00,71.44
3926.00,71.43
3925.00,71.43
3924.00,71.43
3923.00,71.43
3922.00,71.44
3921.00,71.44
3920.00,71.44
3919.00,71.44
3918.00,71.44
3917.00,71.44
3916.00,71.43
3915.00,71.43
3914.00,71.43
3913.00,71.43
3912.00,71.42
3911.00,71.41
3910.00,71.41
3909.00,71.42
3908.00,71.43
3907.00,71.44
3906.00,71.46
3905.00,71.48
3904.00,71.49
3903.00,71.50
3902.00,71.51
3901.00,71.51
3900.00,71.50
3899.00,71.48
3898.00,71.47
3897.00,71.46
3896.00,71.46
3895.00,71.45
3894.00,71.45
3893.00,71.45
3892.00,71.44
3891.00,71.44
3890.00,71.45
3889.00,71.48
3888.00,71.50
3887.00,71.49
3886.00,71.47
3885.00,71.46
3884.00,71.46
3883.00,71.49
3882.00,71.49
3881.00,71.48
3880.00,71.46
3879.00,71.45
3878.00,71.46
3877.00,71.46
3876.00,71.46
3875.00,71.45
3874.00,71.45
3873.00,71.47
3872.00,71.50
3871.00,71.51
3870.00,71.50
3869.00,71.49
3868.00,71.50
3867.00,71.52
3866.00,71.51
3865.00,71.49
3864.00,71.48
3863.00,71.47
3862.00,71.48
3861.00,71.48
3860.00,71.47
3859.00,71.47
3858.00,71.49
3857.00,71.53
3856.00,71.59
3855.00,71.64
3854.00,71.63
3853.00,71.60
3852.00,71.61
3851.00,71.63
3850.00,71.61
3849.00,71.55
3848.00,71.50
3847.00,71.47
3846.00,71.46
3845.00,71.46
3844.00,71.47
3843.00,71.48
3842.00,71.50
3841.00,71.52
3840.00,71.54
3839.00,71.55
3838.00,71.54
3837.00,71.54
3836.00,71.55
3835.00,71.56
3834.00,71.56
3833.00,71.54
3832.00,71.52
3831.00,71.51
3830.00,71.50
3829.00,71.50
3828.00,71.50
3827.00,71.49
3826.00,71.49
3825.00,71.50
3824.00,71.53
3823.00,71.56
3822.00,71.56
3821.00,71.54
3820.00,71.55
3819.00,71.58
3818.00,71.60
3817.00,71.58
3816.00,71.55
3815.00,71.54
3814.00,71.55
3813.00,71.55
3812.00,71.54
3811.00,71.53
3810.00,71.54
3809.00,71.56
3808.00,71.57
3807.00,71.56
3806.00,71.57
3805.00,71.60
3804.00,71.63
3803.00,71.63
3802.00,71.61
3801.00,71.59
3800.00,71.60
3799.00,71.62
3798.00,71.62
3797.00,71.60
3796.00,71.57
3795.00,71.56
3794.00,71.56
3793.00,71.56
3792.00,71.56
3791.00,71.56
3790.00,71.56
3789.00,71.56
3788.00,71.56
3787.00,71.56
3786.00,71.56
3785.00,71.56
3784.00,71.56
3783.00,71.57
3782.00,71.58
3781.00,71.59
3780.00,71.59
3779.00,71.59
3778.00,71.60
3777.00,71.61
3776.00,71.61
3775.00,71.60
3774.00,71.60
3773.00,71.61
3772.00,71.62
3771.00,71.63
3770.00,71.64
3769.00,71.65
3768.00,71.66
3767.00,71.67
3766.00,71.67
3765.00,71.65
3764.00,71.65
3763.00,71.66
3762.00,71.67
3761.00,71.68
3760.00,71.67
3759.00,71.67
3758.00,71.68
3757.00,71.69
3756.00,71.71
3755.00,71.74
3754.00,71.77
3753.00,71.81
3752.00,71.83
3751.00,71.83
3750.00,71.82
3749.00,71.82
3748.00,71.84
3747.00,71.87
3746.00,71.87
3745.00,71.84
3744.00,71.81
3743.00,71.81
3742.00,71.84
3741.00,71.84
3740.00,71.81
3739.00,71.80
3738.00,71.81
3737.00,71.83
3736.00,71.83
3735.00,71.82
3734.00,71.83
3733.00,71.83
3732.00,71.82
3731.00,71.81
3730.00,71.80
3729.00,71.80
3728.00,71.80
3727.00,71.79
3726.00,71.79
3725.00,71.79
3724.00,71.80
3723.00,71.80
3722.00,71.80
3721.00,71.79
3720.00,71.79
3719.00,71.79
3718.00,71.78
3717.00,71.78
3716.00,71.79
3715.00,71.81
3714.00,71.84
3713.00,71.85
3712.00,71.85
3711.00,71.85
3710.00,71.85
3709.00,71.85
3708.00,71.84
3707.00,71.83
3706.00,71.82
3705.00,71.81
3704.00,71.81
3703.00,71.81
3702.00,71.80
3701.00,71.80
3700.00,71.80
3699.00,71.80
3698.00,71.80
3697.00,71.79
3696.00,71.78
3695.00,71.79
3694.00,71.81
3693.00,71.83
3692.00,71.86
3691.00,71.88
3690.00,71.89
3689.00,71.88
3688.00,71.86
3687.00,71.86
3686.00,71.86
3685.00,71.84
3684.00,71.82
3683.00,71.80
3682.00,71.80
3681.00,71.81
3680.00,71.82
3679.00,71.85
3678.00,71.88
3677.00,71.89
3676.00,71.88
3675.00,71.86
3674.00,71.87
3673.00,71.91
3672.00,71.92
3671.00,71.89
3670.00,71.85
3669.00,71.83
3668.00,71.84
3667.00,71.84
3666.00,71.83
3665.00,71.80
3664.00,71.78
3663.00,71.78
3662.00,71.77
3661.00,71.77
3660.00,71.78
3659.00,71.79
3658.00,71.80
3657.00,71.79
3656.00,71.78
3655.00,71.79
3654.00,71.82
3653.00,71.85
3652.00,71.87
3651.00,71.89
3650.00,71.88
3649.00,71.87
3648.00,71.86
3647.00,71.86
3646.00,71.85
3645.00,71.83
3644.00,71.80
3643.00,71.77
3642.00,71.75
3641.00,71.74
3640.00,71.73
3639.00,71.73
3638.00,71.73
3637.00,71.73
3636.00,71.73
3635.00,71.73
3634.00,71.73
3633.00,71.74
3632.00,71.76
3631.00,71.78
3630.00,71.77
3629.00,71.74
3628.00,71.71
3627.00,71.72
3626.00,71.72
3625.00,71.70
3624.00,71.66
3623.00,71.64
3622.00,71.64
3621.00,71.64
3620.00,71.62
3619.00,71.60
3618.00,71.58
3617.00,71.57
3616.00,71.57
3615.00,71.56
3614.00,71.54
3613.00,71.52
3612.00,71.51
3611.00,71.50
3610.00,71.48
3609.00,71.45
3608.00,71.42
3607.00,71.40
3606.00,71.38
3605.00,71.36
3604.00,71.34
3603.00,71.31
3602.00,71.29
3601.00,71.27
3600.00,71.25
3599.00,71.23
3598.00,71.21
3597.00,71.19
3596.00,71.16
3595.00,71.13
3594.00,71.11
3593.00,71.09
3592.00,71.08
3591.00,71.07
3590.00,71.06
3589.00,71.04
3588.00,71.01
3587.00,70.98
3586.00,70.95
3585.00,70.92
3584.00,70.89
3583.00,70.85
3582.00,70.81
3581.00,70.78
3580.00,70.75
3579.00,70.72
3578.00,70.69
3577.00,70.67
3576.00,70.65
3575.00,70.62
3574.00,70.60
3573.00,70.58
3572.00,70.56
3571.00,70.56
3570.00,70.55
3569.00,70.54
3568.00,70.50
3567.00,70.46
3566.00,70.42
3565.00,70.40
3564.00,70.38
3563.00,70.36
3562.00,70.33
3561.00,70.30
3560.00,70.28
3559.00,70.25
3558.00,70.22
3557.00,70.20
3556.00,70.18
3555.00,70.16
3554.00,70.14
3553.00,70.12
3552.00,70.10
3551.00,70.08
3550.00,70.07
3549.00,70.06
3548.00,70.05
3547.00,70.02
3546.00,70.00
3545.00,69.97
3544.00,69.95
3543.00,69.93
3542.00,69.91
3541.00,69.88
3540.00,69.86
3539.00,69.85
3538.00,69.83
3537.00,69.82
3536.00,69.80
3535.00,69.78
3534.00,69.76
3533.00,69.74
3532.00,69.72
3531.00,69.70
3530.00,69.68
3529.00,69.66
3528.00,69.65
3527.00,69.64
3526.00,69.63
3525.00,69.62
3524.00,69.60
3523.00,69.58
3522.00,69.55
3521.00,69.53
3520.00,69.52
3519.00,69.50
3518.00,69.49
3517.00,69.48
3516.00,69.47
3515.00,69.46
3514.00,69.44
3513.00,69.42
3512.00,69.41
3511.00,69.39
3510.00,69.37
3509.00,69.35
3508.00,69.34
3507.00,69.33
3506.00,69.33
3505.00,69.32
3504.00,69.31
3503.00,69.29
3502.00,69.27
3501.00,69.26
3500.00,69.24
3499.00,69.23
3498.00,69.21
3497.00,69.20
3496.00,69.18
3495.00,69.16
3494.00,69.14
3493.00,69.13
3492.00,69.11
3491.00,69.10
3490.00,69.09
3489.00,69.08
3488.00,69.07
3487.00,69.05
3486.00,69.04
3485.00,69.02
3484.00,69.01
3483.00,68.99
3482.00,68.98
3481.00,68.97
3480.00,68.95
3479.00,68.94
3478.00,68.92
3477.00,68.90
3476.00,68.88
3475.00,68.87
3474.00,68.86
3473.00,68.85
3472.00,68.85
3471.00,68.84
3470.00,68.84
3469.00,68.83
3468.00,68.81
3467.00,68.79
3466.00,68.77
3465.00,68.76
3464.00,68.74
3463.00,68.73
3462.00,68.71
3461.00,68.70
3460.00,68.69
3459.00,68.67
3458.00,68.65
3457.00,68.64
3456.00,68.62
3455.00,68.61
3454.00,68.59
3453.00,68.58
3452.00,68.56
3451.00,68.55
3450.00,68.54
3449.00,68.53
3448.00,68.51
3447.00,68.49
3446.00,68.48
3445.00,68.46
3444.00,68.45
3443.00,68.44
3442.00,68.42
3441.00,68.41
3440.00,68.40
3439.00,68.40
3438.00,68.39
3437.00,68.38
3436.00,68.37
3435.00,68.36
3434.00,68.34
3433.00,68.33
3432.00,68.31
3431.00,68.29
3430.00,68.28
3429.00,68.26
3428.00,68.24
3427.00,68.23
3426.00,68.21
3425.00,68.19
3424.00,68.18
3423.00,68.17
3422.00,68.16
3421.00,68.14
3420.00,68.12
3419.00,68.11
3418.00,68.10
3417.00,68.09
3416.00,68.08
3415.00,68.08
3414.00,68.06
3413.00,68.05
3412.00,68.03
3411.00,68.02
3410.00,68.00
3409.00,67.99
3408.00,67.97
3407.00,67.96
3406.00,67.94
3405.00,67.94
3404.00,67.93
3403.00,67.93
3402.00,67.93
3401.00,67.92
3400.00,67.90
3399.00,67.88
3398.00,67.86
3397.00,67.84
3396.00,67.82
3395.00,67.82
3394.00,67.81
3393.00,67.80
3392.00,67.79
3391.00,67.77
3390.00,67.75
3389.00,67.73
3388.00,67.72
3387.00,67.70
3386.00,67.69
3385.00,67.67
3384.00,67.66
3383.00,67.64
3382.00,67.63
3381.00,67.62
3380.00,67.61
3379.00,67.60
3378.00,67.58
3377.00,67.57
3376.00,67.56
3375.00,67.55
3374.00,67.54
3373.00,67.54
3372.00,67.54
3371.00,67.54
3370.00,67.54
3369.00,67.53
3368.00,67.51
3367.00,67.48
3366.00,67.46
3365.00,67.43
3364.00,67.42
3363.00,67.40
3362.00,67.39
3361.00,67.38
3360.00,67.36
3359.00,67.33
3358.00,67.31
3357.00,67.30
3356.00,67.28
3355.00,67.28
3354.00,67.28
3353.00,67.28
3352.00,67.28
3351.00,67.27
3350.00,67.25
3349.00,67.23
3348.00,67.21
3347.00,67.19
3346.00,67.18
3345.00,67.18
3344.00,67.17
3343.00,67.16
3342.00,67.16
3341.00,67.15
3340.00,67.15
3339.00,67.14
3338.00,67.12
3337.00,67.10
3336.00,67.08
3335.00,67.05
3334.00,67.04
3333.00,67.03
3332.00,67.02
3331.00,67.01
3330.00,67.00
3329.00,67.00
3328.00,67.00
3327.00,66.99
3326.00,66.98
3325.00,66.97
3324.00,66.95
3323.00,66.93
3322.00,66.91
3321.00,66.89
3320.00,66.88
3319.00,66.87
3318.00,66.86
3317.00,66.85
3316.00,66.85
3315.00,66.84
3314.00,66.84
3313.00,66.85
3312.00,66.85
3311.00,66.85
3310.00,66.86
3309.00,66.87
3308.00,66.87
3307.00,66.86
3306.00,66.86
3305.00,66.84
3304.00,66.82
3303.00,66.80
3302.00,66.77
3301.00,66.76
3300.00,66.75
3299.00,66.75
3298.00,66.76
3297.00,66.76
3296.00,66.76
3295.00,66.75
3294.00,66.75
3293.00,66.74
3292.00,66.73
3291.00,66.71
3290.00,66.69
3289.00,66.67
3288.00,66.65
3287.00,66.65
3286.00,66.64
3285.00,66.63
3284.00,66.63
3283.00,66.62
3282.00,66.62
3281.00,66.61
3280.00,66.61
3279.00,66.61
3278.00,66.62
3277.00,66.63
3276.00,66.64
3275.00,66.64
3274.00,66.65
3273.00,66.66
3272.00,66.66
3271.00,66.66
3270.00,66.64
3269.00,66.62
3268.00,66.60
3267.00,66.59
3266.00,66.58
3265.00,66.57
3264.00,66.57
3263.00,66.57
3262.00,66.57
3261.00,66.57
3260.00,66.57
3259.00,66.58
3258.00,66.59
3257.00,66.60
3256.00,66.60
3255.00,66.60
3254.00,66.58
3253.00,66.58
3252.00,66.57
3251.00,66.58
3250.00,66.59
3249.00,66.60
3248.00,66.61
3247.00,66.62
3246.00,66.61
3245.00,66.60
3244.00,66.59
3243.00,66.58
3242.00,66.57
3241.00,66.57
3240.00,66.57
3239.00,66.58
3238.00,66.58
3237.00,66.59
3236.00,66.61
3235.00,66.62
3234.00,66.62
3233.00,66.62
3232.00,66.61
3231.00,66.59
3230.00,66.58
3229.00,66.57
3228.00,66.57
3227.00,66.57
3226.00,66.57
3225.00,66.57
3224.00,66.57
3223.00,66.57
3222.00,66.57
3221.00,66.57
3220.00,66.58
3219.00,66.58
3218.00,66.58
3217.00,66.58
3216.00,66.57
3215.00,66.57
3214.00,66.56
3213.00,66.56
3212.00,66.55
3211.00,66.55
3210.00,66.56
3209.00,66.56
3208.00,66.56
3207.00,66.57
3206.00,66.57
3205.00,66.56
3204.00,66.56
3203.00,66.56
3202.00,66.57
3201.00,66.57
3200.00,66.57
3199.00,66.57
3198.00,66.57
3197.00,66.57
3196.00,66.57
3195.00,66.57
3194.00,66.57
3193.00,66.58
3192.00,66.58
3191.00,66.58
3190.00,66.59
3189.00,66.59
3188.00,66.59
3187.00,66.59
3186.00,66.59
3185.00,66.59
3184.00,66.59
3183.00,66.60
3182.00,66.61
3181.00,66.61
3180.00,66.62
3179.00,66.62
3178.00,66.62
3177.00,66.62
3176.00,66.62
3175.00,66.63
3174.00,66.63
3173.00,66.64
3172.00,66.64
3171.00,66.64
3170.00,66.64
3169.00,66.64
3168.00,66.64
3167.00,66.65
3166.00,66.65
3165.00,66.65
3164.00,66.66
3163.00,66.66
3162.00,66.67
3161.00,66.67
3160.00,66.68
3159.00,66.68
3158.00,66.69
3157.00,66.70
3156.00,66.71
3155.00,66.73
3154.00,66.75
3153.00,66.76
3152.00,66.77
3151.00,66.76
3150.00,66.75
3149.00,66.73
3148.00,66.72
3147.00,66.72
3146.00,66.72
3145.00,66.73
3144.00,66.74
3143.00,66.75
3142.00,66.77
3141.00,66.79
3140.00,66.80
3139.00,66.80
3138.00,66.79
3137.00,66.78
3136.00,66.77
3135.00,66.77
3134.00,66.78
3133.00,66.78
3132.00,66.79
3131.00,66.79
3130.00,66.80
3129.00,66.79
3128.00,66.79
3127.00,66.79
3126.00,66.79
3125.00,66.80
3124.00,66.82
3123.00,66.83
3122.00,66.86
3121.00,66.88
3120.00,66.89
3119.00,66.90
3118.00,66.90
3117.00,66.89
3116.00,66.88
3115.00,66.87
3114.00,66.85
3113.00,66.84
3112.00,66.84
3111.00,66.85
3110.00,66.85
3109.00,66.86
3108.00,66.85
3107.00,66.84
3106.00,66.83
3105.00,66.82
3104.00,66.82
3103.00,66.82
3102.00,66.83
3101.00,66.83
3100.00,66.83
3099.00,66.82
3098.00,66.81
3097.00,66.80
3096.00,66.80
3095.00,66.80
3094.00,66.81
3093.00,66.82
3092.00,66.84
3091.00,66.85
3090.00,66.85
3089.00,66.84
3088.00,66.84
3087.00,66.85
3086.00,66.86
3085.00,66.87
3084.00,66.87
3083.00,66.87
3082.00,66.87
3081.00,66.88
3080.00,66.88
3079.00,66.88
3078.00,66.87
3077.00,66.85
3076.00,66.82
3075.00,66.80
3074.00,66.79
3073.00,66.79
3072.00,66.80
3071.00,66.81
3070.00,66.82
3069.00,66.83
3068.00,66.84
3067.00,66.84
3066.00,66.83
3065.00,66.81
3064.00,66.80
3063.00,66.79
3062.00,66.79
3061.00,66.79
3060.00,66.79
3059.00,66.80
3058.00,66.81
3057.00,66.82
3056.00,66.82
3055.00,66.82
3054.00,66.83
3053.00,66.83
3052.00,66.84
3051.00,66.84
3050.00,66.84
3049.00,66.83
3048.00,66.83
3047.00,66.85
3046.00,66.86
3045.00,66.88
3044.00,66.89
3043.00,66.90
3042.00,66.89
3041.00,66.88
3040.00,66.87
3039.00,66.85
3038.00,66.85
3037.00,66.86
3036.00,66.87
3035.00,66.88
3034.00,66.89
3033.00,66.88
3032.00,66.87
3031.00,66.86
3030.00,66.85
3029.00,66.84
3028.00,66.84
3027.00,66.84
3026.00,66.85
3025.00,66.86
3024.00,66.86
3023.00,66.85
3022.00,66.86
3021.00,66.86
3020.00,66.87
3019.00,66.87
3018.00,66.88
3017.00,66.88
3016.00,66.89
3015.00,66.90
3014.00,66.90
3013.00,66.89
3012.00,66.88
3011.00,66.85
3010.00,66.83
3009.00,66.81
3008.00,66.79
3007.00,66.79
3006.00,66.78
3005.00,66.78
3004.00,66.78
3003.00,66.78
3002.00,66.78
3001.00,66.78
3000.00,66.78
2999.00,66.79
2998.00,66.79
2997.00,66.79
2996.00,66.79
2995.00,66.79
2994.00,66.78
2993.00,66.78
2992.00,66.76
2991.00,66.74
2990.00,66.73
2989.00,66.71
2988.00,66.70
2987.00,66.70
2986.00,66.70
2985.00,66.70
2984.00,66.70
2983.00,66.70
2982.00,66.70
2981.00,66.71
2980.00,66.71
2979.00,66.71
2978.00,66.71
2977.00,66.71
2976.00,66.71
2975.00,66.70
2974.00,66.69
2973.00,66.68
2972.00,66.66
2971.00,66.65
2970.00,66.65
2969.00,66.65
2968.00,66.66
2967.00,66.66
2966.00,66.66
2965.00,66.67
2964.00,66.67
2963.00,66.67
2962.00,66.67
2961.00,66.67
2960.00,66.66
2959.00,66.66
2958.00,66.66
2957.00,66.66
2956.00,66.67
2955.00,66.68
2954.00,66.69
2953.00,66.70
2952.00,66.69
2951.00,66.69
2950.00,66.69
2949.00,66.70
2948.00,66.71
2947.00,66.72
2946.00,66.73
2945.00,66.73
2944.00,66.72
2943.00,66.70
2942.00,66.69
2941.00,66.67
2940.00,66.66
2939.00,66.66
2938.00,66.65
2937.00,66.65
2936.00,66.65
2935.00,66.65
2934.00,66.66
2933.00,66.66
2932.00,66.68
2931.00,66.69
2930.00,66.69
2929.00,66.68
2928.00,66.67
2927.00,66.65
2926.00,66.64
2925.00,66.63
2924.00,66.62
2923.00,66.62
2922.00,66.62
2921.00,66.62
2920.00,66.63
2919.00,66.64
2918.00,66.65
2917.00,66.66
2916.00,66.67
2915.00,66.67
2914.00,66.67
2913.00,66.67
2912.00,66.66
2911.00,66.65
2910.00,66.64
2909.00,66.64
2908.00,66.64
2907.00,66.64
2906.00,66.64
2905.00,66.64
2904.00,66.64
2903.00,66.63
2902.00,66.63
2901.00,66.63
2900.00,66.64
2899.00,66.65
2898.00,66.66
2897.00,66.68
2896.00,66.68
2895.00,66.68
2894.00,66.67
2893.00,66.66
2892.00,66.66
2891.00,66.65
2890.00,66.65
2889.00,66.65
2888.00,66.65
2887.00,66.65
2886.00,66.64
2885.00,66.64
2884.00,66.64
2883.00,66.64
2882.00,66.64
2881.00,66.64
2880.00,66.64
2879.00,66.64
2878.00,66.65
2877.00,66.66
2876.00,66.68
2875.00,66.69
2874.00,66.71
2873.00,66.71
2872.00,66.70
2871.00,66.69
2870.00,66.68
2869.00,66.68
2868.00,66.68
2867.00,66.69
2866.00,66.69
2865.00,66.70
2864.00,66.71
2863.00,66.71
2862.00,66.72
2861.00,66.74
2860.00,66.74
2859.00,66.74
2858.00,66.74
2857.00,66.74
2856.00,66.74
2855.00,66.74
2854.00,66.74
2853.00,66.75
2852.00,66.75
2851.00,66.75
2850.00,66.76
2849.00,66.77
2848.00,66.77
2847.00,66.76
2846.00,66.76
2845.00,66.75
2844.00,66.76
2843.00,66.77
2842.00,66.78
2841.00,66.80
2840.00,66.82
2839.00,66.82
2838.00,66.82
2837.00,66.81
2836.00,66.81
2835.00,66.80
2834.00,66.80
2833.00,66.80
2832.00,66.79
2831.00,66.79
2830.00,66.79
2829.00,66.79
2828.00,66.79
2827.00,66.79
2826.00,66.79
2825.00,66.79
2824.00,66.79
2823.00,66.79
2822.00,66.79
2821.00,66.80
2820.00,66.80
2819.00,66.80
2818.00,66.80
2817.00,66.80
2816.00,66.80
2815.00,66.80
2814.00,66.80
2813.00,66.81
2812.00,66.81
2811.00,66.82
2810.00,66.82
2809.00,66.82
2808.00,66.81
2807.00,66.81
2806.00,66.80
2805.00,66.80
2804.00,66.80
2803.00,66.81
2802.00,66.81
2801.00,66.82
2800.00,66.83
2799.00,66.83
2798.00,66.83
2797.00,66.82
2796.00,66.82
2795.00,66.82
2794.00,66.82
2793.00,66.82
2792.00,66.83
2791.00,66.83
2790.00,66.83
2789.00,66.83
2788.00,66.82
2787.00,66.82
2786.00,66.81
2785.00,66.80
2784.00,66.80
2783.00,66.80
2782.00,66.80
2781.00,66.80
2780.00,66.80
2779.00,66.81
2778.00,66.81
2777.00,66.82
2776.00,66.82
2775.00,66.82
2774.00,66.81
2773.00,66.81
2772.00,66.80
2771.00,66.80
2770.00,66.80
2769.00,66.80
2768.00,66.80
2767.00,66.80
2766.00,66.80
2765.00,66.79
2764.00,66.79
2763.00,66.79
2762.00,66.79
2761.00,66.79
2760.00,66.79
2759.00,66.79
2758.00,66.79
2757.00,66.80
2756.00,66.80
2755.00,66.80
2754.00,66.80
2753.00,66.80
2752.00,66.80
2751.00,66.81
2750.00,66.81
2749.00,66.82
2748.00,66.81
2747.00,66.81
2746.00,66.80
2745.00,66.79
2744.00,66.79
2743.00,66.78
2742.00,66.78
2741.00,66.78
2740.00,66.78
2739.00,66.79
2738.00,66.79
2737.00,66.79
2736.00,66.78
2735.00,66.78
2734.00,66.78
2733.00,66.78
2732.00,66.78
2731.00,66.78
2730.00,66.79
2729.00,66.79
2728.00,66.80
2727.00,66.80
2726.00,66.80
2725.00,66.79
2724.00,66.79
2723.00,66.78
2722.00,66.78
2721.00,66.78
2720.00,66.78
2719.00,66.77
2718.00,66.77
2717.00,66.77
2716.00,66.77
2715.00,66.77
2714.00,66.76
2713.00,66.76
2712.00,66.76
2711.00,66.77
2710.00,66.77
2709.00,66.76
2708.00,66.76
2707.00,66.76
2706.00,66.76
2705.00,66.75
2704.00,66.76
2703.00,66.76
2702.00,66.76
2701.00,66.76
2700.00,66.76
2699.00,66.76
2698.00,66.76
2697.00,66.75
2696.00,66.75
2695.00,66.75
2694.00,66.75
2693.00,66.74
2692.00,66.74
2691.00,66.74
2690.00,66.74
2689.00,66.73
2688.00,66.73
2687.00,66.73
2686.00,66.73
2685.00,66.73
2684.00,66.73
2683.00,66.73
2682.00,66.74
2681.00,66.74
2680.00,66.75
2679.00,66.75
2678.00,66.74
2677.00,66.74
2676.00,66.73
2675.00,66.73
2674.00,66.73
2673.00,66.72
2672.00,66.72
2671.00,66.71
2670.00,66.71
2669.00,66.70
2668.00,66.70
2667.00,66.70
2666.00,66.70
2665.00,66.70
2664.00,66.70
2663.00,66.70
2662.00,66.70
2661.00,66.71
2660.00,66.72
2659.00,66.72
2658.00,66.73
2657.00,66.74
2656.00,66.75
2655.00,66.76
2654.00,66.78
2653.00,66.79
2652.00,66.81
2651.00,66.82
2650.00,66.84
2649.00,66.86
2648.00,66.87
2647.00,66.89
2646.00,66.90
2645.00,66.92
2644.00,66.93
2643.00,66.95
2642.00,66.96
2641.00,66.98
2640.00,66.99
2639.00,67.00
2638.00,67.01
2637.00,67.03
2636.00,67.04
2635.00,67.05
2634.00,67.06
2633.00,67.07
2632.00,67.08
2631.00,67.09
2630.00,67.10
2629.00,67.11
2628.00,67.12
2627.00,67.13
2626.00,67.14
2625.00,67.15
2624.00,67.15
2623.00,67.16
2622.00,67.16
2621.00,67.17
2620.00,67.18
2619.00,67.19
2618.00,67.19
2617.00,67.20
2616.00,67.20
2615.00,67.20
2614.00,67.21
2613.00,67.21
2612.00,67.22
2611.00,67.22
2610.00,67.23
2609.00,67.23
2608.00,67.23
2607.00,67.23
2606.00,67.24
2605.00,67.24
2604.00,67.24
2603.00,67.25
2602.00,67.26
2601.00,67.27
2600.00,67.27
2599.00,67.28
2598.00,67.28
2597.00,67.27
2596.00,67.27
2595.00,67.27
2594.00,67.28
2593.00,67.28
2592.00,67.28
2591.00,67.28
2590.00,67.28
2589.00,67.29
2588.00,67.29
2587.00,67.30
2586.00,67.30
2585.00,67.30
2584.00,67.30
2583.00,67.30
2582.00,67.30
2581.00,67.30
2580.00,67.30
2579.00,67.30
2578.00,67.30
2577.00,67.31
2576.00,67.31
2575.00,67.31
2574.00,67.31
2573.00,67.31
2572.00,67.31
2571.00,67.31
2570.00,67.32
2569.00,67.32
2568.00,67.32
2567.00,67.31
2566.00,67.31
2565.00,67.31
2564.00,67.30
2563.00,67.30
2562.00,67.30
2561.00,67.30
2560.00,67.29
2559.00,67.29
2558.00,67.29
2557.00,67.30
2556.00,67.30
2555.00,67.30
2554.00,67.30
2553.00,67.29
2552.00,67.29
2551.00,67.30
2550.00,67.30
2549.00,67.30
2548.00,67.29
2547.00,67.30
2546.00,67.31
2545.00,67.32
2544.00,67.32
2543.00,67.30
2542.00,67.29
2541.00,67.27
2540.00,67.27
2539.00,67.27
2538.00,67.29
2537.00,67.30
2536.00,67.29
2535.00,67.28
2534.00,67.28
2533.00,67.28
2532.00,67.28
2531.00,67.27
2530.00,67.27
2529.00,67.27
2528.00,67.26
2527.00,67.25
2526.00,67.24
2525.00,67.24
2524.00,67.23
2523.00,67.23
2522.00,67.24
2521.00,67.25
2520.00,67.26
2519.00,67.27
2518.00,67.27
2517.00,67.26
2516.00,67.26
2515.00,67.25
2514.00,67.25
2513.00,67.24
2512.00,67.24
2511.00,67.24
2510.00,67.24
2509.00,67.23
2508.00,67.21
2507.00,67.21
2506.00,67.21
2505.00,67.21
2504.00,67.21
2503.00,67.21
2502.00,67.20
2501.00,67.20
2500.00,67.19
2499.00,67.19
2498.00,67.19
2497.00,67.19
2496.00,67.19
2495.00,67.19
2494.00,67.20
2493.00,67.20
2492.00,67.20
2491.00,67.20
2490.00,67.19
2489.00,67.18
2488.00,67.17
2487.00,67.16
2486.00,67.15
2485.00,67.15
2484.00,67.15
2483.00,67.15
2482.00,67.15
2481.00,67.15
2480.00,67.14
2479.00,67.13
2478.00,67.12
2477.00,67.12
2476.00,67.12
2475.00,67.12
2474.00,67.13
2473.00,67.13
2472.00,67.12
2471.00,67.11
2470.00,67.10
2469.00,67.10
2468.00,67.09
2467.00,67.09
2466.00,67.09
2465.00,67.09
2464.00,67.08
2463.00,67.08
2462.00,67.07
2461.00,67.08
2460.00,67.07
2459.00,67.07
2458.00,67.06
2457.00,67.06
2456.00,67.05
2455.00,67.05
2454.00,67.05
2453.00,67.06
2452.00,67.05
2451.00,67.05
2450.00,67.05
2449.00,67.05
2448.00,67.05
2447.00,67.05
2446.00,67.05
2445.00,67.05
2444.00,67.05
2443.00,67.05
2442.00,67.04
2441.00,67.04
2440.00,67.03
2439.00,67.02
2438.00,67.02
2437.00,67.02
2436.00,67.02
2435.00,67.01
2434.00,67.01
2433.00,67.01
2432.00,67.01
2431.00,67.01
2430.00,67.01
2429.00,67.01
2428.00,67.01
2427.00,67.01
2426.00,67.01
2425.00,67.01
2424.00,67.01
2423.00,67.00
2422.00,66.99
2421.00,66.98
2420.00,66.97
2419.00,66.96
2418.00,66.96
2417.00,66.96
2416.00,66.96
2415.00,66.96
2414.00,66.95
2413.00,66.95
2412.00,66.95
2411.00,66.94
2410.00,66.94
2409.00,66.94
2408.00,66.94
2407.00,66.93
2406.00,66.92
2405.00,66.92
2404.00,66.91
2403.00,66.91
2402.00,66.90
2401.00,66.89
2400.00,66.89
2399.00,66.89
2398.00,66.89
2397.00,66.89
2396.00,66.88
2395.00,66.87
2394.00,66.86
2393.00,66.86
2392.00,66.85
2391.00,66.84
2390.00,66.84
2389.00,66.83
2388.00,66.82
2387.00,66.82
2386.00,66.82
2385.00,66.82
2384.00,66.82
2383.00,66.81
2382.00,66.80
2381.00,66.79
2380.00,66.78
2379.00,66.78
2378.00,66.78
2377.00,66.78
2376.00,66.77
2375.00,66.76
2374.00,66.75
2373.00,66.75
2372.00,66.75
2371.00,66.75
2370.00,66.74
2369.00,66.73
2368.00,66.72
2367.00,66.71
2366.00,66.71
2365.00,66.71
2364.00,66.71
2363.00,66.71
2362.00,66.71
2361.00,66.70
2360.00,66.69
2359.00,66.68
2358.00,66.67
2357.00,66.66
2356.00,66.64
2355.00,66.63
2354.00,66.61
2353.00,66.59
2352.00,66.57
2351.00,66.56
2350.00,66.56
2349.00,66.57
2348.00,66.59
2347.00,66.60
2346.00,66.59
2345.00,66.57
2344.00,66.54
2343.00,66.53
2342.00,66.53
2341.00,66.54
2340.00,66.54
2339.00,66.54
2338.00,66.54
2337.00,66.54
2336.00,66.53
2335.00,66.54
2334.00,66.54
2333.00,66.53
2332.00,66.52
2331.00,66.51
2330.00,66.49
2329.00,66.45
2328.00,66.41
2327.00,66.36
2326.00,66.33
2325.00,66.32
2324.00,66.33
2323.00,66.36
2322.00,66.39
2321.00,66.41
2320.00,66.42
2319.00,66.43
2318.00,66.45
2317.00,66.46
2316.00,66.46
2315.00,66.46
2314.00,66.46
2313.00,66.46
2312.00,66.46
2311.00,66.46
2310.00,66.47
2309.00,66.48
2308.00,66.49
2307.00,66.49
2306.00,66.50
2305.00,66.50
2304.00,66.50
2303.00,66.50
2302.00,66.50
2301.00,66.50
2300.00,66.50
2299.00,66.51
2298.00,66.51
2297.00,66.51
2296.00,66.50
2295.00,66.49
2294.00,66.49
2293.00,66.49
2292.00,66.49
2291.00,66.49
2290.00,66.50
2289.00,66.49
2288.00,66.49
2287.00,66.50
2286.00,66.50
2285.00,66.50
2284.00,66.51
2283.00,66.51
2282.00,66.52
2281.00,66.53
2280.00,66.53
2279.00,66.53
2278.00,66.53
2277.00,66.54
2276.00,66.54
2275.00,66.55
2274.00,66.56
2273.00,66.57
2272.00,66.57
2271.00,66.58
2270.00,66.58
2269.00,66.58
2268.00,66.58
2267.00,66.58
2266.00,66.58
2265.00,66.57
2264.00,66.57
2263.00,66.58
2262.00,66.58
2261.00,66.58
2260.00,66.56
2259.00,66.55
2258.00,66.55
2257.00,66.55
2256.00,66.56
2255.00,66.58
2254.00,66.59
2253.00,66.59
2252.00,66.59
2251.00,66.57
2250.00,66.56
2249.00,66.55
2248.00,66.55
2247.00,66.56
2246.00,66.56
2245.00,66.56
2244.00,66.55
2243.00,66.54
2242.00,66.53
2241.00,66.52
2240.00,66.51
2239.00,66.50
2238.00,66.49
2237.00,66.49
2236.00,66.49
2235.00,66.49
2234.00,66.49
2233.00,66.50
2232.00,66.50
2231.00,66.50
2230.00,66.50
2229.00,66.50
2228.00,66.51
2227.00,66.51
2226.00,66.51
2225.00,66.51
2224.00,66.50
2223.00,66.50
2222.00,66.50
2221.00,66.49
2220.00,66.49
2219.00,66.49
2218.00,66.49
2217.00,66.49
2216.00,66.49
2215.00,66.49
2214.00,66.47
2213.00,66.45
2212.00,66.44
2211.00,66.44
2210.00,66.44
2209.00,66.44
2208.00,66.43
2207.00,66.42
2206.00,66.42
2205.00,66.42
2204.00,66.42
2203.00,66.41
2202.00,66.41
2201.00,66.41
2200.00,66.41
2199.00,66.42
2198.00,66.43
2197.00,66.43
2196.00,66.41
2195.00,66.42
2194.00,66.43
2193.00,66.44
2192.00,66.43
2191.00,66.42
2190.00,66.40
2189.00,66.38
2188.00,66.37
2187.00,66.36
2186.00,66.37
2185.00,66.37
2184.00,66.38
2183.00,66.39
2182.00,66.41
2181.00,66.41
2180.00,66.40
2179.00,66.38
2178.00,66.36
2177.00,66.36
2176.00,66.36
2175.00,66.38
2174.00,66.40
2173.00,66.41
2172.00,66.40
2171.00,66.38
2170.00,66.35
2169.00,66.31
2168.00,66.27
2167.00,66.24
2166.00,66.21
2165.00,66.17
2164.00,66.14
2163.00,66.12
2162.00,66.14
2161.00,66.22
2160.00,66.35
2159.00,66.52
2158.00,66.64
2157.00,66.69
2156.00,66.69
2155.00,66.66
2154.00,66.62
2153.00,66.57
2152.00,66.52
2151.00,66.50
2150.00,66.49
2149.00,66.48
2148.00,66.47
2147.00,66.47
2146.00,66.47
2145.00,66.47
2144.00,66.47
2143.00,66.47
2142.00,66.47
2141.00,66.46
2140.00,66.44
2139.00,66.44
2138.00,66.45
2137.00,66.47
2136.00,66.50
2135.00,66.52
2134.00,66.53
2133.00,66.51
2132.00,66.48
2131.00,66.45
2130.00,66.42
2129.00,66.40
2128.00,66.38
2127.00,66.36
2126.00,66.35
2125.00,66.34
2124.00,66.33
2123.00,66.33
2122.00,66.32
2121.00,66.31
2120.00,66.29
2119.00,66.28
2118.00,66.27
2117.00,66.25
2116.00,66.23
2115.00,66.21
2114.00,66.21
2113.00,66.20
2112.00,66.19
2111.00,66.19
2110.00,66.19
2109.00,66.19
2108.00,66.20
2107.00,66.21
2106.00,66.21
2105.00,66.20
2104.00,66.18
2103.00,66.18
2102.00,66.18
2101.00,66.18
2100.00,66.17
2099.00,66.17
2098.00,66.18
2097.00,66.20
2096.00,66.22
2095.00,66.23
2094.00,66.23
2093.00,66.21
2092.00,66.19
2091.00,66.18
2090.00,66.16
2089.00,66.14
2088.00,66.12
2087.00,66.11
2086.00,66.11
2085.00,66.10
2084.00,66.11
2083.00,66.11
2082.00,66.11
2081.00,66.11
2080.00,66.11
2079.00,66.11
2078.00,66.11
2077.00,66.11
2076.00,66.10
2075.00,66.10
2074.00,66.10
2073.00,66.10
2072.00,66.10
2071.00,66.10
2070.00,66.10
2069.00,66.09
2068.00,66.09
2067.00,66.08
2066.00,66.09
2065.00,66.09
2064.00,66.09
2063.00,66.09
2062.00,66.10
2061.00,66.09
2060.00,66.07
2059.00,66.05
2058.00,66.03
2057.00,66.02
2056.00,66.03
2055.00,66.05
2054.00,66.05
2053.00,66.02
2052.00,65.99
2051.00,65.97
2050.00,65.99
2049.00,66.01
2048.00,66.03
2047.00,66.05
2046.00,66.07
2045.00,66.07
2044.00,66.07
2043.00,66.06
2042.00,66.04
2041.00,66.03
2040.00,66.02
2039.00,66.02
2038.00,66.03
2037.00,66.03
2036.00,66.04
2035.00,66.08
2034.00,66.11
2033.00,66.11
2032.00,66.10
2031.00,66.08
2030.00,66.08
2029.00,66.09
2028.00,66.09
2027.00,66.11
2026.00,66.11
2025.00,66.11
2024.00,66.11
2023.00,66.12
2022.00,66.14
2021.00,66.16
2020.00,66.16
2019.00,66.16
2018.00,66.16
2017.00,66.13
2016.00,66.11
2015.00,66.10
2014.00,66.11
2013.00,66.11
2012.00,66.10
2011.00,66.09
2010.00,66.08
2009.00,66.06
2008.00,66.06
2007.00,66.07
2006.00,66.09
2005.00,66.10
2004.00,66.10
2003.00,66.09
2002.00,66.06
2001.00,66.01
2000.00,65.96
1999.00,65.94
1998.00,65.95
1997.00,65.96
1996.00,65.96
1995.00,65.97
1994.00,65.97
1993.00,65.95
1992.00,65.92
1991.00,65.90
1990.00,65.90
1989.00,65.90
1988.00,65.89
1987.00,65.90
1986.00,65.90
1985.00,65.90
1984.00,65.88
1983.00,65.85
1982.00,65.82
1981.00,65.79
1980.00,65.79
1979.00,65.83
1978.00,65.90
1977.00,65.96
1976.00,65.98
1975.00,65.99
1974.00,66.00
1973.00,66.01
1972.00,66.01
1971.00,66.01
1970.00,66.01
1969.00,66.01
1968.00,66.01
1967.00,66.03
1966.00,66.05
1965.00,66.04
1964.00,66.00
1963.00,65.98
1962.00,65.98
1961.00,65.98
1960.00,65.98
1959.00,65.99
1958.00,65.98
1957.00,65.97
1956.00,65.96
1955.00,65.96
1954.00,65.97
1953.00,65.98
1952.00,65.97
1951.00,65.97
1950.00,65.97
1949.00,65.95
1948.00,65.93
1947.00,65.93
1946.00,65.94
1945.00,65.93
1944.00,65.91
1943.00,65.89
1942.00,65.87
1941.00,65.85
1940.00,65.84
1939.00,65.83
1938.00,65.82
1937.00,65.80
1936.00,65.79
1935.00,65.79
1934.00,65.79
1933.00,65.79
1932.00,65.79
1931.00,65.79
1930.00,65.79
1929.00,65.79
1928.00,65.78
1927.00,65.77
1926.00,65.76
1925.00,65.75
1924.00,65.74
1923.00,65.73
1922.00,65.73
1921.00,65.72
1920.00,65.71
1919.00,65.70
1918.00,65.70
1917.00,65.70
1916.00,65.69
1915.00,65.68
1914.00,65.67
1913.00,65.67
1912.00,65.67
1911.00,65.67
1910.00,65.68
1909.00,65.68
1908.00,65.67
1907.00,65.66
1906.00,65.65
1905.00,65.63
1904.00,65.63
1903.00,65.63
1902.00,65.63
1901.00,65.63
1900.00,65.62
1899.00,65.62
1898.00,65.61
1897.00,65.60
1896.00,65.59
1895.00,65.59
1894.00,65.60
1893.00,65.59
1892.00,65.59
1891.00,65.58
1890.00,65.58
1889.00,65.57
1888.00,65.56
1887.00,65.56
1886.00,65.56
1885.00,65.56
1884.00,65.55
1883.00,65.55
1882.00,65.55
1881.00,65.54
1880.00,65.53
1879.00,65.52
1878.00,65.52
1877.00,65.51
1876.00,65.49
1875.00,65.49
1874.00,65.49
1873.00,65.50
1872.00,65.51
1871.00,65.51
1870.00,65.52
1869.00,65.51
1868.00,65.51
1867.00,65.50
1866.00,65.49
1865.00,65.48
1864.00,65.47
1863.00,65.47
1862.00,65.47
1861.00,65.46
1860.00,65.45
1859.00,65.45
1858.00,65.44
1857.00,65.44
1856.00,65.44
1855.00,65.44
1854.00,65.44
1853.00,65.44
1852.00,65.43
1851.00,65.42
1850.00,65.42
1849.00,65.42
1848.00,65.42
1847.00,65.42
1846.00,65.42
1845.00,65.42
1844.00,65.41
1843.00,65.41
1842.00,65.41
1841.00,65.40
1840.00,65.39
1839.00,65.38
1838.00,65.38
1837.00,65.37
1836.00,65.36
1835.00,65.35
1834.00,65.35
1833.00,65.34
1832.00,65.34
1831.00,65.33
1830.00,65.34
1829.00,65.34
1828.00,65.33
1827.00,65.32
1826.00,65.32
1825.00,65.31
1824.00,65.31
1823.00,65.30
1822.00,65.30
1821.00,65.29
1820.00,65.28
1819.00,65.28
1818.00,65.28
1817.00,65.27
1816.00,65.26
1815.00,65.24
1814.00,65.23
1813.00,65.21
1812.00,65.19
1811.00,65.18
1810.00,65.18
1809.00,65.17
1808.00,65.16
1807.00,65.15
1806.00,65.15
1805.00,65.15
1804.00,65.15
1803.00,65.15
1802.00,65.15
1801.00,65.14
1800.00,65.13
1799.00,65.13
1798.00,65.12
1797.00,65.11
1796.00,65.11
1795.00,65.10
1794.00,65.10
1793.00,65.10
1792.00,65.10
1791.00,65.10
1790.00,65.10
1789.00,65.09
1788.00,65.08
1787.00,65.07
1786.00,65.07
1785.00,65.06
1784.00,65.06
1783.00,65.06
1782.00,65.06
1781.00,65.06
1780.00,65.06
1779.00,65.05
1778.00,65.05
1777.00,65.04
1776.00,65.04
1775.00,65.04
1774.00,65.03
1773.00,65.03
1772.00,65.02
1771.00,65.03
1770.00,65.02
1769.00,65.01
1768.00,64.99
1767.00,64.98
1766.00,64.98
1765.00,64.97
1764.00,64.96
1763.00,64.96
1762.00,64.97
1761.00,64.98
1760.00,64.98
1759.00,64.97
1758.00,64.96
1757.00,64.96
1756.00,64.96
1755.00,64.96
1754.00,64.96
1753.00,64.95
1752.00,64.94
1751.00,64.94
1750.00,64.94
1749.00,64.94
1748.00,64.93
1747.00,64.92
1746.00,64.91
1745.00,64.90
1744.00,64.89
1743.00,64.89
1742.00,64.89
1741.00,64.88
1740.00,64.87
1739.00,64.87
1738.00,64.88
1737.00,64.87
1736.00,64.85
1735.00,64.83
1734.00,64.82
1733.00,64.83
1732.00,64.82
1731.00,64.80
1730.00,64.79
1729.00,64.79
1728.00,64.79
1727.00,64.78
1726.00,64.77
1725.00,64.76
1724.00,64.75
1723.00,64.74
1722.00,64.75
1721.00,64.74
1720.00,64.74
1719.00,64.74
1718.00,64.73
1717.00,64.71
1716.00,64.70
1715.00,64.70
1714.00,64.69
1713.00,64.68
1712.00,64.65
1711.00,64.62
1710.00,64.59
1709.00,64.56
1708.00,64.53
1707.00,64.49
1706.00,64.45
1705.00,64.40
1704.00,64.35
1703.00,64.30
1702.00,64.24
1701.00,64.15
1700.00,64.03
1699.00,63.95
1698.00,63.86
1697.00,63.73
1696.00,63.59
1695.00,63.48
1694.00,63.40
1693.00,63.30
1692.00,63.20
1691.00,63.09
1690.00,62.99
1689.00,62.88
1688.00,62.78
1687.00,62.69
1686.00,62.58
1685.00,62.43
1684.00,62.25
1683.00,62.13
1682.00,62.03
1681.00,61.90
1680.00,61.78
1679.00,61.66
1678.00,61.56
1677.00,61.45
1676.00,61.32
1675.00,61.17
1674.00,61.05
1673.00,60.94
1672.00,60.83
1671.00,60.70
1670.00,60.55
1669.00,60.40
1668.00,60.26
1667.00,60.14
1666.00,60.03
1665.00,59.92
1664.00,59.81
1663.00,59.67
1662.00,59.54
1661.00,59.42
1660.00,59.31
1659.00,59.21
1658.00,59.13
1657.00,59.08
1656.00,59.04
1655.00,59.01
1654.00,58.89
1653.00,58.67
1652.00,58.55
1651.00,58.50
1650.00,58.46
1649.00,58.45
1648.00,58.43
1647.00,58.37
1646.00,58.31
1645.00,58.27
1644.00,58.24
1643.00,58.22
1642.00,58.21
1641.00,58.21
1640.00,58.21
1639.00,58.23
1638.00,58.25
1637.00,58.26
1636.00,58.25
1635.00,58.24
1634.00,58.26
1633.00,58.27
1632.00,58.29
1631.00,58.32
1630.00,58.36
1629.00,58.40
1628.00,58.44
1627.00,58.49
1626.00,58.53
1625.00,58.57
1624.00,58.62
1623.00,58.66
1622.00,58.71
1621.00,58.76
1620.00,58.80
1619.00,58.85
1618.00,58.90
1617.00,58.94
1616.00,58.99
1615.00,59.03
1614.00,59.07
1613.00,59.11
1612.00,59.16
1611.00,59.21
1610.00,59.25
1609.00,59.29
1608.00,59.34
1607.00,59.39
1606.00,59.43
1605.00,59.47
1604.00,59.51
1603.00,59.55
1602.00,59.58
1601.00,59.62
1600.00,59.66
1599.00,59.69
1598.00,59.72
1597.00,59.75
1596.00,59.77
1595.00,59.80
1594.00,59.83
1593.00,59.85
1592.00,59.87
1591.00,59.89
1590.00,59.90
1589.00,59.92
1588.00,59.93
1587.00,59.94
1586.00,59.95
1585.00,59.96
1584.00,59.97
1583.00,59.97
1582.00,59.97
1581.00,59.98
1580.00,59.98
1579.00,59.98
1578.00,59.97
1577.00,59.96
1576.00,59.93
1575.00,59.92
1574.00,59.91
1573.00,59.90
1572.00,59.89
1571.00,59.88
1570.00,59.85
1569.00,59.82
1568.00,59.79
1567.00,59.75
1566.00,59.71
1565.00,59.67
1564.00,59.64
1563.00,59.61
1562.00,59.60
1561.00,59.59
1560.00,59.55
1559.00,59.43
1558.00,59.34
1557.00,59.29
1556.00,59.23
1555.00,59.16
1554.00,59.10
1553.00,59.04
1552.00,58.99
1551.00,58.93
1550.00,58.87
1549.00,58.81
1548.00,58.76
1547.00,58.72
1546.00,58.68
1545.00,58.64
1544.00,58.61
1543.00,58.57
1542.00,58.54
1541.00,58.47
1540.00,58.37
1539.00,58.31
1538.00,58.28
1537.00,58.25
1536.00,58.24
1535.00,58.23
1534.00,58.22
1533.00,58.20
1532.00,58.18
1531.00,58.17
1530.00,58.16
1529.00,58.16
1528.00,58.16
1527.00,58.17
1526.00,58.18
1525.00,58.19
1524.00,58.21
1523.00,58.23
1522.00,58.25
1521.00,58.25
1520.00,58.27
1519.00,58.29
1518.00,58.31
1517.00,58.34
1516.00,58.36
1515.00,58.39
1514.00,58.41
1513.00,58.43
1512.00,58.46
1511.00,58.50
1510.00,58.55
1509.00,58.61
1508.00,58.65
1507.00,58.67
1506.00,58.70
1505.00,58.75
1504.00,58.77
1503.00,58.79
1502.00,58.83
1501.00,58.88
1500.00,58.94
1499.00,58.99
1498.00,59.04
1497.00,59.08
1496.00,59.11
1495.00,59.14
1494.00,59.18
1493.00,59.21
1492.00,59.25
1491.00,59.30
1490.00,59.34
1489.00,59.37
1488.00,59.40
1487.00,59.42
1486.00,59.44
1485.00,59.45
1484.00,59.46
1483.00,59.47
1482.00,59.49
1481.00,59.50
1480.00,59.51
1479.00,59.52
1478.00,59.53
1477.00,59.54
1476.00,59.55
1475.00,59.55
1474.00,59.54
1473.00,59.53
1472.00,59.51
1471.00,59.50
1470.00,59.49
1469.00,59.47
1468.00,59.45
1467.00,59.44
1466.00,59.43
1465.00,59.42
1464.00,59.40
1463.00,59.37
1462.00,59.35
1461.00,59.32
1460.00,59.31
1459.00,59.29
1458.00,59.25
1457.00,59.17
1456.00,59.11
1455.00,59.07
1454.00,59.03
1453.00,59.00
1452.00,58.98
1451.00,58.95
1450.00,58.93
1449.00,58.91
1448.00,58.89
1447.00,58.87
1446.00,58.85
1445.00,58.83
1444.00,58.81
1443.00,58.79
1442.00,58.77
1441.00,58.75
1440.00,58.74
1439.00,58.72
1438.00,58.71
1437.00,58.70
1436.00,58.69
1435.00,58.68
1434.00,58.68
1433.00,58.69
1432.00,58.69
1431.00,58.71
1430.00,58.72
1429.00,58.73
1428.00,58.73
1427.00,58.73
1426.00,58.73
1425.00,58.73
1424.00,58.72
1423.00,58.71
1422.00,58.71
1421.00,58.70
1420.00,58.68
1419.00,58.65
1418.00,58.63
1417.00,58.61
1416.00,58.58
1415.00,58.56
1414.00,58.54
1413.00,58.51
1412.00,58.49
1411.00,58.46
1410.00,58.44
1409.00,58.42
1408.00,58.41
1407.00,58.39
1406.00,58.38
1405.00,58.38
1404.00,58.38
1403.00,58.38
1402.00,58.39
1401.00,58.40
1400.00,58.40
1399.00,58.41
1398.00,58.42
1397.00,58.42
1396.00,58.41
1395.00,58.41
1394.00,58.41
1393.00,58.41
1392.00,58.41
1391.00,58.41
1390.00,58.41
1389.00,58.41
1388.00,58.40
1387.00,58.40
1386.00,58.40
1385.00,58.40
1384.00,58.39
1383.00,58.39
1382.00,58.38
1381.00,58.38
1380.00,58.39
1379.00,58.39
1378.00,58.40
1377.00,58.41
1376.00,58.42
1375.00,58.43
1374.00,58.44
1373.00,58.45
1372.00,58.46
1371.00,58.46
1370.00,58.47
1369.00,58.49
1368.00,58.50
1367.00,58.52
1366.00,58.53
1365.00,58.54
1364.00,58.55
1363.00,58.57
1362.00,58.57
1361.00,58.58
1360.00,58.58
1359.00,58.58
1358.00,58.58
1357.00,58.58
1356.00,58.58
1355.00,58.57
1354.00,58.57
1353.00,58.56
1352.00,58.56
1351.00,58.54
1350.00,58.53
1349.00,58.52
1348.00,58.51
1347.00,58.50
1346.00,58.48
1345.00,58.47
1344.00,58.45
1343.00,58.43
1342.00,58.41
1341.00,58.39
1340.00,58.37
1339.00,58.35
1338.00,58.33
1337.00,58.31
1336.00,58.29
1335.00,58.28
1334.00,58.26
1333.00,58.25
1332.00,58.24
1331.00,58.24
1330.00,58.23
1329.00,58.22
1328.00,58.22
1327.00,58.21
1326.00,58.20
1325.00,58.20
1324.00,58.19
1323.00,58.18
1322.00,58.17
1321.00,58.15
1320.00,58.14
1319.00,58.14
1318.00,58.13
1317.00,58.12
1316.00,58.11
1315.00,58.10
1314.00,58.10
1313.00,58.09
1312.00,58.08
1311.00,58.08
1310.00,58.07
1309.00,58.06
1308.00,58.05
1307.00,58.04
1306.00,58.03
1305.00,58.02
1304.00,58.01
1303.00,58.00
1302.00,57.99
1301.00,57.99
1300.00,57.98
1299.00,57.97
1298.00,57.97
1297.00,57.97
1296.00,57.96
1295.00,57.95
1294.00,57.94
1293.00,57.93
1292.00,57.92
1291.00,57.91
1290.00,57.90
1289.00,57.88
1288.00,57.86
1287.00,57.85
1286.00,57.83
1285.00,57.81
1284.00,57.79
1283.00,57.78
1282.00,57.76
1281.00,57.75
1280.00,57.74
1279.00,57.72
1278.00,57.71
1277.00,57.70
1276.00,57.69
1275.00,57.68
1274.00,57.68
1273.00,57.67
1272.00,57.66
1271.00,57.64
1270.00,57.63
1269.00,57.61
1268.00,57.59
1267.00,57.58
1266.00,57.56
1265.00,57.54
1264.00,57.53
1263.00,57.51
1262.00,57.49
1261.00,57.47
1260.00,57.45
1259.00,57.43
1258.00,57.41
1257.00,57.38
1256.00,57.36
1255.00,57.35
1254.00,57.33
1253.00,57.32
1252.00,57.30
1251.00,57.28
1250.00,57.26
1249.00,57.23
1248.00,57.22
1247.00,57.20
1246.00,57.19
1245.00,57.17
1244.00,57.15
1243.00,57.13
1242.00,57.10
1241.00,57.08
1240.00,57.06
1239.00,57.04
1238.00,57.02
1237.00,57.01
1236.00,56.99
1235.00,56.97
1234.00,56.95
1233.00,56.92
1232.00,56.90
1231.00,56.88
1230.00,56.86
1229.00,56.85
1228.00,56.83
1227.00,56.82
1226.00,56.80
1225.00,56.79
1224.00,56.77
1223.00,56.76
1222.00,56.75
1221.00,56.74
1220.00,56.72
1219.00,56.71
1218.00,56.69
1217.00,56.68
1216.00,56.67
1215.00,56.65
1214.00,56.64
1213.00,56.62
1212.00,56.61
1211.00,56.59
1210.00,56.57
1209.00,56.56
1208.00,56.54
1207.00,56.52
1206.00,56.51
1205.00,56.50
1204.00,56.48
1203.00,56.47
1202.00,56.45
1201.00,56.44
1200.00,56.42
1199.00,56.41
1198.00,56.40
1197.00,56.39
1196.00,56.39
1195.00,56.38
1194.00,56.37
1193.00,56.37
1192.00,56.36
1191.00,56.35
1190.00,56.34
1189.00,56.33
1188.00,56.32
1187.00,56.30
1186.00,56.29
1185.00,56.28
1184.00,56.26
1183.00,56.24
1182.00,56.22
1181.00,56.21
1180.00,56.19
1179.00,56.17
1178.00,56.15
1177.00,56.13
1176.00,56.11
1175.00,56.10
1174.00,56.08
1173.00,56.06
1172.00,56.04
1171.00,56.02
1170.00,56.00
1169.00,55.99
1168.00,55.97
1167.00,55.97
1166.00,55.96
1165.00,55.95
1164.00,55.95
1163.00,55.94
1162.00,55.94
1161.00,55.94
1160.00,55.94
1159.00,55.95
1158.00,55.95
1157.00,55.96
1156.00,55.96
1155.00,55.97
1154.00,55.98
1153.00,55.99
1152.00,56.00
1151.00,56.01
1150.00,56.01
1149.00,56.02
1148.00,56.02
1147.00,56.03
1146.00,56.03
1145.00,56.02
1144.00,56.01
1143.00,56.00
1142.00,56.00
1141.00,55.99
1140.00,55.98
1139.00,55.97
1138.00,55.97
1137.00,55.97
1136.00,55.97
1135.00,55.97
1134.00,55.97
1133.00,55.98
1132.00,55.98
1131.00,55.97
1130.00,55.97
1129.00,55.97
1128.00,55.96
1127.00,55.95
1126.00,55.94
1125.00,55.93
1124.00,55.91
1123.00,55.89
1122.00,55.88
1121.00,55.86
1120.00,55.85
1119.00,55.83
1118.00,55.82
1117.00,55.81
1116.00,55.80
1115.00,55.79
1114.00,55.78
1113.00,55.77
1112.00,55.76
1111.00,55.75
1110.00,55.74
1109.00,55.75
1108.00,55.74
1107.00,55.74
1106.00,55.74
1105.00,55.73
1104.00,55.72
1103.00,55.72
1102.00,55.72
1101.00,55.72
1100.00,55.72
1099.00,55.71
1098.00,55.71
1097.00,55.71
1096.00,55.71
1095.00,55.71
1094.00,55.70
1093.00,55.70
1092.00,55.70
1091.00,55.69
1090.00,55.67
1089.00,55.65
1088.00,55.64
1087.00,55.62
1086.00,55.61
1085.00,55.60
1084.00,55.59
1083.00,55.57
1082.00,55.56
1081.00,55.55
1080.00,55.54
1079.00,55.54
1078.00,55.54
1077.00,55.54
1076.00,55.54
1075.00,55.55
1074.00,55.56
1073.00,55.56
1072.00,55.57
1071.00,55.57
1070.00,55.57
1069.00,55.56
1068.00,55.55
1067.00,55.54
1066.00,55.53
1065.00,55.54
1064.00,55.55
1063.00,55.57
1062.00,55.57
1061.00,55.58
1060.00,55.57
1059.00,55.56
1058.00,55.55
1057.00,55.54
1056.00,55.53
1055.00,55.53
1054.00,55.51
1053.00,55.48
1052.00,55.44
1051.00,55.38
1050.00,55.32
1049.00,55.23
1048.00,55.14
1047.00,55.06
1046.00,54.99
1045.00,54.94
1044.00,54.91
1043.00,54.90
1042.00,54.91
1041.00,54.93
1040.00,54.96
1039.00,55.00
1038.00,55.04
1037.00,55.07
1036.00,55.10
1035.00,55.12
1034.00,55.14
1033.00,55.14
1032.00,55.15
1031.00,55.15
1030.00,55.15
1029.00,55.14
1028.00,55.14
1027.00,55.13
1026.00,55.14
1025.00,55.14
1024.00,55.15
1023.00,55.15
1022.00,55.14
1021.00,55.14
1020.00,55.13
1019.00,55.12
1018.00,55.12
1017.00,55.11
1016.00,55.11
1015.00,55.11
1014.00,55.12
1013.00,55.12
1012.00,55.13
1011.00,55.13
1010.00,55.14
1009.00,55.15
1008.00,55.16
1007.00,55.17
1006.00,55.19
1005.00,55.20
1004.00,55.21
1003.00,55.23
1002.00,55.24
1001.00,55.26
1000.00,55.27
999.00,55.30
998.00,55.32
997.00,55.35
996.00,55.37
995.00,55.39
994.00,55.41
993.00,55.43
992.00,55.44
991.00,55.45
990.00,55.47
989.00,55.49
988.00,55.51
987.00,55.52
986.00,55.54
985.00,55.55
984.00,55.56
983.00,55.56
982.00,55.57
981.00,55.57
980.00,55.58
979.00,55.58
978.00,55.59
977.00,55.59
976.00,55.59
975.00,55.59
974.00,55.59
973.00,55.59
972.00,55.59
971.00,55.58
970.00,55.58
969.00,55.59
968.00,55.59
967.00,55.58
966.00,55.58
965.00,55.56
964.00,55.55
963.00,55.54
962.00,55.53
961.00,55.51
960.00,55.48
959.00,55.45
958.00,55.42
957.00,55.38
956.00,55.35
955.00,55.32
954.00,55.30
953.00,55.27
952.00,55.25
951.00,55.24
950.00,55.23
949.00,55.23
948.00,55.23
947.00,55.23
946.00,55.24
945.00,55.25
944.00,55.26
943.00,55.26
942.00,55.27
941.00,55.28
940.00,55.28
939.00,55.29
938.00,55.30
937.00,55.30
936.00,55.30
935.00,55.30
934.00,55.31
933.00,55.32
932.00,55.33
931.00,55.33
930.00,55.34
929.00,55.35
928.00,55.35
927.00,55.35
926.00,55.35
925.00,55.36
924.00,55.36
923.00,55.37
922.00,55.38
921.00,55.38
920.00,55.39
919.00,55.40
918.00,55.40
917.00,55.40
916.00,55.39
915.00,55.39
914.00,55.39
913.00,55.39
912.00,55.38
911.00,55.37
910.00,55.36
909.00,55.36
908.00,55.36
907.00,55.36
906.00,55.36
905.00,55.35
904.00,55.34
903.00,55.33
902.00,55.34
901.00,55.34
900.00,55.33
899.00,55.33
898.00,55.34
897.00,55.34
896.00,55.35
895.00,55.35
894.00,55.35
893.00,55.34
892.00,55.34
891.00,55.34
890.00,55.35
889.00,55.35
888.00,55.36
887.00,55.36
886.00,55.36
885.00,55.37
884.00,55.37
883.00,55.38
882.00,55.40
881.00,55.41
880.00,55.41
879.00,55.42
878.00,55.43
877.00,55.43
876.00,55.44
875.00,55.44
874.00,55.45
873.00,55.46
872.00,55.47
871.00,55.48
870.00,55.49
869.00,55.50
868.00,55.50
867.00,55.51
866.00,55.51
865.00,55.51
864.00,55.51
863.00,55.52
862.00,55.54
861.00,55.55
860.00,55.56
859.00,55.57
858.00,55.58
857.00,55.58
856.00,55.59
855.00,55.59
854.00,55.59
853.00,55.59
852.00,55.59
851.00,55.60
850.00,55.61
849.00,55.62
848.00,55.64
847.00,55.65
846.00,55.66
845.00,55.67
844.00,55.68
843.00,55.69
842.00,55.70
841.00,55.71
840.00,55.73
839.00,55.74
838.00,55.75
837.00,55.76
836.00,55.76
835.00,55.77
834.00,55.78
833.00,55.79
832.00,55.81
831.00,55.83
830.00,55.85
829.00,55.86
828.00,55.87
827.00,55.87
826.00,55.88
825.00,55.89
824.00,55.90
823.00,55.90
822.00,55.91
821.00,55.90
820.00,55.90
819.00,55.89
818.00,55.90
817.00,55.90
816.00,55.91
815.00,55.93
814.00,55.93
813.00,55.93
812.00,55.93
811.00,55.93
810.00,55.94
809.00,55.96
808.00,55.97
807.00,55.98
806.00,55.99
805.00,56.00
804.00,56.01
803.00,56.02
802.00,56.03
801.00,56.04
800.00,56.05
799.00,56.05
798.00,56.06
797.00,56.06
796.00,56.06
795.00,56.05
794.00,56.05
793.00,56.05
792.00,56.06
791.00,56.06
790.00,56.06
789.00,56.05
788.00,56.03
787.00,56.01
786.00,55.99
785.00,55.97
784.00,55.94
783.00,55.91
782.00,55.88
781.00,55.84
780.00,55.81
779.00,55.78
778.00,55.75
777.00,55.72
776.00,55.68
775.00,55.65
774.00,55.63
773.00,55.61
772.00,55.58
771.00,55.55
770.00,55.52
769.00,55.49
768.00,55.45
767.00,55.43
766.00,55.40
765.00,55.37
764.00,55.34
763.00,55.30
762.00,55.27
761.00,55.23
760.00,55.20
759.00,55.15
758.00,55.10
757.00,55.05
756.00,55.01
755.00,54.98
754.00,54.96
753.00,54.93
752.00,54.90
751.00,54.87
750.00,54.84
749.00,54.81
748.00,54.78
747.00,54.76
746.00,54.74
745.00,54.72
744.00,54.71
743.00,54.70
742.00,54.69
741.00,54.68
740.00,54.67
739.00,54.66
738.00,54.66
737.00,54.66
736.00,54.66
735.00,54.66
734.00,54.65
733.00,54.65
732.00,54.65
731.00,54.65
730.00,54.66
729.00,54.67
728.00,54.67
727.00,54.68
726.00,54.68
725.00,54.68
724.00,54.68
723.00,54.69
722.00,54.70
721.00,54.71
720.00,54.71
719.00,54.71
718.00,54.71
717.00,54.72
716.00,54.73
715.00,54.74
714.00,54.76
713.00,54.79
712.00,54.81
711.00,54.83
710.00,54.85
709.00,54.86
708.00,54.87
707.00,54.88
706.00,54.89
705.00,54.90
704.00,54.91
703.00,54.91
702.00,54.91
701.00,54.92
700.00,54.93
699.00,54.95
698.00,54.97
697.00,55.00
696.00,55.02
695.00,55.04
694.00,55.06
693.00,55.06
692.00,55.07
691.00,55.08
690.00,55.11
689.00,55.13
688.00,55.14
687.00,55.14
686.00,55.14
685.00,55.14
684.00,55.13
683.00,55.12
682.00,55.11
681.00,55.09
680.00,55.05
679.00,55.01
678.00,54.96
677.00,54.91
676.00,54.84
675.00,54.77
674.00,54.70
673.00,54.61
672.00,54.54
671.00,54.49
670.00,54.45
669.00,54.36
668.00,54.20
667.00,54.01
666.00,53.84
665.00,53.70
664.00,53.56
663.00,53.42
662.00,53.28
661.00,53.12
660.00,52.96
659.00,52.80
658.00,52.65
657.00,52.50
656.00,52.36
655.00,52.22
654.00,52.07
653.00,51.93
652.00,51.78
651.00,51.64
650.00,51.50
649.00,51.37
648.00,51.23
647.00,51.11
646.00,51.00
645.00,50.89
644.00,50.76
643.00,50.63
642.00,50.51
641.00,50.38
640.00,50.24
639.00,50.11
638.00,49.99
637.00,49.87
636.00,49.74
635.00,49.60
634.00,49.47
633.00,49.34
632.00,49.20
631.00,49.07
630.00,48.93
629.00,48.78
628.00,48.62
627.00,48.47
626.00,48.31
625.00,48.16
624.00,48.00
623.00,47.85
622.00,47.71
621.00,47.57
620.00,47.42
619.00,47.27
618.00,47.12
617.00,46.97
616.00,46.81
615.00,46.65
614.00,46.51
613.00,46.38
612.00,46.25
611.00,46.13
610.00,46.01
609.00,45.88
608.00,45.73
607.00,45.60
606.00,45.48
605.00,45.36
604.00,45.24
603.00,45.12
602.00,45.02
601.00,44.89
600.00,44.74
599.00,44.59
598.00,44.45
597.00,44.30
596.00,44.15
595.00,44.00
594.00,43.86
593.00,43.70
592.00,43.53
591.00,43.35
590.00,43.17
589.00,42.98
588.00,42.78
587.00,42.60
586.00,42.42
585.00,42.24
584.00,42.02
583.00,41.81
582.00,41.61
581.00,41.39
580.00,41.17
579.00,40.97
578.00,40.79
577.00,40.60
576.00,40.39
575.00,40.19
574.00,40.02
573.00,39.85
572.00,39.68
571.00,39.52
570.00,39.36
569.00,39.17
568.00,38.98
567.00,38.81
566.00,38.66
565.00,38.50
564.00,38.33
563.00,38.17
562.00,38.02
561.00,37.85
560.00,37.65
559.00,37.46
558.00,37.29
557.00,37.12
556.00,36.94
555.00,36.77
554.00,36.61
553.00,36.43
552.00,36.23
551.00,36.05
550.00,35.88
549.00,35.70
548.00,35.51
547.00,35.33
546.00,35.18
545.00,35.01
544.00,34.83
543.00,34.67
542.00,34.53
541.00,34.37
540.00,34.18
539.00,34.01
538.00,33.84
537.00,33.66
536.00,33.47
535.00,33.31
534.00,33.17
533.00,33.01
532.00,32.82
531.00,32.64
530.00,32.48
529.00,32.31
528.00,32.14
527.00,31.96
526.00,31.77
525.00,31.54
524.00,31.29
523.00,31.08
522.00,30.89
521.00,30.68
520.00,30.43
519.00,30.17
518.00,29.93
517.00,29.66
516.00,29.40
515.00,29.17
514.00,28.97
513.00,28.76
512.00,28.50
511.00,28.26
510.00,28.05
509.00,27.84
508.00,27.62
507.00,27.43
506.00,27.26
505.00,27.07
504.00,26.84
503.00,26.63
502.00,26.44
501.00,26.24
500.00,26.03
499.00,25.85
498.00,25.69
497.00,25.51
496.00,25.32
495.00,25.17
494.00,25.07
493.00,24.93
492.00,24.75
491.00,24.61
490.00,24.51
489.00,24.41
488.00,24.30
487.00,24.21
486.00,24.15
485.00,24.06
484.00,23.97
483.00,23.90
482.00,23.85
481.00,23.73
480.00,23.57
479.00,23.45
478.00,23.39
477.00,23.31
476.00,23.19
475.00,23.10
474.00,23.03
473.00,22.91
472.00,22.74
471.00,22.62
470.00,22.55
469.00,22.44
468.00,22.27
467.00,22.14
466.00,22.05
465.00,21.91
464.00,21.70
463.00,21.53
462.00,21.42
461.00,21.30
460.00,21.12
459.00,20.95
458.00,20.77
457.00,20.52
456.00,20.29
455.00,20.18
454.00,20.15
453.00,20.05
452.00,19.85
451.00,19.69
450.00,19.61
449.00,19.49
448.00,19.31
447.00,19.16
446.00,19.05
445.00,18.87
444.00,18.64
443.00,18.48
442.00,18.37
441.00,18.19
440.00,17.95
439.00,17.76
438.00,17.62
437.00,17.39
436.00,17.12
435.00,16.97
434.00,16.90
433.00,16.73
432.00,16.45
431.00,16.20
430.00,16.02
429.00,15.79
428.00,15.54
427.00,15.41
426.00,15.36
425.00,15.21
424.00,14.98
423.00,14.86
422.00,14.84
421.00,14.67
420.00,14.32
419.00,14.07
418.00,14.01
417.00,13.86
416.00,13.66
415.00,13.61
414.00,13.63
413.00,13.48
412.00,13.21
411.00,13.11
410.00,13.21
409.00,13.20
408.00,13.05
407.00,13.00
406.00,13.07
405.00,13.01
404.00,12.85
403.00,12.87
402.00,13.01
401.00,12.91
400.00,12.62
