Time (s)	WE(1).Potential (V)
2021.8560178953	0.042559814453125
2021.86601789528	0.0430267333984375
2021.87601789525	0.0434967041015625
2021.88601789523	0.043963623046875
2021.8960178952	0.0444305419921875
2021.90601789518	0.044891357421875
2021.91601789515	0.0453582763671875
2021.92601789513	0.04581298828125
2021.9360178951	0.04627685546875
2021.94601789508	0.046734619140625
2021.95601789505	0.0471923828125
2021.96601789503	0.047650146484375
2021.976017895	0.0481048583984375
2021.98601789498	0.0485595703125
2021.99601789495	0.04901123046875
2022.00601789493	0.0494659423828125
2022.0160178949	0.0499267578125
2022.02601789488	0.050384521484375
2022.03601789485	0.05084228515625
2022.04601789482	0.051300048828125
2022.0560178948	0.051727294921875
2022.06601789477	0.05218505859375
2022.07601789475	0.052642822265625
2022.08601789472	0.053070068359375
2022.0960178947	0.05352783203125
2022.10601789467	0.053985595703125
2022.11601789465	0.054412841796875
2022.12601789462	0.05487060546875
2022.1360178946	0.0552978515625
2022.14601789457	0.055755615234375
2022.15601789455	0.056182861328125
2022.16601789452	0.056640625
2022.1760178945	0.05706787109375
2022.18601789447	0.0574951171875
2022.19601789445	0.057952880859375
2022.20601789442	0.058380126953125
2022.2160178944	0.058837890625
2022.22601789437	0.05926513671875
2022.23601789434	0.0596923828125
2022.24601789432	0.060150146484375
2022.25601789429	0.060577392578125
2022.26601789427	0.061004638671875
2022.27601789424	0.061431884765625
2022.28601789422	0.0618896484375
2022.29601789419	0.06231689453125
2022.30601789417	0.062713623046875
2022.31601789414	0.063140869140625
2022.32601789412	0.0635986328125
2022.33601789409	0.06402587890625
2022.34601789407	0.064453125
2022.35601789404	0.06488037109375
2022.36601789402	0.0653076171875
2022.37601789399	0.06573486328125
2022.38601789397	0.066162109375
2022.39601789394	0.06658935546875
2022.40601789392	0.0670166015625
2022.41601789389	0.06744384765625
2022.42601789387	0.06787109375
2022.43601789384	0.06829833984375
2022.44601789381	0.068695068359375
2022.45601789379	0.069122314453125
2022.46601789376	0.069549560546875
2022.47601789374	0.069976806640625
2022.48601789371	0.07037353515625
2022.49601789369	0.07080078125
2022.50601789366	0.07122802734375
2022.51601789364	0.071624755859375
2022.52601789361	0.072052001953125
2022.53601789359	0.072479248046875
2022.54601789356	0.072906494140625
2022.55601789354	0.07330322265625
2022.56601789351	0.07373046875
2022.57601789349	0.07415771484375
2022.58601789346	0.074554443359375
2022.59601789344	0.074981689453125
2022.60601789341	0.07537841796875
2022.61601789339	0.0758056640625
2022.62601789336	0.076202392578125
2022.63601789334	0.076629638671875
2022.64601789331	0.0770263671875
2022.65601789328	0.07745361328125
2022.66601789326	0.077850341796875
2022.67601789323	0.0782470703125
2022.68601789321	0.078643798828125
2022.69601789318	0.07904052734375
2022.70601789316	0.0794677734375
2022.71601789313	0.079864501953125
2022.72601789311	0.08026123046875
2022.73601789308	0.0806884765625
2022.74601789306	0.081085205078125
2022.75601789303	0.08148193359375
2022.76601789301	0.0819091796875
2022.77601789298	0.082305908203125
2022.78601789296	0.08270263671875
2022.79601789293	0.0831298828125
2022.80601789291	0.083526611328125
2022.81601789288	0.08392333984375
2022.82601789286	0.084320068359375
2022.83601789283	0.084716796875
2022.8460178928	0.085113525390625
2022.85601789278	0.085540771484375
2022.86601789275	0.0859375
2022.87601789273	0.0863037109375
2022.8860178927	0.08673095703125
2022.89601789268	0.087127685546875
2022.90601789265	0.0875244140625
2022.91601789263	0.087921142578125
2022.9260178926	0.08831787109375
2022.93601789258	0.088714599609375
2022.94601789255	0.089111328125
2022.95601789253	0.089508056640625
2022.9660178925	0.08990478515625
2022.97601789248	0.090301513671875
2022.98601789245	0.0906982421875
2022.99601789243	0.091094970703125
2023.0060178924	0.09149169921875
2023.01601789238	0.09185791015625
2023.02601789235	0.092254638671875
2023.03601789233	0.0926513671875
2023.0460178923	0.093048095703125
2023.05601789227	0.09344482421875
2023.06601789225	0.09381103515625
2023.07601789222	0.094207763671875
2023.0860178922	0.094573974609375
2023.09601789217	0.094970703125
2023.10601789215	0.095367431640625
2023.11601789212	0.09576416015625
2023.1260178921	0.09613037109375
2023.13601789207	0.096527099609375
2023.14601789205	0.096923828125
2023.15601789202	0.0972900390625
2023.166017892	0.097686767578125
2023.17601789197	0.09808349609375
2023.18601789195	0.09844970703125
2023.19601789192	0.098846435546875
2023.2060178919	0.0992431640625
2023.21601789187	0.099609375
2023.22601789185	0.100006103515625
2023.23601789182	0.100372314453125
2023.24601789179	0.10076904296875
2023.25601789177	0.101165771484375
2023.26601789174	0.101531982421875
2023.27601789172	0.101898193359375
2023.28601789169	0.102294921875
2023.29601789167	0.1026611328125
2023.30601789164	0.103057861328125
2023.31601789162	0.103424072265625
2023.32601789159	0.103790283203125
2023.33601789157	0.10418701171875
2023.34601789154	0.10455322265625
2023.35601789152	0.104949951171875
2023.36601789149	0.105316162109375
2023.37601789147	0.105682373046875
2023.38601789144	0.1060791015625
2023.39601789142	0.1064453125
2023.40601789139	0.1068115234375
2023.41601789137	0.107208251953125
2023.42601789134	0.107574462890625
2023.43601789132	0.107940673828125
2023.44601789129	0.10833740234375
2023.45601789126	0.10870361328125
2023.46601789124	0.10906982421875
2023.47601789121	0.10943603515625
2023.48601789119	0.109771728515625
2023.49601789116	0.110137939453125
2023.50601789114	0.11053466796875
2023.51601789111	0.11090087890625
2023.52601789109	0.11126708984375
2023.53601789106	0.11163330078125
2023.54601789104	0.11199951171875
2023.55601789101	0.11236572265625
2023.56601789099	0.11273193359375
2023.57601789096	0.11309814453125
2023.58601789094	0.113494873046875
2023.59601789091	0.113861083984375
2023.60601789089	0.114227294921875
2023.61601789086	0.114593505859375
2023.62601789084	0.114959716796875
2023.63601789081	0.115325927734375
2023.64601789079	0.115692138671875
2023.65601789076	0.116058349609375
2023.66601789073	0.116424560546875
2023.67601789071	0.116790771484375
2023.68601789068	0.117156982421875
2023.69601789066	0.11749267578125
2023.70601789063	0.11785888671875
2023.71601789061	0.11822509765625
2023.72601789058	0.11859130859375
2023.73601789056	0.11895751953125
2023.74601789053	0.119293212890625
2023.75601789051	0.119659423828125
2023.76601789048	0.120025634765625
2023.77601789046	0.120391845703125
2023.78601789043	0.120758056640625
2023.79601789041	0.121124267578125
2023.80601789038	0.1214599609375
2023.81601789036	0.121826171875
2023.82601789033	0.1221923828125
2023.83601789031	0.12255859375
2023.84601789028	0.122894287109375
2023.85601789025	0.123260498046875
2023.86601789023	0.123626708984375
2023.8760178902	0.12396240234375
2023.88601789018	0.12432861328125
2023.89601789015	0.12469482421875
2023.90601789013	0.125030517578125
2023.9160178901	0.1253662109375
2023.92601789008	0.125732421875
2023.93601789005	0.1260986328125
2023.94601789003	0.126434326171875
2023.95601789	0.126800537109375
2023.96601788998	0.12713623046875
2023.97601788995	0.12750244140625
2023.98601788993	0.127838134765625
2023.9960178899	0.128204345703125
2024.00601788988	0.1285400390625
2024.01601788985	0.12890625
2024.02601788983	0.129241943359375
2024.0360178898	0.129608154296875
2024.04601788978	0.12994384765625
2024.05601788975	0.13031005859375
2024.06601788972	0.130645751953125
2024.0760178897	0.131011962890625
2024.08601788967	0.13134765625
2024.09601788965	0.131683349609375
2024.10601788962	0.132049560546875
2024.1160178896	0.13238525390625
2024.12601788957	0.13275146484375
2024.13601788955	0.133087158203125
2024.14601788952	0.1334228515625
2024.1560178895	0.133758544921875
2024.16601788947	0.134124755859375
2024.17601788945	0.13446044921875
2024.18601788942	0.134796142578125
2024.1960178894	0.135162353515625
2024.20601788937	0.135498046875
2024.21601788935	0.135833740234375
2024.22601788932	0.13616943359375
2024.2360178893	0.13653564453125
2024.24601788927	0.136871337890625
2024.25601788924	0.13720703125
2024.26601788922	0.137542724609375
2024.27601788919	0.137908935546875
2024.28601788917	0.13824462890625
2024.29601788914	0.138580322265625
2024.30601788912	0.138916015625
2024.31601788909	0.139251708984375
2024.32601788907	0.13958740234375
2024.33601788904	0.13995361328125
2024.34601788902	0.140289306640625
2024.35601788899	0.140594482421875
2024.36601788897	0.140899658203125
2024.37601788894	0.1412353515625
2024.38601788892	0.1416015625
2024.39601788889	0.141937255859375
2024.40601788887	0.14227294921875
2024.41601788884	0.142608642578125
2024.42601788882	0.1429443359375
2024.43601788879	0.143280029296875
2024.44601788877	0.14361572265625
2024.45601788874	0.143951416015625
2024.46601788871	0.144287109375
2024.47601788869	0.144622802734375
2024.48601788866	0.14495849609375
2024.49601788864	0.145294189453125
2024.50601788861	0.1456298828125
2024.51601788859	0.145965576171875
2024.52601788856	0.146270751953125
2024.53601788854	0.1466064453125
2024.54601788851	0.146942138671875
2024.55601788849	0.14727783203125
2024.56601788846	0.147613525390625
2024.57601788844	0.14794921875
2024.58601788841	0.148284912109375
2024.59601788839	0.148590087890625
2024.60601788836	0.14892578125
2024.61601788834	0.14923095703125
2024.62601788831	0.149566650390625
2024.63601788829	0.14990234375
2024.64601788826	0.150238037109375
2024.65601788824	0.150543212890625
2024.66601788821	0.15087890625
2024.67601788818	0.151214599609375
2024.68601788816	0.15155029296875
2024.69601788813	0.15185546875
2024.70601788811	0.152191162109375
2024.71601788808	0.15252685546875
2024.72601788806	0.152862548828125
2024.73601788803	0.153167724609375
2024.74601788801	0.15350341796875
2024.75601788798	0.15380859375
2024.76601788796	0.154144287109375
2024.77601788793	0.15447998046875
2024.78601788791	0.15478515625
2024.79601788788	0.155120849609375
2024.80601788786	0.155426025390625
2024.81601788783	0.15576171875
2024.82601788781	0.156097412109375
2024.83601788778	0.1563720703125
2024.84601788776	0.156707763671875
2024.85601788773	0.157012939453125
2024.8660178877	0.1573486328125
2024.87601788768	0.15765380859375
2024.88601788765	0.157989501953125
2024.89601788763	0.158294677734375
2024.9060178876	0.15863037109375
2024.91601788758	0.158935546875
2024.92601788755	0.15924072265625
2024.93601788753	0.159576416015625
2024.9460178875	0.159881591796875
2024.95601788748	0.16021728515625
2024.96601788745	0.1605224609375
2024.97601788743	0.160858154296875
2024.9860178874	0.161163330078125
2024.99601788738	0.161468505859375
2025.00601788735	0.16180419921875
2025.01601788733	0.162109375
2025.0260178873	0.16241455078125
2025.03601788728	0.162750244140625
2025.04601788725	0.163055419921875
2025.05601788723	0.163360595703125
2025.0660178872	0.1636962890625
2025.07601788717	0.16400146484375
2025.08601788715	0.164306640625
2025.09601788712	0.16461181640625
2025.1060178871	0.1649169921875
2025.11601788707	0.16522216796875
2025.12601788705	0.165557861328125
2025.13601788702	0.165863037109375
2025.146017887	0.166168212890625
2025.15601788697	0.166473388671875
2025.16601788695	0.166778564453125
2025.17601788692	0.1671142578125
2025.1860178869	0.16741943359375
2025.19601788687	0.167724609375
2025.20601788685	0.16802978515625
2025.21601788682	0.1683349609375
2025.2260178868	0.16864013671875
2025.23601788677	0.1689453125
2025.24601788675	0.169281005859375
2025.25601788672	0.169586181640625
2025.26601788669	0.169891357421875
2025.27601788667	0.170196533203125
2025.28601788664	0.170501708984375
2025.29601788662	0.170806884765625
2025.30601788659	0.171112060546875
2025.31601788657	0.171417236328125
2025.32601788654	0.171722412109375
2025.33601788652	0.1719970703125
2025.34601788649	0.172271728515625
2025.35601788647	0.172576904296875
2025.36601788644	0.172882080078125
2025.37601788642	0.173187255859375
2025.38601788639	0.173492431640625
2025.39601788637	0.173797607421875
2025.40601788634	0.174102783203125
2025.41601788632	0.174407958984375
2025.42601788629	0.174713134765625
2025.43601788627	0.175018310546875
2025.44601788624	0.17529296875
2025.45601788622	0.17559814453125
2025.46601788619	0.1759033203125
2025.47601788616	0.17620849609375
2025.48601788614	0.176513671875
2025.49601788611	0.17681884765625
2025.50601788609	0.177093505859375
2025.51601788606	0.177398681640625
2025.52601788604	0.177703857421875
2025.53601788601	0.178009033203125
2025.54601788599	0.17828369140625
2025.55601788596	0.1785888671875
2025.56601788594	0.17889404296875
2025.57601788591	0.17919921875
2025.58601788589	0.179473876953125
2025.59601788586	0.179779052734375
2025.60601788584	0.1800537109375
2025.61601788581	0.18035888671875
2025.62601788579	0.180633544921875
2025.63601788576	0.180938720703125
2025.64601788574	0.181243896484375
2025.65601788571	0.1815185546875
2025.66601788569	0.18182373046875
2025.67601788566	0.182098388671875
2025.68601788563	0.182403564453125
2025.69601788561	0.182708740234375
2025.70601788558	0.1829833984375
2025.71601788556	0.18328857421875
2025.72601788553	0.183563232421875
2025.73601788551	0.183868408203125
2025.74601788548	0.18414306640625
2025.75601788546	0.1844482421875
2025.76601788543	0.184722900390625
2025.77601788541	0.185028076171875
2025.78601788538	0.185302734375
2025.79601788536	0.18560791015625
2025.80601788533	0.185882568359375
2025.81601788531	0.1861572265625
2025.82601788528	0.18646240234375
2025.83601788526	0.186737060546875
2025.84601788523	0.18701171875
2025.85601788521	0.18731689453125
2025.86601788518	0.187591552734375
2025.87601788515	0.1878662109375
2025.88601788513	0.188140869140625
2025.8960178851	0.188446044921875
2025.90601788508	0.188720703125
2025.91601788505	0.188995361328125
2025.92601788503	0.18927001953125
2025.936017885	0.1895751953125
2025.94601788498	0.189849853515625
2025.95601788495	0.19012451171875
2025.96601788493	0.190399169921875
2025.9760178849	0.190673828125
2025.98601788488	0.19097900390625
2025.99601788485	0.191253662109375
2026.00601788483	0.1915283203125
2026.0160178848	0.191802978515625
2026.02601788478	0.19207763671875
2026.03601788475	0.1923828125
2026.04601788473	0.192657470703125
2026.0560178847	0.19293212890625
2026.06601788468	0.193206787109375
2026.07601788465	0.1934814453125
2026.08601788462	0.193756103515625
2026.0960178846	0.19403076171875
2026.10601788457	0.194305419921875
2026.11601788455	0.194580078125
2026.12601788452	0.194854736328125
2026.1360178845	0.19512939453125
2026.14601788447	0.195404052734375
2026.15601788445	0.1956787109375
2026.16601788442	0.195953369140625
2026.1760178844	0.19622802734375
2026.18601788437	0.196502685546875
2026.19601788435	0.19677734375
2026.20601788432	0.197021484375
2026.2160178843	0.197296142578125
2026.22601788427	0.19757080078125
2026.23601788425	0.197845458984375
2026.24601788422	0.1981201171875
2026.2560178842	0.198394775390625
2026.26601788417	0.19866943359375
2026.27601788414	0.198944091796875
2026.28601788412	0.199188232421875
2026.29601788409	0.199462890625
2026.30601788407	0.199737548828125
2026.31601788404	0.20001220703125
2026.32601788402	0.200286865234375
2026.33601788399	0.200531005859375
2026.34601788397	0.2008056640625
2026.35601788394	0.201080322265625
2026.36601788392	0.20135498046875
2026.37601788389	0.20159912109375
2026.38601788387	0.201873779296875
2026.39601788384	0.2021484375
2026.40601788382	0.202392578125
2026.41601788379	0.202667236328125
2026.42601788377	0.20294189453125
2026.43601788374	0.20318603515625
2026.44601788372	0.20343017578125
2026.45601788369	0.20367431640625
2026.46601788367	0.203948974609375
2026.47601788364	0.2042236328125
2026.48601788361	0.2044677734375
2026.49601788359	0.204742431640625
2026.50601788356	0.204986572265625
2026.51601788354	0.20526123046875
2026.52601788351	0.20550537109375
2026.53601788349	0.205780029296875
2026.54601788346	0.2060546875
2026.55601788344	0.206298828125
2026.56601788341	0.20654296875
2026.57601788339	0.206817626953125
2026.58601788336	0.20709228515625
2026.59601788334	0.20733642578125
2026.60601788331	0.207611083984375
2026.61601788329	0.207855224609375
2026.62601788326	0.208099365234375
2026.63601788324	0.2083740234375
2026.64601788321	0.2086181640625
2026.65601788319	0.208892822265625
2026.66601788316	0.209136962890625
2026.67601788314	0.209381103515625
2026.68601788311	0.20965576171875
2026.69601788308	0.20989990234375
2026.70601788306	0.210174560546875
2026.71601788303	0.210418701171875
2026.72601788301	0.210662841796875
2026.73601788298	0.2109375
2026.74601788296	0.211181640625
2026.75601788293	0.21142578125
2026.76601788291	0.211669921875
2026.77601788288	0.2119140625
2026.78601788286	0.212188720703125
2026.79601788283	0.212432861328125
2026.80601788281	0.212677001953125
2026.81601788278	0.212921142578125
2026.82601788276	0.213165283203125
2026.83601788273	0.21343994140625
2026.84601788271	0.21368408203125
2026.85601788268	0.21392822265625
2026.86601788266	0.21417236328125
2026.87601788263	0.21441650390625
2026.8860178826	0.214691162109375
2026.89601788258	0.214935302734375
2026.90601788255	0.215179443359375
2026.91601788253	0.215423583984375
2026.9260178825	0.215667724609375
2026.93601788248	0.215911865234375
2026.94601788245	0.216156005859375
2026.95601788243	0.216400146484375
2026.9660178824	0.2166748046875
2026.97601788238	0.2169189453125
2026.98601788235	0.2171630859375
2026.99601788233	0.2174072265625
2027.0060178823	0.2176513671875
2027.01601788228	0.2178955078125
2027.02601788225	0.2181396484375
2027.03601788223	0.2183837890625
2027.0460178822	0.2186279296875
2027.05601788218	0.218841552734375
2027.06601788215	0.219085693359375
2027.07601788213	0.219329833984375
2027.0860178821	0.219573974609375
2027.09601788207	0.219818115234375
2027.10601788205	0.220062255859375
2027.11601788202	0.220306396484375
2027.126017882	0.220550537109375
2027.13601788197	0.220794677734375
2027.14601788195	0.221038818359375
2027.15601788192	0.221282958984375
2027.1660178819	0.22149658203125
2027.17601788187	0.22174072265625
2027.18601788185	0.22198486328125
2027.19601788182	0.22222900390625
2027.2060178818	0.22247314453125
2027.21601788177	0.22271728515625
2027.22601788175	0.222930908203125
2027.23601788172	0.223175048828125
2027.2460178817	0.223419189453125
2027.25601788167	0.223663330078125
2027.26601788165	0.223907470703125
2027.27601788162	0.22412109375
2027.28601788159	0.224365234375
2027.29601788157	0.224609375
2027.30601788154	0.224853515625
2027.31601788152	0.22509765625
2027.32601788149	0.225341796875
2027.33601788147	0.225555419921875
2027.34601788144	0.225799560546875
2027.35601788142	0.226043701171875
2027.36601788139	0.22625732421875
2027.37601788137	0.22650146484375
2027.38601788134	0.226715087890625
2027.39601788132	0.226959228515625
2027.40601788129	0.227203369140625
2027.41601788127	0.2274169921875
2027.42601788124	0.2276611328125
2027.43601788122	0.227874755859375
2027.44601788119	0.228118896484375
2027.45601788117	0.228363037109375
2027.46601788114	0.22857666015625
2027.47601788112	0.22882080078125
2027.48601788109	0.22906494140625
2027.49601788106	0.229278564453125
2027.50601788104	0.229522705078125
2027.51601788101	0.229736328125
2027.52601788099	0.22998046875
2027.53601788096	0.230194091796875
2027.54601788094	0.230438232421875
2027.55601788091	0.230682373046875
2027.56601788089	0.23089599609375
