Time (s)	WE(1).Potential (V)
2540.37597058617	0.70526123046875
2540.38597058614	0.70404052734375
2540.39597058612	0.70281982421875
2540.40597058609	0.70159912109375
2540.41597058607	0.70037841796875
2540.42597058604	0.69915771484375
2540.43597058602	0.69793701171875
2540.44597058599	0.69671630859375
2540.45597058597	0.69549560546875
2540.46597058594	0.69427490234375
2540.47597058591	0.69305419921875
2540.48597058589	0.69183349609375
2540.49597058586	0.6903076171875
2540.50597058584	0.6890869140625
2540.51597058581	0.6878662109375
2540.52597058579	0.6866455078125
2540.53597058576	0.6854248046875
2540.54597058574	0.6842041015625
2540.55597058571	0.6829833984375
2540.56597058569	0.6817626953125
2540.57597058566	0.6805419921875
2540.58597058564	0.6793212890625
2540.59597058561	0.6781005859375
2540.60597058559	0.6768798828125
2540.61597058556	0.6756591796875
2540.62597058554	0.6744384765625
2540.63597058551	0.6732177734375
2540.64597058549	0.6719970703125
2540.65597058546	0.6707763671875
2540.66597058543	0.6695556640625
2540.67597058541	0.6683349609375
2540.68597058538	0.6671142578125
2540.69597058536	0.6658935546875
2540.70597058533	0.6646728515625
2540.71597058531	0.6634521484375
2540.72597058528	0.6622314453125
2540.73597058526	0.6610107421875
2540.74597058523	0.6597900390625
2540.75597058521	0.6585693359375
2540.76597058518	0.6573486328125
2540.77597058516	0.6561279296875
2540.78597058513	0.6549072265625
2540.79597058511	0.6536865234375
2540.80597058508	0.6524658203125
2540.81597058506	0.6512451171875
2540.82597058503	0.6500244140625
2540.83597058501	0.6488037109375
2540.84597058498	0.6475830078125
2540.85597058496	0.6463623046875
2540.86597058493	0.6451416015625
2540.8759705849	0.6439208984375
2540.88597058488	0.6427001953125
2540.89597058485	0.64178466796875
2540.90597058483	0.64056396484375
2540.9159705848	0.63934326171875
2540.92597058478	0.63812255859375
2540.93597058475	0.63690185546875
2540.94597058473	0.63568115234375
2540.9559705847	0.63446044921875
2540.96597058468	0.63323974609375
2540.97597058465	0.63201904296875
2540.98597058463	0.63079833984375
2540.9959705846	0.62957763671875
2541.00597058458	0.62835693359375
2541.01597058455	0.62713623046875
2541.02597058453	0.62591552734375
2541.0359705845	0.625
2541.04597058448	0.623779296875
2541.05597058445	0.62255859375
2541.06597058443	0.621337890625
2541.0759705844	0.6201171875
2541.08597058437	0.618896484375
2541.09597058435	0.61798095703125
2541.10597058432	0.61676025390625
2541.1159705843	0.61553955078125
2541.12597058427	0.61431884765625
2541.13597058425	0.61309814453125
2541.14597058422	0.61187744140625
2541.1559705842	0.61065673828125
2541.16597058417	0.60943603515625
2541.17597058415	0.60821533203125
2541.18597058412	0.60699462890625
2541.1959705841	0.6060791015625
2541.20597058407	0.6048583984375
2541.21597058405	0.6036376953125
2541.22597058402	0.6024169921875
2541.235970584	0.6011962890625
2541.24597058397	0.5999755859375
2541.25597058395	0.5987548828125
2541.26597058392	0.5975341796875
2541.27597058389	0.59661865234375
2541.28597058387	0.59539794921875
2541.29597058384	0.59417724609375
2541.30597058382	0.59295654296875
2541.31597058379	0.59173583984375
2541.32597058377	0.59051513671875
2541.33597058374	0.589599609375
2541.34597058372	0.58837890625
2541.35597058369	0.587158203125
2541.36597058367	0.5859375
2541.37597058364	0.584716796875
2541.38597058362	0.58349609375
2541.39597058359	0.582275390625
2541.40597058357	0.58135986328125
2541.41597058354	0.58013916015625
2541.42597058352	0.57891845703125
2541.43597058349	0.57769775390625
2541.44597058347	0.57647705078125
2541.45597058344	0.5755615234375
2541.46597058342	0.5743408203125
2541.47597058339	0.5731201171875
2541.48597058336	0.5718994140625
2541.49597058334	0.5706787109375
2541.50597058331	0.56976318359375
2541.51597058329	0.56854248046875
2541.52597058326	0.56732177734375
2541.53597058324	0.56610107421875
2541.54597058321	0.56488037109375
2541.55597058319	0.56396484375
2541.56597058316	0.562744140625
2541.57597058314	0.5615234375
2541.58597058311	0.560302734375
2541.59597058309	0.55938720703125
2541.60597058306	0.55816650390625
2541.61597058304	0.55694580078125
2541.62597058301	0.5560302734375
2541.63597058299	0.5548095703125
2541.64597058296	0.5535888671875
2541.65597058294	0.5523681640625
2541.66597058291	0.55145263671875
2541.67597058288	0.55023193359375
2541.68597058286	0.54901123046875
2541.69597058283	0.548095703125
2541.70597058281	0.546875
2541.71597058278	0.54595947265625
2541.72597058276	0.54473876953125
2541.73597058273	0.54351806640625
2541.74597058271	0.54229736328125
2541.75597058268	0.5413818359375
2541.76597058266	0.5401611328125
2541.77597058263	0.5389404296875
2541.78597058261	0.53802490234375
2541.79597058258	0.53680419921875
2541.80597058256	0.53558349609375
2541.81597058253	0.53466796875
2541.82597058251	0.533447265625
2541.83597058248	0.5322265625
2541.84597058246	0.53131103515625
2541.85597058243	0.53009033203125
2541.86597058241	0.52886962890625
2541.87597058238	0.5279541015625
2541.88597058235	0.5267333984375
2541.89597058233	0.5255126953125
2541.9059705823	0.52459716796875
2541.91597058228	0.52337646484375
2541.92597058225	0.52215576171875
2541.93597058223	0.521240234375
2541.9459705822	0.52001953125
2541.95597058218	0.518798828125
2541.96597058215	0.51788330078125
2541.97597058213	0.51666259765625
2541.9859705821	0.51544189453125
2541.99597058208	0.5145263671875
2542.00597058205	0.5133056640625
2542.01597058203	0.5120849609375
2542.025970582	0.51116943359375
2542.03597058198	0.50994873046875
2542.04597058195	0.50872802734375
2542.05597058193	0.5078125
2542.0659705819	0.506591796875
2542.07597058188	0.50537109375
2542.08597058185	0.50445556640625
2542.09597058182	0.50323486328125
2542.1059705818	0.5023193359375
2542.11597058177	0.5010986328125
2542.12597058175	0.4998779296875
2542.13597058172	0.4990234375
2542.1459705817	0.4979248046875
2542.15597058167	0.496826171875
2542.16597058165	0.4957275390625
2542.17597058162	0.49462890625
2542.1859705816	0.4935302734375
2542.19597058157	0.492431640625
2542.20597058155	0.491363525390625
2542.21597058152	0.490264892578125
2542.2259705815	0.489166259765625
2542.23597058147	0.488067626953125
2542.24597058145	0.48699951171875
2542.25597058142	0.48590087890625
2542.2659705814	0.484832763671875
2542.27597058137	0.483795166015625
2542.28597058134	0.482696533203125
2542.29597058132	0.48162841796875
2542.30597058129	0.48052978515625
2542.31597058127	0.479461669921875
2542.32597058124	0.4783935546875
2542.33597058122	0.477325439453125
2542.34597058119	0.47625732421875
2542.35597058117	0.475189208984375
2542.36597058114	0.47412109375
2542.37597058112	0.473052978515625
2542.38597058109	0.47198486328125
2542.39597058107	0.470916748046875
2542.40597058104	0.4698486328125
2542.41597058102	0.468780517578125
2542.42597058099	0.467742919921875
2542.43597058097	0.4666748046875
2542.44597058094	0.46563720703125
2542.45597058092	0.464569091796875
2542.46597058089	0.4635009765625
2542.47597058087	0.46246337890625
2542.48597058084	0.46142578125
2542.49597058081	0.46038818359375
2542.50597058079	0.459320068359375
2542.51597058076	0.458282470703125
2542.52597058074	0.457244873046875
2542.53597058071	0.456207275390625
2542.54597058069	0.455169677734375
2542.55597058066	0.4541015625
2542.56597058064	0.453094482421875
2542.57597058061	0.45208740234375
2542.58597058059	0.4510498046875
2542.59597058056	0.450042724609375
2542.60597058054	0.449005126953125
2542.61597058051	0.447967529296875
2542.62597058049	0.446929931640625
2542.63597058046	0.4459228515625
2542.64597058044	0.444915771484375
2542.65597058041	0.443878173828125
2542.66597058039	0.44287109375
2542.67597058036	0.441864013671875
2542.68597058033	0.44085693359375
2542.69597058031	0.439849853515625
2542.70597058028	0.438812255859375
2542.71597058026	0.437835693359375
2542.72597058023	0.43682861328125
2542.73597058021	0.435821533203125
2542.74597058018	0.434814453125
2542.75597058016	0.433807373046875
2542.76597058013	0.432830810546875
2542.77597058011	0.43182373046875
2542.78597058008	0.43084716796875
2542.79597058006	0.42987060546875
2542.80597058003	0.428863525390625
2542.81597058001	0.427886962890625
2542.82597057998	0.426910400390625
2542.83597057996	0.425933837890625
2542.84597057993	0.424957275390625
2542.85597057991	0.423980712890625
2542.86597057988	0.423004150390625
2542.87597057986	0.422027587890625
2542.88597057983	0.421112060546875
2542.8959705798	0.420135498046875
2542.90597057978	0.419158935546875
2542.91597057975	0.418212890625
2542.92597057973	0.417236328125
2542.9359705797	0.416290283203125
2542.94597057968	0.415313720703125
2542.95597057965	0.41436767578125
2542.96597057963	0.413421630859375
2542.9759705796	0.4124755859375
2542.98597057958	0.411529541015625
2542.99597057955	0.41058349609375
2543.00597057953	0.409637451171875
2543.0159705795	0.40869140625
2543.02597057948	0.40777587890625
2543.03597057945	0.406829833984375
2543.04597057943	0.405914306640625
2543.0559705794	0.404998779296875
2543.06597057938	0.404052734375
2543.07597057935	0.40313720703125
2543.08597057933	0.402191162109375
2543.0959705793	0.401275634765625
2543.10597057927	0.40032958984375
2543.11597057925	0.3994140625
2543.12597057922	0.39849853515625
2543.1359705792	0.3975830078125
2543.14597057917	0.39666748046875
2543.15597057915	0.395782470703125
2543.16597057912	0.394866943359375
2543.1759705791	0.393951416015625
2543.18597057907	0.393035888671875
2543.19597057905	0.392120361328125
2543.20597057902	0.3912353515625
2543.215970579	0.390350341796875
2543.22597057897	0.38946533203125
2543.23597057895	0.3885498046875
2543.24597057892	0.387664794921875
2543.2559705789	0.386749267578125
2543.26597057887	0.3858642578125
2543.27597057885	0.384979248046875
2543.28597057882	0.38409423828125
2543.29597057879	0.383209228515625
2543.30597057877	0.38232421875
2543.31597057874	0.381439208984375
2543.32597057872	0.38055419921875
2543.33597057869	0.379669189453125
2543.34597057867	0.3787841796875
2543.35597057864	0.377899169921875
2543.36597057862	0.377044677734375
2543.37597057859	0.37615966796875
2543.38597057857	0.375274658203125
2543.39597057854	0.37445068359375
2543.40597057852	0.373565673828125
2543.41597057849	0.372711181640625
2543.42597057847	0.371826171875
2543.43597057844	0.3709716796875
2543.44597057842	0.370086669921875
2543.45597057839	0.369232177734375
2543.46597057837	0.368377685546875
2543.47597057834	0.367523193359375
2543.48597057832	0.366668701171875
2543.49597057829	0.365814208984375
2543.50597057826	0.364959716796875
2543.51597057824	0.364105224609375
2543.52597057821	0.363250732421875
2543.53597057819	0.3624267578125
2543.54597057816	0.361572265625
2543.55597057814	0.3607177734375
2543.56597057811	0.359893798828125
2543.57597057809	0.35906982421875
2543.58597057806	0.358245849609375
2543.59597057804	0.357391357421875
2543.60597057801	0.3565673828125
2543.61597057799	0.355712890625
2543.62597057796	0.354888916015625
2543.63597057794	0.35406494140625
2543.64597057791	0.35321044921875
2543.65597057789	0.352386474609375
2543.66597057786	0.3515625
2543.67597057784	0.350738525390625
2543.68597057781	0.34991455078125
2543.69597057778	0.349090576171875
2543.70597057776	0.348297119140625
2543.71597057773	0.347442626953125
2543.72597057771	0.346649169921875
2543.73597057768	0.3458251953125
2543.74597057766	0.345001220703125
2543.75597057763	0.344207763671875
2543.76597057761	0.343414306640625
2543.77597057758	0.342620849609375
2543.78597057756	0.341796875
2543.79597057753	0.34100341796875
2543.80597057751	0.340179443359375
2543.81597057748	0.339385986328125
2543.82597057746	0.338592529296875
2543.83597057743	0.337799072265625
2543.84597057741	0.33697509765625
2543.85597057738	0.336212158203125
2543.86597057736	0.335418701171875
2543.87597057733	0.334625244140625
2543.88597057731	0.333831787109375
2543.89597057728	0.333038330078125
2543.90597057725	0.332275390625
2543.91597057723	0.33148193359375
2543.9259705772	0.3306884765625
2543.93597057718	0.329925537109375
2543.94597057715	0.329132080078125
2543.95597057713	0.328369140625
2543.9659705771	0.32763671875
2543.97597057708	0.326873779296875
2543.98597057705	0.32611083984375
2543.99597057703	0.3253173828125
2544.005970577	0.324554443359375
2544.01597057698	0.32379150390625
2544.02597057695	0.32305908203125
2544.03597057693	0.322296142578125
2544.0459705769	0.321533203125
2544.05597057688	0.320770263671875
2544.06597057685	0.320037841796875
2544.07597057683	0.319305419921875
2544.0859705768	0.31854248046875
2544.09597057678	0.31781005859375
2544.10597057675	0.317047119140625
2544.11597057672	0.316314697265625
2544.1259705767	0.315582275390625
2544.13597057667	0.314849853515625
2544.14597057665	0.314117431640625
2544.15597057662	0.313385009765625
2544.1659705766	0.312652587890625
2544.17597057657	0.31195068359375
2544.18597057655	0.31121826171875
2544.19597057652	0.31048583984375
2544.2059705765	0.309783935546875
2544.21597057647	0.309051513671875
2544.22597057645	0.308349609375
2544.23597057642	0.307647705078125
2544.2459705764	0.306915283203125
2544.25597057637	0.30621337890625
2544.26597057635	0.305511474609375
2544.27597057632	0.3048095703125
2544.2859705763	0.304107666015625
2544.29597057627	0.303436279296875
2544.30597057624	0.302734375
2544.31597057622	0.302032470703125
2544.32597057619	0.30133056640625
2544.33597057617	0.300628662109375
2544.34597057614	0.299957275390625
2544.35597057612	0.29925537109375
2544.36597057609	0.298583984375
2544.37597057607	0.29791259765625
2544.38597057604	0.297210693359375
2544.39597057602	0.29656982421875
2544.40597057599	0.2958984375
2544.41597057597	0.29522705078125
2544.42597057594	0.2945556640625
2544.43597057592	0.29388427734375
2544.44597057589	0.293212890625
2544.45597057587	0.29254150390625
2544.46597057584	0.2918701171875
2544.47597057582	0.29119873046875
2544.48597057579	0.29052734375
2544.49597057577	0.289886474609375
2544.50597057574	0.289215087890625
2544.51597057571	0.288543701171875
2544.52597057569	0.28790283203125
2544.53597057566	0.2872314453125
2544.54597057564	0.286590576171875
2544.55597057561	0.285919189453125
2544.56597057559	0.285247802734375
2544.57597057556	0.28460693359375
2544.58597057554	0.283935546875
2544.59597057551	0.283294677734375
2544.60597057549	0.282623291015625
2544.61597057546	0.281951904296875
2544.62597057544	0.28131103515625
2544.63597057541	0.280670166015625
2544.64597057539	0.279998779296875
2544.65597057536	0.27935791015625
2544.66597057534	0.2786865234375
2544.67597057531	0.27801513671875
2544.68597057529	0.277374267578125
2544.69597057526	0.276702880859375
2544.70597057523	0.276031494140625
2544.71597057521	0.275360107421875
2544.72597057518	0.274688720703125
2544.73597057516	0.274017333984375
2544.74597057513	0.273345947265625
2544.75597057511	0.272674560546875
2544.76597057508	0.272003173828125
2544.77597057506	0.271331787109375
2544.78597057503	0.270660400390625
2544.79597057501	0.26995849609375
2544.80597057498	0.269287109375
2544.81597057496	0.268585205078125
2544.82597057493	0.267913818359375
2544.83597057491	0.2672119140625
2544.84597057488	0.266510009765625
2544.85597057486	0.265838623046875
2544.86597057483	0.265167236328125
2544.87597057481	0.26446533203125
2544.88597057478	0.263763427734375
2544.89597057476	0.2630615234375
2544.90597057473	0.2623291015625
2544.9159705747	0.261627197265625
2544.92597057468	0.260894775390625
2544.93597057465	0.26019287109375
2544.94597057463	0.25946044921875
2544.9559705746	0.25872802734375
2544.96597057458	0.258026123046875
2544.97597057455	0.257293701171875
2544.98597057453	0.256561279296875
2544.9959705745	0.255828857421875
2545.00597057448	0.255096435546875
2545.01597057445	0.25433349609375
2545.02597057443	0.25360107421875
2545.0359705744	0.25286865234375
2545.04597057438	0.252105712890625
2545.05597057435	0.2513427734375
2545.06597057433	0.2506103515625
2545.0759705743	0.2498779296875
2545.08597057428	0.249114990234375
2545.09597057425	0.24835205078125
2545.10597057423	0.247589111328125
2545.1159705742	0.246826171875
2545.12597057417	0.246063232421875
2545.13597057415	0.245269775390625
2545.14597057412	0.2445068359375
2545.1559705741	0.243743896484375
2545.16597057407	0.242950439453125
2545.17597057405	0.2421875
2545.18597057402	0.241424560546875
2545.195970574	0.240631103515625
2545.20597057397	0.2398681640625
2545.21597057395	0.23907470703125
2545.22597057392	0.23828125
2545.2359705739	0.23748779296875
2545.24597057387	0.2366943359375
2545.25597057385	0.23590087890625
2545.26597057382	0.235137939453125
2545.2759705738	0.234344482421875
2545.28597057377	0.23358154296875
2545.29597057375	0.2327880859375
2545.30597057372	0.23199462890625
2545.31597057369	0.231170654296875
2545.32597057367	0.230377197265625
2545.33597057364	0.229583740234375
2545.34597057362	0.228790283203125
2545.35597057359	0.22796630859375
2545.36597057357	0.2271728515625
2545.37597057354	0.22637939453125
2545.38597057352	0.2255859375
2545.39597057349	0.224761962890625
2545.40597057347	0.223968505859375
2545.41597057344	0.22314453125
2545.42597057342	0.22235107421875
2545.43597057339	0.221527099609375
2545.44597057337	0.220733642578125
2545.45597057334	0.21990966796875
2545.46597057332	0.219085693359375
2545.47597057329	0.21832275390625
2545.48597057327	0.217498779296875
2545.49597057324	0.2166748046875
2545.50597057322	0.21588134765625
2545.51597057319	0.215057373046875
2545.52597057316	0.2142333984375
2545.53597057314	0.213409423828125
2545.54597057311	0.212615966796875
2545.55597057309	0.2117919921875
2545.56597057306	0.210968017578125
2545.57597057304	0.21014404296875
2545.58597057301	0.2093505859375
2545.59597057299	0.208526611328125
2545.60597057296	0.20770263671875
2545.61597057294	0.206878662109375
2545.62597057291	0.2060546875
2545.63597057289	0.205230712890625
2545.64597057286	0.20440673828125
2545.65597057284	0.203582763671875
2545.66597057281	0.202789306640625
2545.67597057279	0.20196533203125
2545.68597057276	0.201141357421875
2545.69597057274	0.2003173828125
2545.70597057271	0.199493408203125
2545.71597057268	0.19866943359375
2545.72597057266	0.197845458984375
2545.73597057263	0.197021484375
2545.74597057261	0.1961669921875
2545.75597057258	0.195343017578125
2545.76597057256	0.19451904296875
2545.77597057253	0.193695068359375
2545.78597057251	0.19287109375
2545.79597057248	0.192047119140625
2545.80597057246	0.191192626953125
2545.81597057243	0.19036865234375
2545.82597057241	0.189544677734375
2545.83597057238	0.188690185546875
2545.84597057236	0.1878662109375
2545.85597057233	0.187042236328125
2545.86597057231	0.18621826171875
2545.87597057228	0.18536376953125
2545.88597057226	0.184539794921875
2545.89597057223	0.1837158203125
2545.90597057221	0.182861328125
2545.91597057218	0.182037353515625
2545.92597057215	0.181182861328125
2545.93597057213	0.180328369140625
2545.9459705721	0.17950439453125
2545.95597057208	0.178680419921875
2545.96597057205	0.177825927734375
2545.97597057203	0.177001953125
2545.985970572	0.1761474609375
2545.99597057198	0.17529296875
2546.00597057195	0.1744384765625
2546.01597057193	0.173614501953125
2546.0259705719	0.172760009765625
2546.03597057188	0.17193603515625
2546.04597057185	0.171112060546875
2546.05597057183	0.170257568359375
2546.0659705718	0.169403076171875
2546.07597057178	0.168548583984375
2546.08597057175	0.167694091796875
2546.09597057173	0.166839599609375
2546.1059705717	0.165985107421875
2546.11597057168	0.165130615234375
