Time (s)	WE(1).Potential (V)
2263.38946228549	0.061981201171875
2263.39946228547	0.062713623046875
2263.40946228544	0.0634765625
2263.41946228542	0.064239501953125
2263.42946228539	0.06500244140625
2263.43946228536	0.065765380859375
2263.44946228534	0.0665283203125
2263.45946228531	0.0672607421875
2263.46946228529	0.068023681640625
2263.47946228526	0.068756103515625
2263.48946228524	0.06951904296875
2263.49946228521	0.07025146484375
2263.50946228519	0.071014404296875
2263.51946228516	0.071746826171875
2263.52946228514	0.072479248046875
2263.53946228511	0.0732421875
2263.54946228509	0.073974609375
2263.55946228506	0.07470703125
2263.56946228504	0.075439453125
2263.57946228501	0.076171875
2263.58946228499	0.076934814453125
2263.59946228496	0.077667236328125
2263.60946228494	0.078369140625
2263.61946228491	0.079071044921875
2263.62946228488	0.079803466796875
2263.63946228486	0.080535888671875
2263.64946228483	0.081268310546875
2263.65946228481	0.082000732421875
2263.66946228478	0.082733154296875
2263.67946228476	0.08343505859375
2263.68946228473	0.08416748046875
2263.69946228471	0.08489990234375
2263.70946228468	0.085601806640625
2263.71946228466	0.086334228515625
2263.72946228463	0.0870361328125
2263.73946228461	0.0877685546875
2263.74946228458	0.088470458984375
2263.75946228456	0.08917236328125
2263.76946228453	0.08990478515625
2263.77946228451	0.090606689453125
2263.78946228448	0.09130859375
2263.79946228446	0.092041015625
2263.80946228443	0.092742919921875
2263.81946228441	0.09344482421875
2263.82946228438	0.094146728515625
2263.83946228435	0.094818115234375
2263.84946228433	0.095550537109375
2263.8594622843	0.09625244140625
2263.86946228428	0.096954345703125
2263.87946228425	0.09765625
2263.88946228423	0.098358154296875
2263.8994622842	0.09906005859375
2263.90946228418	0.0997314453125
2263.91946228415	0.100433349609375
2263.92946228413	0.10113525390625
2263.9394622841	0.101806640625
2263.94946228408	0.102508544921875
2263.95946228405	0.10321044921875
2263.96946228403	0.1038818359375
2263.979462284	0.104583740234375
2263.98946228398	0.105255126953125
2263.99946228395	0.10595703125
2264.00946228393	0.10662841796875
2264.0194622839	0.107330322265625
2264.02946228388	0.108001708984375
2264.03946228385	0.10870361328125
2264.04946228382	0.109344482421875
2264.0594622838	0.110015869140625
2264.06946228377	0.110687255859375
2264.07946228375	0.111358642578125
2264.08946228372	0.112030029296875
2264.0994622837	0.11273193359375
2264.10946228367	0.1134033203125
2264.11946228365	0.11407470703125
2264.12946228362	0.11474609375
2264.1394622836	0.11541748046875
2264.14946228357	0.1160888671875
2264.15946228355	0.11676025390625
2264.16946228352	0.117401123046875
2264.1794622835	0.118072509765625
2264.18946228347	0.118743896484375
2264.19946228345	0.119415283203125
2264.20946228342	0.12005615234375
2264.2194622834	0.1207275390625
2264.22946228337	0.12139892578125
2264.23946228334	0.122039794921875
2264.24946228332	0.122711181640625
2264.25946228329	0.12335205078125
2264.26946228327	0.1240234375
2264.27946228324	0.124664306640625
2264.28946228322	0.12530517578125
2264.29946228319	0.125946044921875
2264.30946228317	0.126617431640625
2264.31946228314	0.12725830078125
2264.32946228312	0.127899169921875
2264.33946228309	0.128570556640625
2264.34946228307	0.12921142578125
2264.35946228304	0.129852294921875
2264.36946228302	0.1304931640625
2264.37946228299	0.131134033203125
2264.38946228297	0.13177490234375
2264.39946228294	0.132415771484375
2264.40946228292	0.133056640625
2264.41946228289	0.133697509765625
2264.42946228287	0.13433837890625
2264.43946228284	0.134979248046875
2264.44946228281	0.1356201171875
2264.45946228279	0.13623046875
2264.46946228276	0.136871337890625
2264.47946228274	0.13751220703125
2264.48946228271	0.138153076171875
2264.49946228269	0.1387939453125
2264.50946228266	0.139404296875
2264.51946228264	0.140045166015625
2264.52946228261	0.140655517578125
2264.53946228259	0.141265869140625
2264.54946228256	0.141876220703125
2264.55946228254	0.14251708984375
2264.56946228251	0.14312744140625
2264.57946228249	0.143768310546875
2264.58946228246	0.144378662109375
2264.59946228244	0.14501953125
2264.60946228241	0.1456298828125
2264.61946228239	0.146240234375
2264.62946228236	0.1468505859375
2264.63946228233	0.147491455078125
2264.64946228231	0.148101806640625
2264.65946228228	0.148712158203125
2264.66946228226	0.149322509765625
2264.67946228223	0.149932861328125
2264.68946228221	0.150543212890625
2264.69946228218	0.151153564453125
2264.70946228216	0.151763916015625
2264.71946228213	0.152374267578125
2264.72946228211	0.152984619140625
2264.73946228208	0.153594970703125
2264.74946228206	0.154205322265625
2264.75946228203	0.154815673828125
2264.76946228201	0.1553955078125
2264.77946228198	0.156005859375
2264.78946228196	0.156585693359375
2264.79946228193	0.157196044921875
2264.80946228191	0.15777587890625
2264.81946228188	0.15838623046875
2264.82946228186	0.15899658203125
2264.83946228183	0.159576416015625
2264.8494622818	0.160186767578125
2264.85946228178	0.1607666015625
2264.86946228175	0.161376953125
2264.87946228173	0.161956787109375
2264.8894622817	0.162567138671875
2264.89946228168	0.16314697265625
2264.90946228165	0.163726806640625
2264.91946228163	0.164306640625
2264.9294622816	0.164886474609375
2264.93946228158	0.165496826171875
2264.94946228155	0.16607666015625
2264.95946228153	0.166656494140625
2264.9694622815	0.167236328125
2264.97946228148	0.167816162109375
2264.98946228145	0.168426513671875
2264.99946228143	0.16900634765625
2265.0094622814	0.169586181640625
2265.01946228138	0.170166015625
2265.02946228135	0.170745849609375
2265.03946228133	0.17132568359375
2265.0494622813	0.171875
2265.05946228127	0.17242431640625
2265.06946228125	0.173004150390625
2265.07946228122	0.173583984375
2265.0894622812	0.17413330078125
2265.09946228117	0.174713134765625
2265.10946228115	0.17529296875
2265.11946228112	0.17584228515625
2265.1294622811	0.176422119140625
2265.13946228107	0.177001953125
2265.14946228105	0.17755126953125
2265.15946228102	0.178131103515625
2265.169462281	0.178680419921875
2265.17946228097	0.17926025390625
2265.18946228095	0.1798095703125
2265.19946228092	0.18035888671875
2265.2094622809	0.180908203125
2265.21946228087	0.181488037109375
2265.22946228085	0.182037353515625
2265.23946228082	0.182586669921875
2265.24946228079	0.183135986328125
2265.25946228077	0.183685302734375
2265.26946228074	0.18426513671875
2265.27946228072	0.184814453125
2265.28946228069	0.18536376953125
2265.29946228067	0.1859130859375
2265.30946228064	0.18646240234375
2265.31946228062	0.18701171875
2265.32946228059	0.187530517578125
2265.33946228057	0.188079833984375
2265.34946228054	0.188629150390625
2265.35946228052	0.18914794921875
2265.36946228049	0.189697265625
2265.37946228047	0.19024658203125
2265.38946228044	0.1907958984375
2265.39946228042	0.191314697265625
2265.40946228039	0.191864013671875
2265.41946228037	0.1923828125
2265.42946228034	0.19293212890625
2265.43946228032	0.193450927734375
2265.44946228029	0.194000244140625
2265.45946228026	0.19451904296875
2265.46946228024	0.195068359375
2265.47946228021	0.195587158203125
2265.48946228019	0.19610595703125
2265.49946228016	0.196624755859375
2265.50946228014	0.1971435546875
2265.51946228011	0.19769287109375
2265.52946228009	0.198211669921875
2265.53946228006	0.19873046875
2265.54946228004	0.199249267578125
2265.55946228001	0.19976806640625
2265.56946227999	0.200286865234375
2265.57946227996	0.2008056640625
2265.58946227994	0.201324462890625
2265.59946227991	0.20184326171875
2265.60946227989	0.202362060546875
2265.61946227986	0.202850341796875
2265.62946227984	0.203338623046875
2265.63946227981	0.203857421875
2265.64946227978	0.204345703125
2265.65946227976	0.204864501953125
2265.66946227973	0.20538330078125
2265.67946227971	0.20587158203125
2265.68946227968	0.206390380859375
2265.69946227966	0.206878662109375
2265.70946227963	0.2073974609375
2265.71946227961	0.2078857421875
2265.72946227958	0.2083740234375
2265.73946227956	0.208892822265625
2265.74946227953	0.209381103515625
2265.75946227951	0.209869384765625
2265.76946227948	0.21038818359375
2265.77946227946	0.21087646484375
2265.78946227943	0.21136474609375
2265.79946227941	0.21185302734375
2265.80946227938	0.21234130859375
2265.81946227936	0.21282958984375
2265.82946227933	0.21331787109375
2265.83946227931	0.21380615234375
2265.84946227928	0.21429443359375
2265.85946227925	0.21478271484375
2265.86946227923	0.21527099609375
2265.8794622792	0.21575927734375
2265.88946227918	0.21624755859375
2265.89946227915	0.21673583984375
2265.90946227913	0.217193603515625
2265.9194622791	0.217681884765625
2265.92946227908	0.218170166015625
2265.93946227905	0.2186279296875
2265.94946227903	0.219085693359375
2265.959462279	0.219573974609375
2265.96946227898	0.22003173828125
2265.97946227895	0.22052001953125
2265.98946227893	0.220977783203125
2265.9994622789	0.221466064453125
2266.00946227888	0.221923828125
2266.01946227885	0.222412109375
2266.02946227883	0.222869873046875
2266.0394622788	0.22332763671875
2266.04946227878	0.22381591796875
2266.05946227875	0.224273681640625
2266.06946227872	0.2247314453125
2266.0794622787	0.2252197265625
2266.08946227867	0.225677490234375
2266.09946227865	0.22613525390625
2266.10946227862	0.226593017578125
2266.1194622786	0.22705078125
2266.12946227857	0.227508544921875
2266.13946227855	0.22796630859375
2266.14946227852	0.228424072265625
2266.1594622785	0.2288818359375
2266.16946227847	0.229339599609375
2266.17946227845	0.22979736328125
2266.18946227842	0.230224609375
2266.1994622784	0.230682373046875
2266.20946227837	0.23114013671875
2266.21946227835	0.231597900390625
2266.22946227832	0.2320556640625
2266.2394622783	0.23248291015625
2266.24946227827	0.232940673828125
2266.25946227824	0.2333984375
2266.26946227822	0.23382568359375
2266.27946227819	0.234283447265625
2266.28946227817	0.23468017578125
2266.29946227814	0.235107421875
2266.30946227812	0.235565185546875
2266.31946227809	0.235992431640625
2266.32946227807	0.2364501953125
2266.33946227804	0.23687744140625
2266.34946227802	0.2373046875
2266.35946227799	0.23773193359375
2266.36946227797	0.238189697265625
2266.37946227794	0.238616943359375
2266.38946227792	0.239044189453125
2266.39946227789	0.239471435546875
2266.40946227787	0.239898681640625
2266.41946227784	0.2403564453125
2266.42946227782	0.24078369140625
2266.43946227779	0.2412109375
2266.44946227777	0.24163818359375
2266.45946227774	0.2420654296875
2266.46946227771	0.242462158203125
2266.47946227769	0.242889404296875
2266.48946227766	0.243316650390625
2266.49946227764	0.243743896484375
2266.50946227761	0.244171142578125
2266.51946227759	0.24456787109375
2266.52946227756	0.2449951171875
2266.53946227754	0.24542236328125
2266.54946227751	0.245819091796875
2266.55946227749	0.246246337890625
2266.56946227746	0.246673583984375
2266.57946227744	0.2470703125
2266.58946227741	0.24749755859375
2266.59946227739	0.247894287109375
2266.60946227736	0.248321533203125
2266.61946227734	0.24871826171875
2266.62946227731	0.2491455078125
2266.63946227729	0.249542236328125
2266.64946227726	0.24993896484375
2266.65946227723	0.250335693359375
2266.66946227721	0.250732421875
2266.67946227718	0.251129150390625
2266.68946227716	0.251556396484375
2266.69946227713	0.251953125
2266.70946227711	0.252349853515625
2266.71946227708	0.25274658203125
2266.72946227706	0.253143310546875
2266.73946227703	0.2535400390625
2266.74946227701	0.25396728515625
2266.75946227698	0.254364013671875
2266.76946227696	0.2547607421875
2266.77946227693	0.255157470703125
2266.78946227691	0.25555419921875
2266.79946227688	0.255950927734375
2266.80946227686	0.25634765625
2266.81946227683	0.256744384765625
2266.82946227681	0.25714111328125
2266.83946227678	0.257537841796875
2266.84946227676	0.257904052734375
2266.85946227673	0.25830078125
2266.8694622767	0.258697509765625
2266.87946227668	0.25909423828125
2266.88946227665	0.259490966796875
2266.89946227663	0.259857177734375
2266.9094622766	0.26025390625
2266.91946227658	0.260650634765625
2266.92946227655	0.26104736328125
2266.93946227653	0.26141357421875
2266.9494622765	0.261810302734375
2266.95946227648	0.26220703125
2266.96946227645	0.2625732421875
2266.97946227643	0.262969970703125
2266.9894622764	0.263336181640625
2266.99946227638	0.26373291015625
2267.00946227635	0.264129638671875
2267.01946227633	0.264495849609375
2267.0294622763	0.264892578125
2267.03946227628	0.2652587890625
2267.04946227625	0.265625
2267.05946227623	0.2659912109375
2267.0694622762	0.266357421875
2267.07946227617	0.266754150390625
2267.08946227615	0.267120361328125
2267.09946227612	0.267486572265625
2267.1094622761	0.26788330078125
2267.11946227607	0.26824951171875
2267.12946227605	0.26861572265625
2267.13946227602	0.26898193359375
2267.149462276	0.269378662109375
2267.15946227597	0.269744873046875
2267.16946227595	0.270111083984375
2267.17946227592	0.2705078125
2267.1894622759	0.2708740234375
2267.19946227587	0.271240234375
2267.20946227585	0.2716064453125
2267.21946227582	0.27197265625
2267.2294622758	0.2723388671875
2267.23946227577	0.272705078125
2267.24946227575	0.2730712890625
2267.25946227572	0.2734375
2267.26946227569	0.2738037109375
2267.27946227567	0.274169921875
2267.28946227564	0.2745361328125
2267.29946227562	0.27490234375
2267.30946227559	0.2752685546875
2267.31946227557	0.275634765625
2267.32946227554	0.2760009765625
2267.33946227552	0.2763671875
2267.34946227549	0.2767333984375
2267.35946227547	0.277099609375
2267.36946227544	0.2774658203125
2267.37946227542	0.277801513671875
2267.38946227539	0.278167724609375
2267.39946227537	0.278533935546875
2267.40946227534	0.278900146484375
2267.41946227532	0.279266357421875
2267.42946227529	0.279632568359375
2267.43946227527	0.27996826171875
2267.44946227524	0.28033447265625
2267.45946227522	0.28070068359375
2267.46946227519	0.28106689453125
2267.47946227516	0.281402587890625
2267.48946227514	0.28173828125
2267.49946227511	0.2821044921875
2267.50946227509	0.282470703125
2267.51946227506	0.282806396484375
2267.52946227504	0.283172607421875
2267.53946227501	0.283538818359375
2267.54946227499	0.28387451171875
2267.55946227496	0.28424072265625
2267.56946227494	0.284576416015625
2267.57946227491	0.284942626953125
2267.58946227489	0.285308837890625
2267.59946227486	0.285675048828125
2267.60946227484	0.2860107421875
2267.61946227481	0.286376953125
2267.62946227479	0.286712646484375
2267.63946227476	0.287078857421875
2267.64946227474	0.287445068359375
2267.65946227471	0.28778076171875
2267.66946227468	0.28814697265625
2267.67946227466	0.28851318359375
2267.68946227463	0.288848876953125
2267.69946227461	0.289215087890625
2267.70946227458	0.28955078125
2267.71946227456	0.2899169921875
2267.72946227453	0.290252685546875
2267.73946227451	0.290618896484375
2267.74946227448	0.29095458984375
2267.75946227446	0.29132080078125
2267.76946227443	0.29168701171875
2267.77946227441	0.292022705078125
2267.78946227438	0.292388916015625
2267.79946227436	0.292755126953125
2267.80946227433	0.2930908203125
2267.81946227431	0.29345703125
2267.82946227428	0.2938232421875
2267.83946227426	0.294158935546875
2267.84946227423	0.294525146484375
2267.85946227421	0.29486083984375
2267.86946227418	0.29522705078125
2267.87946227415	0.29559326171875
2267.88946227413	0.295928955078125
2267.8994622741	0.296295166015625
2267.90946227408	0.296661376953125
2267.91946227405	0.296966552734375
2267.92946227403	0.297332763671875
2267.939462274	0.297698974609375
2267.94946227398	0.29803466796875
2267.95946227395	0.29840087890625
2267.96946227393	0.29876708984375
2267.9794622739	0.299102783203125
2267.98946227388	0.299468994140625
2267.99946227385	0.299835205078125
2268.00946227383	0.3001708984375
2268.0194622738	0.300537109375
2268.02946227378	0.3009033203125
2268.03946227375	0.30126953125
2268.04946227373	0.3016357421875
2268.0594622737	0.301971435546875
2268.06946227368	0.302337646484375
2268.07946227365	0.302703857421875
2268.08946227362	0.303070068359375
2268.0994622736	0.303436279296875
2268.10946227357	0.303802490234375
2268.11946227355	0.304168701171875
2268.12946227352	0.30450439453125
2268.1394622735	0.30487060546875
2268.14946227347	0.30523681640625
2268.15946227345	0.30560302734375
2268.16946227342	0.30596923828125
2268.1794622734	0.306304931640625
2268.18946227337	0.306671142578125
2268.19946227335	0.307037353515625
2268.20946227332	0.307403564453125
2268.2194622733	0.307769775390625
2268.22946227327	0.308135986328125
2268.23946227325	0.308502197265625
2268.24946227322	0.308868408203125
2268.2594622732	0.309234619140625
2268.26946227317	0.309600830078125
2268.27946227314	0.309967041015625
2268.28946227312	0.310333251953125
2268.29946227309	0.310699462890625
2268.30946227307	0.311065673828125
2268.31946227304	0.311431884765625
2268.32946227302	0.31182861328125
2268.33946227299	0.312164306640625
2268.34946227297	0.312530517578125
2268.35946227294	0.312896728515625
2268.36946227292	0.313262939453125
2268.37946227289	0.313629150390625
2268.38946227287	0.313995361328125
2268.39946227284	0.31439208984375
2268.40946227282	0.31475830078125
2268.41946227279	0.31512451171875
2268.42946227277	0.31549072265625
2268.43946227274	0.31585693359375
2268.44946227272	0.31622314453125
2268.45946227269	0.31658935546875
2268.46946227267	0.316986083984375
2268.47946227264	0.317352294921875
2268.48946227261	0.317718505859375
2268.49946227259	0.318084716796875
2268.50946227256	0.318450927734375
2268.51946227254	0.31884765625
2268.52946227251	0.3192138671875
2268.53946227249	0.319580078125
2268.54946227246	0.3199462890625
2268.55946227244	0.3203125
2268.56946227241	0.320709228515625
2268.57946227239	0.321075439453125
2268.58946227236	0.321441650390625
2268.59946227234	0.321807861328125
2268.60946227231	0.322174072265625
2268.61946227229	0.32257080078125
2268.62946227226	0.32293701171875
2268.63946227224	0.32330322265625
2268.64946227221	0.32366943359375
2268.65946227219	0.324066162109375
2268.66946227216	0.324432373046875
2268.67946227213	0.324798583984375
2268.68946227211	0.3251953125
2268.69946227208	0.3255615234375
2268.70946227206	0.325927734375
2268.71946227203	0.326324462890625
2268.72946227201	0.326690673828125
2268.73946227198	0.327056884765625
2268.74946227196	0.327423095703125
2268.75946227193	0.32781982421875
2268.76946227191	0.328155517578125
2268.77946227188	0.328521728515625
2268.78946227186	0.328887939453125
2268.79946227183	0.32928466796875
2268.80946227181	0.32965087890625
2268.81946227178	0.33001708984375
2268.82946227176	0.330413818359375
2268.83946227173	0.330780029296875
2268.84946227171	0.331146240234375
2268.85946227168	0.33154296875
2268.86946227166	0.3319091796875
2268.87946227163	0.332275390625
2268.8894622716	0.332672119140625
2268.89946227158	0.333038330078125
2268.90946227155	0.333404541015625
2268.91946227153	0.333770751953125
2268.9294622715	0.33416748046875
2268.93946227148	0.33453369140625
2268.94946227145	0.33489990234375
2268.95946227143	0.335296630859375
2268.9694622714	0.335662841796875
2268.97946227138	0.336029052734375
2268.98946227135	0.336395263671875
2268.99946227133	0.3367919921875
2269.0094622713	0.337158203125
2269.01946227128	0.3375244140625
2269.02946227125	0.337890625
2269.03946227123	0.338287353515625
2269.0494622712	0.338653564453125
2269.05946227118	0.339019775390625
2269.06946227115	0.33941650390625
2269.07946227113	0.33978271484375
2269.0894622711	0.34014892578125
2269.09946227107	0.340545654296875
2269.10946227105	0.340911865234375
2269.11946227102	0.341278076171875
2269.129462271	0.341644287109375
2269.13946227097	0.342041015625
2269.14946227095	0.3424072265625
2269.15946227092	0.3427734375
2269.1694622709	0.3431396484375
2269.17946227087	0.343536376953125
2269.18946227085	0.3438720703125
2269.19946227082	0.34423828125
2269.2094622708	0.3446044921875
2269.21946227077	0.345001220703125
2269.22946227075	0.345367431640625
2269.23946227072	0.345733642578125
2269.2494622707	0.346099853515625
2269.25946227067	0.34649658203125
2269.26946227065	0.34686279296875
2269.27946227062	0.34722900390625
2269.28946227059	0.34759521484375
2269.29946227057	0.347991943359375
2269.30946227054	0.348358154296875
2269.31946227052	0.348724365234375
2269.32946227049	0.349090576171875
2269.33946227047	0.349456787109375
2269.34946227044	0.349822998046875
2269.35946227042	0.3502197265625
2269.36946227039	0.3505859375
2269.37946227037	0.3509521484375
2269.38946227034	0.351318359375
2269.39946227032	0.3516845703125
2269.40946227029	0.35205078125
2269.41946227027	0.3524169921875
2269.42946227024	0.352783203125
2269.43946227022	0.353179931640625
2269.44946227019	0.353546142578125
2269.45946227017	0.353912353515625
2269.46946227014	0.354278564453125
2269.47946227012	0.354644775390625
2269.48946227009	0.355010986328125
2269.49946227006	0.355377197265625
2269.50946227004	0.35577392578125
2269.51946227001	0.35614013671875
2269.52946226999	0.35650634765625
2269.53946226996	0.35687255859375
2269.54946226994	0.35723876953125
2269.55946226991	0.35760498046875
2269.56946226989	0.35797119140625
2269.57946226986	0.358367919921875
2269.58946226984	0.358734130859375
2269.59946226981	0.359100341796875
2269.60946226979	0.35943603515625
2269.61946226976	0.35980224609375
2269.62946226974	0.36016845703125
2269.63946226971	0.36053466796875
2269.64946226969	0.36090087890625
2269.65946226966	0.36126708984375
2269.66946226964	0.36163330078125
2269.67946226961	0.36199951171875
2269.68946226958	0.36236572265625
2269.69946226956	0.36273193359375
2269.70946226953	0.363128662109375
2269.71946226951	0.363494873046875
2269.72946226948	0.363861083984375
2269.73946226946	0.364227294921875
2269.74946226943	0.364593505859375
2269.75946226941	0.364959716796875
2269.76946226938	0.365325927734375
2269.77946226936	0.365692138671875
2269.78946226933	0.366058349609375
2269.79946226931	0.366424560546875
2269.80946226928	0.366790771484375
2269.81946226926	0.3671875
2269.82946226923	0.367523193359375
2269.83946226921	0.367889404296875
2269.84946226918	0.368255615234375
2269.85946226916	0.368621826171875
2269.86946226913	0.3690185546875
2269.87946226911	0.369384765625
2269.88946226908	0.3697509765625
2269.89946226905	0.3701171875
2269.90946226903	0.3704833984375
2269.919462269	0.370849609375
2269.92946226898	0.3712158203125
2269.93946226895	0.37158203125
2269.94946226893	0.3719482421875
2269.9594622689	0.372344970703125
2269.96946226888	0.372711181640625
2269.97946226885	0.373077392578125
2269.98946226883	0.373443603515625
2269.9994622688	0.373809814453125
2270.00946226878	0.374176025390625
2270.01946226875	0.374542236328125
2270.02946226873	0.374908447265625
2270.0394622687	0.375244140625
2270.04946226868	0.375640869140625
2270.05946226865	0.376007080078125
2270.06946226863	0.376373291015625
2270.0794622686	0.376739501953125
2270.08946226858	0.377105712890625
2270.09946226855	0.377471923828125
2270.10946226852	0.377838134765625
2270.1194622685	0.378204345703125
2270.12946226847	0.378570556640625
2270.13946226845	0.37896728515625
2270.14946226842	0.37933349609375
2270.1594622684	0.37969970703125
2270.16946226837	0.38006591796875
2270.17946226835	0.38043212890625
2270.18946226832	0.38079833984375
2270.1994622683	0.38116455078125
2270.20946226827	0.38153076171875
2270.21946226825	0.381927490234375
2270.22946226822	0.382293701171875
2270.2394622682	0.382659912109375
2270.24946226817	0.38299560546875
2270.25946226815	0.383392333984375
2270.26946226812	0.383758544921875
2270.2794622681	0.384124755859375
2270.28946226807	0.384490966796875
2270.29946226804	0.384857177734375
2270.30946226802	0.385223388671875
2270.31946226799	0.385589599609375
2270.32946226797	0.385986328125
2270.33946226794	0.3863525390625
2270.34946226792	0.38671875
2270.35946226789	0.3870849609375
2270.36946226787	0.387451171875
2270.37946226784	0.3878173828125
2270.38946226782	0.38818359375
2270.39946226779	0.388580322265625
2270.40946226777	0.388946533203125
2270.41946226774	0.389312744140625
2270.42946226772	0.389678955078125
2270.43946226769	0.390045166015625
2270.44946226767	0.390411376953125
2270.45946226764	0.3907470703125
2270.46946226762	0.39111328125
2270.47946226759	0.3914794921875
2270.48946226757	0.391845703125
2270.49946226754	0.392242431640625
2270.50946226751	0.392608642578125
2270.51946226749	0.392974853515625
2270.52946226746	0.393341064453125
2270.53946226744	0.393707275390625
2270.54946226741	0.39410400390625
2270.55946226739	0.39447021484375
2270.56946226736	0.39483642578125
2270.57946226734	0.39520263671875
2270.58946226731	0.39556884765625
2270.59946226729	0.39593505859375
2270.60946226726	0.39630126953125
2270.61946226724	0.396697998046875
2270.62946226721	0.397064208984375
2270.63946226719	0.397430419921875
2270.64946226716	0.397796630859375
2270.65946226714	0.398162841796875
2270.66946226711	0.398529052734375
2270.67946226709	0.398895263671875
2270.68946226706	0.399261474609375
2270.69946226703	0.399627685546875
2270.70946226701	0.4000244140625
2270.71946226698	0.400390625
2270.72946226696	0.4007568359375
2270.73946226693	0.401123046875
2270.74946226691	0.4014892578125
2270.75946226688	0.40185546875
2270.76946226686	0.4022216796875
2270.77946226683	0.402618408203125
2270.78946226681	0.402984619140625
2270.79946226678	0.403350830078125
2270.80946226676	0.403717041015625
2270.81946226673	0.404083251953125
2270.82946226671	0.404449462890625
2270.83946226668	0.40484619140625
2270.84946226666	0.40521240234375
2270.85946226663	0.40557861328125
2270.86946226661	0.40594482421875
2270.87946226658	0.406280517578125
2270.88946226656	0.406646728515625
2270.89946226653	0.407012939453125
2270.9094622665	0.407379150390625
2270.91946226648	0.40777587890625
2270.92946226645	0.40814208984375
2270.93946226643	0.40850830078125
2270.9494622664	0.40887451171875
2270.95946226638	0.40924072265625
2270.96946226635	0.40960693359375
2270.97946226633	0.40997314453125
2270.9894622663	0.41033935546875
2270.99946226628	0.41070556640625
2271.00946226625	0.41107177734375
2271.01946226623	0.411468505859375
2271.0294622662	0.411834716796875
2271.03946226618	0.412200927734375
2271.04946226615	0.412567138671875
2271.05946226613	0.412933349609375
2271.0694622661	0.413299560546875
2271.07946226608	0.413665771484375
2271.08946226605	0.414031982421875
2271.09946226603	0.414398193359375
2271.109462266	0.414764404296875
2271.11946226597	0.415130615234375
2271.12946226595	0.415496826171875
2271.13946226592	0.415863037109375
2271.1494622659	0.416229248046875
2271.15946226587	0.416595458984375
2271.16946226585	0.416961669921875
2271.17946226582	0.417327880859375
2271.1894622658	0.417694091796875
2271.19946226577	0.418060302734375
2271.20946226575	0.418426513671875
2271.21946226572	0.418792724609375
2271.2294622657	0.419158935546875
2271.23946226567	0.419525146484375
2271.24946226565	0.419891357421875
2271.25946226562	0.420257568359375
2271.2694622656	0.420623779296875
2271.27946226557	0.420989990234375
2271.28946226555	0.421356201171875
2271.29946226552	0.421722412109375
2271.30946226549	0.42205810546875
2271.31946226547	0.42242431640625
2271.32946226544	0.42279052734375
2271.33946226542	0.42315673828125
2271.34946226539	0.42352294921875
2271.35946226537	0.42388916015625
2271.36946226534	0.42425537109375
2271.37946226532	0.42462158203125
2271.38946226529	0.42498779296875
2271.39946226527	0.42535400390625
2271.40946226524	0.42572021484375
2271.41946226522	0.42608642578125
2271.42946226519	0.42645263671875
2271.43946226517	0.42681884765625
2271.44946226514	0.42718505859375
2271.45946226512	0.42755126953125
2271.46946226509	0.42791748046875
2271.47946226507	0.42828369140625
2271.48946226504	0.42864990234375
2271.49946226502	0.42901611328125
2271.50946226499	0.42938232421875
2271.51946226496	0.429718017578125
2271.52946226494	0.430084228515625
2271.53946226491	0.430450439453125
2271.54946226489	0.430816650390625
2271.55946226486	0.431182861328125
2271.56946226484	0.431549072265625
2271.57946226481	0.431915283203125
2271.58946226479	0.432281494140625
2271.59946226476	0.432647705078125
2271.60946226474	0.433013916015625
2271.61946226471	0.433380126953125
2271.62946226469	0.433746337890625
2271.63946226466	0.434112548828125
2271.64946226464	0.434478759765625
2271.65946226461	0.434844970703125
2271.66946226459	0.435211181640625
2271.67946226456	0.435577392578125
2271.68946226454	0.435943603515625
2271.69946226451	0.436309814453125
2271.70946226448	0.436676025390625
2271.71946226446	0.437042236328125
2271.72946226443	0.437408447265625
2271.73946226441	0.437774658203125
2271.74946226438	0.438140869140625
2271.75946226436	0.438507080078125
2271.76946226433	0.438873291015625
2271.77946226431	0.439239501953125
2271.78946226428	0.439605712890625
2271.79946226426	0.439971923828125
2271.80946226423	0.440338134765625
2271.81946226421	0.440704345703125
2271.82946226418	0.441070556640625
2271.83946226416	0.441436767578125
2271.84946226413	0.441802978515625
2271.85946226411	0.442169189453125
2271.86946226408	0.442535400390625
2271.87946226406	0.442901611328125
2271.88946226403	0.443267822265625
2271.89946226401	0.443634033203125
2271.90946226398	0.444000244140625
2271.91946226395	0.444366455078125
2271.92946226393	0.444732666015625
2271.9394622639	0.445098876953125
2271.94946226388	0.445465087890625
2271.95946226385	0.445831298828125
2271.96946226383	0.446197509765625
2271.9794622638	0.446563720703125
2271.98946226378	0.446929931640625
2271.99946226375	0.447296142578125
2272.00946226373	0.447662353515625
2272.0194622637	0.448028564453125
2272.02946226368	0.448394775390625
2272.03946226365	0.448760986328125
2272.04946226363	0.449127197265625
2272.0594622636	0.449493408203125
2272.06946226358	0.449859619140625
2272.07946226355	0.45025634765625
2272.08946226353	0.45062255859375
2272.0994622635	0.45098876953125
2272.10946226348	0.45135498046875
2272.11946226345	0.45172119140625
2272.12946226342	0.45208740234375
2272.1394622634	0.45245361328125
2272.14946226337	0.45281982421875
2272.15946226335	0.45318603515625
2272.16946226332	0.453521728515625
2272.1794622633	0.453887939453125
2272.18946226327	0.454254150390625
2272.19946226325	0.45465087890625
2272.20946226322	0.45501708984375
2272.2194622632	0.45538330078125
2272.22946226317	0.45574951171875
2272.23946226315	0.45611572265625
2272.24946226312	0.45648193359375
2272.2594622631	0.45684814453125
2272.26946226307	0.45721435546875
2272.27946226305	0.457611083984375
2272.28946226302	0.457977294921875
2272.299462263	0.458343505859375
2272.30946226297	0.458709716796875
2272.31946226294	0.459075927734375
2272.32946226292	0.459442138671875
2272.33946226289	0.4598388671875
2272.34946226287	0.460205078125
2272.35946226284	0.4605712890625
2272.36946226282	0.4609375
2272.37946226279	0.4613037109375
2272.38946226277	0.461669921875
2272.39946226274	0.4620361328125
2272.40946226272	0.46240234375
2272.41946226269	0.4627685546875
2272.42946226267	0.463134765625
2272.43946226264	0.463531494140625
2272.44946226262	0.463897705078125
2272.45946226259	0.464263916015625
2272.46946226257	0.464630126953125
2272.47946226254	0.464996337890625
2272.48946226252	0.46539306640625
2272.49946226249	0.46575927734375
2272.50946226247	0.46612548828125
2272.51946226244	0.46649169921875
2272.52946226241	0.46685791015625
2272.53946226239	0.467254638671875
2272.54946226236	0.467620849609375
2272.55946226234	0.467987060546875
2272.56946226231	0.468353271484375
2272.57946226229	0.468719482421875
2272.58946226226	0.469085693359375
2272.59946226224	0.469451904296875
2272.60946226221	0.469818115234375
2272.61946226219	0.470184326171875
2272.62946226216	0.470550537109375
2272.63946226214	0.470947265625
2272.64946226211	0.4713134765625
2272.65946226209	0.4716796875
2272.66946226206	0.4720458984375
2272.67946226204	0.472442626953125
2272.68946226201	0.472808837890625
2272.69946226199	0.473175048828125
2272.70946226196	0.473541259765625
2272.71946226193	0.47393798828125
2272.72946226191	0.47430419921875
2272.73946226188	0.47467041015625
2272.74946226186	0.475067138671875
2272.75946226183	0.475433349609375
2272.76946226181	0.475799560546875
2272.77946226178	0.476165771484375
2272.78946226176	0.4765625
2272.79946226173	0.4769287109375
2272.80946226171	0.477294921875
2272.81946226168	0.4776611328125
2272.82946226166	0.47802734375
2272.83946226163	0.478424072265625
2272.84946226161	0.478790283203125
2272.85946226158	0.479156494140625
2272.86946226156	0.47955322265625
2272.87946226153	0.47991943359375
2272.88946226151	0.48028564453125
2272.89946226148	0.480682373046875
2272.90946226146	0.481048583984375
2272.91946226143	0.481414794921875
2272.9294622614	0.4818115234375
2272.93946226138	0.482177734375
2272.94946226135	0.4825439453125
2272.95946226133	0.482940673828125
2272.9694622613	0.483306884765625
2272.97946226128	0.483673095703125
2272.98946226125	0.48406982421875
2272.99946226123	0.484405517578125
2273.0094622612	0.484771728515625
2273.01946226118	0.485137939453125
2273.02946226115	0.48553466796875
2273.03946226113	0.48590087890625
2273.0494622611	0.48626708984375
2273.05946226108	0.486663818359375
2273.06946226105	0.487030029296875
2273.07946226103	0.4874267578125
2273.089462261	0.48779296875
2273.09946226098	0.4881591796875
2273.10946226095	0.488555908203125
2273.11946226093	0.488922119140625
2273.1294622609	0.48931884765625
2273.13946226087	0.48968505859375
2273.14946226085	0.49005126953125
2273.15946226082	0.490447998046875
2273.1694622608	0.490814208984375
2273.17946226077	0.4912109375
2273.18946226075	0.4915771484375
2273.19946226072	0.491973876953125
2273.2094622607	0.492340087890625
2273.21946226067	0.492706298828125
2273.22946226065	0.49310302734375
2273.23946226062	0.49346923828125
2273.2494622606	0.49383544921875
2273.25946226057	0.494232177734375
2273.26946226055	0.494598388671875
2273.27946226052	0.4949951171875
2273.2894622605	0.495361328125
2273.29946226047	0.495758056640625
2273.30946226045	0.496124267578125
2273.31946226042	0.49652099609375
2273.32946226039	0.496917724609375
2273.33946226037	0.497283935546875
2273.34946226034	0.497650146484375
2273.35946226032	0.498046875
2273.36946226029	0.498443603515625
2273.37946226027	0.498809814453125
2273.38946226024	0.49920654296875
2273.39946226022	0.49957275390625
2273.40946226019	0.4998779296875
2273.41946226017	0.50018310546875
2273.42946226014	0.50048828125
2273.43946226012	0.5010986328125
2273.44946226009	0.50140380859375
2273.45946226007	0.501708984375
2273.46946226004	0.5023193359375
2273.47946226002	0.50262451171875
2273.48946225999	0.5029296875
2273.49946225997	0.50323486328125
2273.50946225994	0.5035400390625
2273.51946225992	0.504150390625
2273.52946225989	0.50445556640625
2273.53946225986	0.5047607421875
2273.54946225984	0.50537109375
2273.55946225981	0.50567626953125
2273.56946225979	0.5059814453125
2273.57946225976	0.50628662109375
2273.58946225974	0.50689697265625
2273.59946225971	0.5072021484375
2273.60946225969	0.50750732421875
2273.61946225966	0.5078125
2273.62946225964	0.5084228515625
2273.63946225961	0.50872802734375
2273.64946225959	0.509033203125
2273.65946225956	0.5096435546875
2273.66946225954	0.50994873046875
2273.67946225951	0.51025390625
2273.68946225949	0.51055908203125
2273.69946225946	0.5108642578125
2273.70946225944	0.511474609375
2273.71946225941	0.51177978515625
2273.72946225938	0.5120849609375
2273.73946225936	0.5126953125
2273.74946225933	0.51300048828125
2273.75946225931	0.5133056640625
2273.76946225928	0.51361083984375
2273.77946225926	0.51422119140625
2273.78946225923	0.5145263671875
2273.79946225921	0.51483154296875
2273.80946225918	0.51513671875
2273.81946225916	0.5157470703125
2273.82946225913	0.51605224609375
2273.83946225911	0.516357421875
2273.84946225908	0.51666259765625
2273.85946225906	0.51727294921875
2273.86946225903	0.517578125
2273.87946225901	0.51788330078125
2273.88946225898	0.51849365234375
2273.89946225896	0.518798828125
2273.90946225893	0.51910400390625
2273.91946225891	0.5194091796875
2273.92946225888	0.52001953125
2273.93946225885	0.52032470703125
2273.94946225883	0.5206298828125
2273.9594622588	0.52093505859375
2273.96946225878	0.52154541015625
2273.97946225875	0.5218505859375
2273.98946225873	0.52215576171875
2273.9994622587	0.5224609375
2274.00946225868	0.5230712890625
2274.01946225865	0.52337646484375
2274.02946225863	0.523681640625
2274.0394622586	0.5242919921875
2274.04946225858	0.52459716796875
2274.05946225855	0.52490234375
2274.06946225853	0.52520751953125
2274.0794622585	0.52581787109375
2274.08946225848	0.526123046875
2274.09946225845	0.52642822265625
2274.10946225843	0.5267333984375
2274.1194622584	0.52734375
2274.12946225838	0.52764892578125
2274.13946225835	0.5279541015625
2274.14946225832	0.52825927734375
2274.1594622583	0.52886962890625
2274.16946225827	0.5291748046875
2274.17946225825	0.52947998046875
2274.18946225822	0.53009033203125
2274.1994622582	0.5303955078125
2274.20946225817	0.53070068359375
2274.21946225815	0.531005859375
2274.22946225812	0.5316162109375
2274.2394622581	0.53192138671875
2274.24946225807	0.5322265625
2274.25946225805	0.53253173828125
2274.26946225802	0.53314208984375
2274.279462258	0.533447265625
2274.28946225797	0.53375244140625
2274.29946225795	0.53436279296875
2274.30946225792	0.53466796875
2274.3194622579	0.53497314453125
2274.32946225787	0.5352783203125
2274.33946225784	0.535888671875
2274.34946225782	0.53619384765625
2274.35946225779	0.5364990234375
2274.36946225777	0.53680419921875
2274.37946225774	0.53741455078125
2274.38946225772	0.5377197265625
2274.39946225769	0.53802490234375
2274.40946225767	0.53863525390625
2274.41946225764	0.5389404296875
2274.42946225762	0.53924560546875
2274.43946225759	0.53955078125
2274.44946225757	0.53985595703125
2274.45946225754	0.54046630859375
2274.46946225752	0.540771484375
2274.47946225749	0.54107666015625
2274.48946225747	0.54168701171875
2274.49946225744	0.5419921875
2274.50946225742	0.54229736328125
2274.51946225739	0.5426025390625
2274.52946225737	0.543212890625
2274.53946225734	0.54351806640625
2274.54946225731	0.5438232421875
2274.55946225729	0.54412841796875
2274.56946225726	0.54473876953125
2274.57946225724	0.5450439453125
2274.58946225721	0.54534912109375
2274.59946225719	0.54595947265625
2274.60946225716	0.5462646484375
2274.61946225714	0.54656982421875
2274.62946225711	0.546875
2274.63946225709	0.54718017578125
2274.64946225706	0.5474853515625
2274.65946225704	0.548095703125
2274.66946225701	0.54840087890625
2274.67946225699	0.5487060546875
2274.68946225696	0.54931640625
2274.69946225694	0.54962158203125
2274.70946225691	0.5499267578125
2274.71946225689	0.55023193359375
2274.72946225686	0.55084228515625
2274.73946225683	0.5511474609375
2274.74946225681	0.55145263671875
2274.75946225678	0.5517578125
2274.76946225676	0.5523681640625
2274.77946225673	0.55267333984375
2274.78946225671	0.552978515625
2274.79946225668	0.55328369140625
2274.80946225666	0.55389404296875
2274.81946225663	0.55419921875
2274.82946225661	0.55450439453125
2274.83946225658	0.55511474609375
2274.84946225656	0.555419921875
2274.85946225653	0.55572509765625
2274.86946225651	0.5560302734375
2274.87946225648	0.556640625
2274.88946225646	0.55694580078125
2274.89946225643	0.5572509765625
2274.90946225641	0.55755615234375
2274.91946225638	0.55816650390625
2274.92946225636	0.5584716796875
2274.93946225633	0.55877685546875
2274.9494622563	0.55938720703125
2274.95946225628	0.5596923828125
2274.96946225625	0.55999755859375
2274.97946225623	0.560302734375
2274.9894622562	0.5609130859375
2274.99946225618	0.56121826171875
2275.00946225615	0.5615234375
2275.01946225613	0.56182861328125
2275.0294622561	0.56243896484375
2275.03946225608	0.562744140625
2275.04946225605	0.56304931640625
2275.05946225603	0.5633544921875
2275.069462256	0.56396484375
2275.07946225598	0.56427001953125
2275.08946225595	0.5645751953125
2275.09946225593	0.56488037109375
2275.1094622559	0.56549072265625
2275.11946225588	0.5657958984375
2275.12946225585	0.56610107421875
2275.13946225583	0.56671142578125
2275.1494622558	0.5670166015625
2275.15946225577	0.56732177734375
2275.16946225575	0.567626953125
2275.17946225572	0.5682373046875
2275.1894622557	0.56854248046875
2275.19946225567	0.56884765625
2275.20946225565	0.56915283203125
2275.21946225562	0.56976318359375
2275.2294622556	0.570068359375
2275.23946225557	0.57037353515625
2275.24946225555	0.57098388671875
2275.25946225552	0.5712890625
2275.2694622555	0.57159423828125
2275.27946225547	0.5718994140625
2275.28946225545	0.572509765625
2275.29946225542	0.57281494140625
2275.3094622554	0.5731201171875
2275.31946225537	0.57342529296875
2275.32946225535	0.57403564453125
2275.33946225532	0.5743408203125
2275.34946225529	0.57464599609375
2275.35946225527	0.574951171875
2275.36946225524	0.5755615234375
2275.37946225522	0.57586669921875
2275.38946225519	0.576171875
2275.39946225517	0.57647705078125
2275.40946225514	0.57708740234375
2275.41946225512	0.577392578125
2275.42946225509	0.57769775390625
2275.43946225507	0.5780029296875
2275.44946225504	0.57861328125
2275.45946225502	0.57891845703125
2275.46946225499	0.5792236328125
2275.47946225497	0.579833984375
2275.48946225494	0.58013916015625
2275.49946225492	0.5804443359375
2275.50946225489	0.58074951171875
2275.51946225487	0.58135986328125
2275.52946225484	0.5816650390625
2275.53946225482	0.58197021484375
2275.54946225479	0.582275390625
2275.55946225476	0.5828857421875
2275.56946225474	0.58319091796875
2275.57946225471	0.58349609375
2275.58946225469	0.58380126953125
2275.59946225466	0.58441162109375
2275.60946225464	0.584716796875
2275.61946225461	0.58502197265625
2275.62946225459	0.58563232421875
2275.63946225456	0.5859375
2275.64946225454	0.58624267578125
2275.65946225451	0.5865478515625
2275.66946225449	0.587158203125
2275.67946225446	0.58746337890625
2275.68946225444	0.5877685546875
2275.69946225441	0.58807373046875
2275.70946225439	0.58868408203125
2275.71946225436	0.5889892578125
2275.72946225434	0.58929443359375
2275.73946225431	0.589599609375
2275.74946225428	0.5902099609375
2275.75946225426	0.59051513671875
2275.76946225423	0.5908203125
2275.77946225421	0.59112548828125
2275.78946225418	0.59173583984375
2275.79946225416	0.592041015625
2275.80946225413	0.59234619140625
2275.81946225411	0.5926513671875
2275.82946225408	0.59326171875
2275.83946225406	0.59356689453125
2275.84946225403	0.5938720703125
2275.85946225401	0.59417724609375
2275.86946225398	0.59478759765625
2275.87946225396	0.5950927734375
2275.88946225393	0.59539794921875
2275.89946225391	0.595703125
2275.90946225388	0.5963134765625
2275.91946225386	0.59661865234375
2275.92946225383	0.596923828125
2275.93946225381	0.59722900390625
2275.94946225378	0.59783935546875
2275.95946225375	0.59814453125
2275.96946225373	0.59844970703125
2275.9794622537	0.5987548828125
2275.98946225368	0.599365234375
2275.99946225365	0.59967041015625
2276.00946225363	0.5999755859375
2276.0194622536	0.60028076171875
2276.02946225358	0.60089111328125
2276.03946225355	0.6011962890625
2276.04946225353	0.60150146484375
2276.0594622535	0.601806640625
2276.06946225348	0.6024169921875
2276.07946225345	0.60272216796875
2276.08946225343	0.60302734375
2276.0994622534	0.60333251953125
2276.10946225338	0.60394287109375
2276.11946225335	0.604248046875
2276.12946225333	0.60455322265625
2276.1394622533	0.6048583984375
2276.14946225328	0.60546875
2276.15946225325	0.60577392578125
2276.16946225322	0.6060791015625
2276.1794622532	0.60638427734375
2276.18946225317	0.60699462890625
2276.19946225315	0.6072998046875
2276.20946225312	0.60760498046875
2276.2194622531	0.60791015625
2276.22946225307	0.60821533203125
2276.23946225305	0.60882568359375
2276.24946225302	0.609130859375
2276.259462253	0.60943603515625
2276.26946225297	0.6097412109375
2276.27946225295	0.61004638671875
2276.28946225292	0.61065673828125
2276.2994622529	0.6109619140625
2276.30946225287	0.61126708984375
2276.31946225285	0.61187744140625
2276.32946225282	0.6121826171875
2276.3394622528	0.61248779296875
2276.34946225277	0.61279296875
2276.35946225274	0.61309814453125
2276.36946225272	0.61370849609375
2276.37946225269	0.614013671875
2276.38946225267	0.61431884765625
2276.39946225264	0.6146240234375
2276.40946225262	0.61492919921875
2276.41946225259	0.61553955078125
2276.42946225257	0.6158447265625
2276.43946225254	0.61614990234375
2276.44946225252	0.616455078125
2276.45946225249	0.6170654296875
2276.46946225247	0.61737060546875
2276.47946225244	0.61767578125
2276.48946225242	0.61798095703125
2276.49946225239	0.6182861328125
2276.50946225237	0.618896484375
2276.51946225234	0.61920166015625
2276.52946225232	0.6195068359375
2276.53946225229	0.61981201171875
2276.54946225227	0.62042236328125
2276.55946225224	0.6207275390625
2276.56946225221	0.62103271484375
2276.57946225219	0.621337890625
2276.58946225216	0.62164306640625
2276.59946225214	0.62225341796875
2276.60946225211	0.62255859375
2276.61946225209	0.62286376953125
2276.62946225206	0.6231689453125
2276.63946225204	0.62347412109375
2276.64946225201	0.62408447265625
2276.65946225199	0.6243896484375
2276.66946225196	0.62469482421875
2276.67946225194	0.625
2276.68946225191	0.62530517578125
2276.69946225189	0.6256103515625
2276.70946225186	0.62591552734375
2276.71946225184	0.62652587890625
2276.72946225181	0.6268310546875
2276.73946225179	0.62713623046875
2276.74946225176	0.62744140625
2276.75946225173	0.62774658203125
2276.76946225171	0.62835693359375
2276.77946225168	0.628662109375
2276.78946225166	0.62896728515625
2276.79946225163	0.6292724609375
2276.80946225161	0.62957763671875
2276.81946225158	0.63018798828125
2276.82946225156	0.6304931640625
2276.83946225153	0.63079833984375
2276.84946225151	0.631103515625
2276.85946225148	0.63140869140625
2276.86946225146	0.6317138671875
2276.87946225143	0.63232421875
2276.88946225141	0.63262939453125
2276.89946225138	0.6329345703125
2276.90946225136	0.63323974609375
2276.91946225133	0.633544921875
2276.92946225131	0.6341552734375
2276.93946225128	0.63446044921875
2276.94946225126	0.634765625
2276.95946225123	0.63507080078125
2276.9694622512	0.6353759765625
2276.97946225118	0.635986328125
2276.98946225115	0.63629150390625
2276.99946225113	0.6365966796875
2277.0094622511	0.63690185546875
2277.01946225108	0.63720703125
2277.02946225105	0.63751220703125
2277.03946225103	0.63812255859375
2277.049462251	0.638427734375
2277.05946225098	0.63873291015625
2277.06946225095	0.6390380859375
2277.07946225093	0.63934326171875
2277.0894622509	0.6396484375
2277.09946225088	0.6402587890625
2277.10946225085	0.64056396484375
2277.11946225083	0.640869140625
2277.1294622508	0.64117431640625
2277.13946225078	0.6414794921875
2277.14946225075	0.64178466796875
2277.15946225073	0.64239501953125
2277.1694622507	0.6427001953125
2277.17946225067	0.64300537109375
2277.18946225065	0.643310546875
2277.19946225062	0.64361572265625
2277.2094622506	0.6439208984375
2277.21946225057	0.64453125
2277.22946225055	0.64483642578125
2277.23946225052	0.6451416015625
2277.2494622505	0.64544677734375
2277.25946225047	0.645751953125
2277.26946225045	0.64605712890625
2277.27946225042	0.64666748046875
2277.2894622504	0.64697265625
2277.29946225037	0.64727783203125
2277.30946225035	0.6475830078125
2277.31946225032	0.64788818359375
2277.3294622503	0.648193359375
2277.33946225027	0.6488037109375
2277.34946225025	0.64910888671875
2277.35946225022	0.6494140625
2277.36946225019	0.64971923828125
2277.37946225017	0.6500244140625
2277.38946225014	0.65032958984375
2277.39946225012	0.65093994140625
2277.40946225009	0.6512451171875
2277.41946225007	0.65155029296875
2277.42946225004	0.65185546875
2277.43946225002	0.65216064453125
2277.44946224999	0.6524658203125
2277.45946224997	0.65277099609375
2277.46946224994	0.65338134765625
2277.47946224992	0.6536865234375
2277.48946224989	0.65399169921875
2277.49946224987	0.654296875
2277.50946224984	0.65460205078125
2277.51946224982	0.6549072265625
2277.52946224979	0.65521240234375
2277.53946224977	0.655517578125
2277.54946224974	0.6561279296875
2277.55946224972	0.65643310546875
2277.56946224969	0.65673828125
2277.57946224966	0.65704345703125
2277.58946224964	0.6573486328125
2277.59946224961	0.65765380859375
2277.60946224959	0.657958984375
2277.61946224956	0.6585693359375
2277.62946224954	0.65887451171875
2277.63946224951	0.6591796875
2277.64946224949	0.65948486328125
2277.65946224946	0.6597900390625
2277.66946224944	0.66009521484375
2277.67946224941	0.660400390625
2277.68946224939	0.6610107421875
2277.69946224936	0.66131591796875
2277.70946224934	0.66162109375
2277.71946224931	0.66192626953125
2277.72946224929	0.6622314453125
2277.73946224926	0.66253662109375
2277.74946224924	0.662841796875
2277.75946224921	0.66314697265625
2277.76946224918	0.66375732421875
2277.77946224916	0.6640625
2277.78946224913	0.66436767578125
2277.79946224911	0.6646728515625
2277.80946224908	0.66497802734375
2277.81946224906	0.665283203125
2277.82946224903	0.66558837890625
2277.83946224901	0.6658935546875
2277.84946224898	0.66650390625
2277.85946224896	0.66680908203125
2277.86946224893	0.6671142578125
2277.87946224891	0.66741943359375
2277.88946224888	0.667724609375
2277.89946224886	0.66802978515625
2277.90946224883	0.6683349609375
2277.91946224881	0.66864013671875
2277.92946224878	0.6689453125
2277.93946224876	0.6695556640625
2277.94946224873	0.66986083984375
2277.95946224871	0.670166015625
2277.96946224868	0.67047119140625
2277.97946224865	0.6707763671875
2277.98946224863	0.67108154296875
2277.9994622486	0.67138671875
2278.00946224858	0.67169189453125
2278.01946224855	0.67230224609375
2278.02946224853	0.672607421875
2278.0394622485	0.67291259765625
2278.04946224848	0.6732177734375
2278.05946224845	0.67352294921875
2278.06946224843	0.673828125
2278.0794622484	0.67413330078125
2278.08946224838	0.6744384765625
2278.09946224835	0.67474365234375
2278.10946224833	0.675048828125
2278.1194622483	0.6756591796875
2278.12946224828	0.67596435546875
2278.13946224825	0.67626953125
2278.14946224823	0.67657470703125
2278.1594622482	0.6768798828125
2278.16946224818	0.67718505859375
2278.17946224815	0.677490234375
2278.18946224812	0.67779541015625
2278.1994622481	0.6781005859375
2278.20946224807	0.67840576171875
2278.21946224805	0.67901611328125
2278.22946224802	0.6793212890625
2278.239462248	0.67962646484375
2278.24946224797	0.679931640625
2278.25946224795	0.68023681640625
2278.26946224792	0.6805419921875
2278.2794622479	0.68084716796875
2278.28946224787	0.68115234375
2278.29946224785	0.68145751953125
2278.30946224782	0.68206787109375
2278.3194622478	0.682373046875
2278.32946224777	0.68267822265625
2278.33946224775	0.6829833984375
2278.34946224772	0.68328857421875
2278.3594622477	0.68359375
2278.36946224767	0.68389892578125
2278.37946224764	0.6842041015625
2278.38946224762	0.68450927734375
2278.39946224759	0.684814453125
2278.40946224757	0.68511962890625
2278.41946224754	0.6854248046875
2278.42946224752	0.68603515625
2278.43946224749	0.68634033203125
2278.44946224747	0.6866455078125
2278.45946224744	0.68695068359375
2278.46946224742	0.687255859375
2278.47946224739	0.68756103515625
2278.48946224737	0.6878662109375
2278.49946224734	0.68817138671875
2278.50946224732	0.6884765625
2278.51946224729	0.68878173828125
2278.52946224727	0.6890869140625
2278.53946224724	0.68939208984375
2278.54946224722	0.69000244140625
2278.55946224719	0.6903076171875
2278.56946224717	0.69061279296875
2278.57946224714	0.69091796875
2278.58946224711	0.69122314453125
2278.59946224709	0.6915283203125
2278.60946224706	0.69183349609375
2278.61946224704	0.692138671875
2278.62946224701	0.69244384765625
2278.63946224699	0.6927490234375
2278.64946224696	0.69305419921875
2278.65946224694	0.693359375
2278.66946224691	0.69366455078125
2278.67946224689	0.6939697265625
2278.68946224686	0.694580078125
2278.69946224684	0.69488525390625
2278.70946224681	0.6951904296875
2278.71946224679	0.69549560546875
2278.72946224676	0.69580078125
2278.73946224674	0.69610595703125
2278.74946224671	0.6964111328125
2278.75946224669	0.69671630859375
2278.76946224666	0.697021484375
2278.77946224663	0.69732666015625
2278.78946224661	0.6976318359375
2278.79946224658	0.69793701171875
2278.80946224656	0.6982421875
2278.81946224653	0.69854736328125
2278.82946224651	0.6988525390625
2278.83946224648	0.69915771484375
2278.84946224646	0.69976806640625
2278.85946224643	0.7000732421875
2278.86946224641	0.70037841796875
2278.87946224638	0.70068359375
2278.88946224636	0.70098876953125
2278.89946224633	0.7012939453125
2278.90946224631	0.70159912109375
2278.91946224628	0.701904296875
2278.92946224626	0.70220947265625
2278.93946224623	0.7025146484375
2278.94946224621	0.70281982421875
2278.95946224618	0.703125
2278.96946224616	0.70343017578125
2278.97946224613	0.7037353515625
2278.9894622461	0.70404052734375
2278.99946224608	0.704345703125
2279.00946224605	0.70465087890625
2279.01946224603	0.7049560546875
2279.029462246	0.70526123046875
2279.03946224598	0.70556640625
2279.04946224595	0.70587158203125
2279.05946224593	0.7061767578125
2279.0694622459	0.70648193359375
2279.07946224588	0.706787109375
2279.08946224585	0.70709228515625
2279.09946224583	0.7073974609375
2279.1094622458	0.70770263671875
2279.11946224578	0.7080078125
2279.12946224575	0.7086181640625
2279.13946224573	0.70892333984375
2279.1494622457	0.709228515625
2279.15946224568	0.70953369140625
2279.16946224565	0.7098388671875
2279.17946224563	0.71014404296875
2279.1894622456	0.71044921875
2279.19946224557	0.71075439453125
2279.20946224555	0.7110595703125
2279.21946224552	0.71136474609375
2279.2294622455	0.711669921875
2279.23946224547	0.71197509765625
2279.24946224545	0.7122802734375
2279.25946224542	0.71258544921875
2279.2694622454	0.712890625
2279.27946224537	0.71319580078125
2279.28946224535	0.7135009765625
2279.29946224532	0.71380615234375
2279.3094622453	0.714111328125
2279.31946224527	0.71441650390625
2279.32946224525	0.7147216796875
2279.33946224522	0.71502685546875
2279.3494622452	0.71533203125
2279.35946224517	0.71563720703125
2279.36946224515	0.7159423828125
2279.37946224512	0.71624755859375
2279.38946224509	0.716552734375
2279.39946224507	0.71685791015625
2279.40946224504	0.7171630859375
2279.41946224502	0.71746826171875
2279.42946224499	0.7177734375
2279.43946224497	0.71807861328125
2279.44946224494	0.7183837890625
2279.45946224492	0.71868896484375
2279.46946224489	0.718994140625
2279.47946224487	0.7196044921875
2279.48946224484	0.71990966796875
2279.49946224482	0.72021484375
2279.50946224479	0.72021484375
2279.51946224477	0.7208251953125
2279.52946224474	0.72113037109375
2279.53946224472	0.721435546875
2279.54946224469	0.72174072265625
2279.55946224467	0.7220458984375
2279.56946224464	0.72235107421875
2279.57946224462	0.72265625
2279.58946224459	0.72296142578125
2279.59946224456	0.7232666015625
2279.60946224454	0.72357177734375
2279.61946224451	0.723876953125
2279.62946224449	0.72418212890625
2279.63946224446	0.7244873046875
2279.64946224444	0.72479248046875
2279.65946224441	0.72509765625
2279.66946224439	0.72540283203125
2279.67946224436	0.7257080078125
2279.68946224434	0.72601318359375
2279.69946224431	0.726318359375
2279.70946224429	0.72662353515625
2279.71946224426	0.7269287109375
2279.72946224424	0.72723388671875
2279.73946224421	0.7275390625
2279.74946224419	0.72784423828125
2279.75946224416	0.7281494140625
2279.76946224414	0.72845458984375
2279.77946224411	0.728759765625
2279.78946224408	0.72906494140625
2279.79946224406	0.7293701171875
2279.80946224403	0.72967529296875
2279.81946224401	0.72998046875
2279.82946224398	0.73028564453125
2279.83946224396	0.7305908203125
2279.84946224393	0.73089599609375
2279.85946224391	0.731201171875
2279.86946224388	0.73150634765625
2279.87946224386	0.7318115234375
2279.88946224383	0.73211669921875
2279.89946224381	0.732421875
2279.90946224378	0.73272705078125
2279.91946224376	0.7330322265625
2279.92946224373	0.73333740234375
2279.93946224371	0.733642578125
2279.94946224368	0.73394775390625
2279.95946224366	0.7342529296875
2279.96946224363	0.73455810546875
2279.97946224361	0.73486328125
2279.98946224358	0.73516845703125
2279.99946224355	0.7354736328125
2280.00946224353	0.73577880859375
2280.0194622435	0.736083984375
2280.02946224348	0.73638916015625
2280.03946224345	0.7366943359375
2280.04946224343	0.73699951171875
2280.0594622434	0.73699951171875
2280.06946224338	0.7373046875
2280.07946224335	0.73760986328125
2280.08946224333	0.7379150390625
2280.0994622433	0.73822021484375
2280.10946224328	0.738525390625
2280.11946224325	0.73883056640625
2280.12946224323	0.7391357421875
2280.1394622432	0.73944091796875
2280.14946224318	0.73974609375
2280.15946224315	0.74005126953125
2280.16946224313	0.7403564453125
2280.1794622431	0.74066162109375
2280.18946224308	0.740966796875
2280.19946224305	0.74127197265625
2280.20946224302	0.7415771484375
2280.219462243	0.74188232421875
2280.22946224297	0.7421875
2280.23946224295	0.74249267578125
2280.24946224292	0.7427978515625
2280.2594622429	0.74310302734375
2280.26946224287	0.743408203125
2280.27946224285	0.74371337890625
2280.28946224282	0.7440185546875
2280.2994622428	0.74432373046875
2280.30946224277	0.74462890625
2280.31946224275	0.74493408203125
2280.32946224272	0.7452392578125
2280.3394622427	0.74554443359375
2280.34946224267	0.745849609375
2280.35946224265	0.74615478515625
2280.36946224262	0.7464599609375
2280.3794622426	0.74676513671875
2280.38946224257	0.7470703125
2280.39946224254	0.74737548828125
2280.40946224252	0.7476806640625
2280.41946224249	0.7476806640625
2280.42946224247	0.748291015625
2280.43946224244	0.748291015625
2280.44946224242	0.74859619140625
2280.45946224239	0.7489013671875
2280.46946224237	0.74920654296875
2280.47946224234	0.74951171875
2280.48946224232	0.74981689453125
2280.49946224229	0.7501220703125
2280.50946224227	0.75042724609375
2280.51946224224	0.750732421875
2280.52946224222	0.75103759765625
2280.53946224219	0.7513427734375
2280.54946224217	0.75164794921875
2280.55946224214	0.751953125
2280.56946224212	0.75225830078125
2280.57946224209	0.7525634765625
2280.58946224207	0.75286865234375
2280.59946224204	0.753173828125
2280.60946224201	0.75347900390625
2280.61946224199	0.7537841796875
2280.62946224196	0.7537841796875
2280.63946224194	0.75408935546875
2280.64946224191	0.75439453125
2280.65946224189	0.75469970703125
2280.66946224186	0.7550048828125
2280.67946224184	0.75531005859375
2280.68946224181	0.755615234375
2280.69946224179	0.75592041015625
2280.70946224176	0.7562255859375
2280.71946224174	0.75653076171875
2280.72946224171	0.7568359375
2280.73946224169	0.75714111328125
2280.74946224166	0.7574462890625
2280.75946224164	0.75775146484375
2280.76946224161	0.75775146484375
2280.77946224159	0.758056640625
2280.78946224156	0.75836181640625
2280.79946224153	0.7586669921875
2280.80946224151	0.75897216796875
2280.81946224148	0.75927734375
2280.82946224146	0.75958251953125
2280.83946224143	0.7598876953125
2280.84946224141	0.76019287109375
2280.85946224138	0.760498046875
2280.86946224136	0.76080322265625
2280.87946224133	0.7611083984375
2280.88946224131	0.76141357421875
2280.89946224128	0.76141357421875
2280.90946224126	0.76171875
2280.91946224123	0.76202392578125
2280.92946224121	0.7623291015625
2280.93946224118	0.76263427734375
2280.94946224116	0.762939453125
2280.95946224113	0.76324462890625
2280.96946224111	0.7635498046875
2280.97946224108	0.76385498046875
2280.98946224106	0.76416015625
2280.99946224103	0.76446533203125
2281.009462241	0.7647705078125
2281.01946224098	0.7647705078125
2281.02946224095	0.76507568359375
2281.03946224093	0.765380859375
2281.0494622409	0.76568603515625
2281.05946224088	0.7659912109375
2281.06946224085	0.76629638671875
2281.07946224083	0.7666015625
2281.0894622408	0.76690673828125
2281.09946224078	0.7672119140625
2281.10946224075	0.76751708984375
2281.11946224073	0.767822265625
2281.1294622407	0.767822265625
2281.13946224068	0.76812744140625
2281.14946224065	0.7684326171875
2281.15946224063	0.76873779296875
2281.1694622406	0.76904296875
2281.17946224058	0.76934814453125
2281.18946224055	0.7696533203125
2281.19946224053	0.76995849609375
2281.2094622405	0.76995849609375
2281.21946224047	0.770263671875
2281.22946224045	0.77056884765625
2281.23946224042	0.7708740234375
2281.2494622404	0.77117919921875
2281.25946224037	0.771484375
2281.26946224035	0.77178955078125
2281.27946224032	0.7720947265625
2281.2894622403	0.77239990234375
2281.29946224027	0.77239990234375
2281.30946224025	0.772705078125
2281.31946224022	0.77301025390625
2281.3294622402	0.7733154296875
2281.33946224017	0.77362060546875
2281.34946224015	0.77392578125
2281.35946224012	0.77423095703125
2281.3694622401	0.7745361328125
2281.37946224007	0.7745361328125
2281.38946224005	0.77484130859375
2281.39946224002	0.775146484375
2281.40946223999	0.77545166015625
2281.41946223997	0.7757568359375
2281.42946223994	0.77606201171875
2281.43946223992	0.7763671875
2281.44946223989	0.77667236328125
2281.45946223987	0.77667236328125
2281.46946223984	0.7769775390625
2281.47946223982	0.77728271484375
2281.48946223979	0.777587890625
2281.49946223977	0.77789306640625
2281.50946223974	0.7781982421875
2281.51946223972	0.77850341796875
2281.52946223969	0.77850341796875
2281.53946223967	0.77880859375
2281.54946223964	0.77911376953125
2281.55946223962	0.7794189453125
2281.56946223959	0.77972412109375
2281.57946223957	0.780029296875
2281.58946223954	0.78033447265625
2281.59946223952	0.7806396484375
2281.60946223949	0.7806396484375
2281.61946223946	0.78094482421875
2281.62946223944	0.78125
2281.63946223941	0.78125
2281.64946223939	0.78155517578125
2281.65946223936	0.7818603515625
2281.66946223934	0.7818603515625
2281.67946223931	0.78216552734375
2281.68946223929	0.782470703125
2281.69946223926	0.78277587890625
2281.70946223924	0.7830810546875
2281.71946223921	0.7830810546875
2281.72946223919	0.78338623046875
2281.73946223916	0.78369140625
2281.74946223914	0.78399658203125
2281.75946223911	0.7843017578125
2281.76946223909	0.78460693359375
2281.77946223906	0.784912109375
2281.78946223904	0.784912109375
2281.79946223901	0.78521728515625
2281.80946223898	0.7855224609375
2281.81946223896	0.78582763671875
2281.82946223893	0.7861328125
2281.83946223891	0.7861328125
2281.84946223888	0.78643798828125
2281.85946223886	0.7867431640625
2281.86946223883	0.78704833984375
2281.87946223881	0.787353515625
2281.88946223878	0.78765869140625
2281.89946223876	0.78765869140625
2281.90946223873	0.7879638671875
2281.91946223871	0.78826904296875
2281.92946223868	0.78857421875
2281.93946223866	0.78887939453125
2281.94946223863	0.7891845703125
2281.95946223861	0.7891845703125
2281.96946223858	0.78948974609375
2281.97946223856	0.789794921875
2281.98946223853	0.79010009765625
2281.99946223851	0.7904052734375
2282.00946223848	0.79071044921875
2282.01946223845	0.79071044921875
2282.02946223843	0.791015625
2282.0394622384	0.79132080078125
2282.04946223838	0.7916259765625
2282.05946223835	0.79193115234375
2282.06946223833	0.79193115234375
2282.0794622383	0.792236328125
2282.08946223828	0.79254150390625
2282.09946223825	0.7928466796875
2282.10946223823	0.79315185546875
2282.1194622382	0.79315185546875
2282.12946223818	0.79345703125
2282.13946223815	0.79376220703125
2282.14946223813	0.7940673828125
2282.1594622381	0.79437255859375
2282.16946223808	0.794677734375
2282.17946223805	0.794677734375
2282.18946223803	0.79498291015625
2282.199462238	0.7952880859375
2282.20946223798	0.79559326171875
2282.21946223795	0.79559326171875
2282.22946223792	0.7958984375
2282.2394622379	0.79620361328125
2282.24946223787	0.7965087890625
2282.25946223785	0.79681396484375
2282.26946223782	0.79681396484375
2282.2794622378	0.797119140625
2282.28946223777	0.79742431640625
2282.29946223775	0.7977294921875
2282.30946223772	0.79803466796875
2282.3194622377	0.79803466796875
2282.32946223767	0.79833984375
2282.33946223765	0.79864501953125
2282.34946223762	0.7989501953125
2282.3594622376	0.7989501953125
2282.36946223757	0.79925537109375
2282.37946223755	0.799560546875
2282.38946223752	0.79986572265625
2282.3994622375	0.8001708984375
2282.40946223747	0.80047607421875
2282.41946223744	0.80047607421875
2282.42946223742	0.80078125
