Time (s)	WE(1).Potential (V)
2398.32265894482	0.74249267578125
2398.33265894479	0.7415771484375
2398.34265894477	0.740966796875
2398.35265894474	0.74005126953125
2398.36265894472	0.73944091796875
2398.37265894469	0.738525390625
2398.38265894467	0.7379150390625
2398.39265894464	0.73699951171875
2398.40265894462	0.73638916015625
2398.41265894459	0.7354736328125
2398.42265894456	0.73486328125
2398.43265894454	0.7342529296875
2398.44265894451	0.73333740234375
2398.45265894449	0.732421875
2398.46265894446	0.7318115234375
2398.47265894444	0.731201171875
2398.48265894441	0.73028564453125
2398.49265894439	0.72967529296875
2398.50265894436	0.728759765625
2398.51265894434	0.7281494140625
2398.52265894431	0.72723388671875
2398.53265894429	0.72662353515625
2398.54265894426	0.7257080078125
2398.55265894424	0.72509765625
2398.56265894421	0.7244873046875
2398.57265894419	0.72357177734375
2398.58265894416	0.72296142578125
2398.59265894414	0.7220458984375
2398.60265894411	0.721435546875
2398.61265894409	0.72052001953125
2398.62265894406	0.71990966796875
2398.63265894403	0.718994140625
2398.64265894401	0.7183837890625
2398.65265894398	0.71746826171875
2398.66265894396	0.71685791015625
2398.67265894393	0.7159423828125
2398.68265894391	0.71533203125
2398.69265894388	0.7147216796875
2398.70265894386	0.71380615234375
2398.71265894383	0.71319580078125
2398.72265894381	0.7122802734375
2398.73265894378	0.711669921875
2398.74265894376	0.71075439453125
2398.75265894373	0.71014404296875
2398.76265894371	0.70953369140625
2398.77265894368	0.7086181640625
2398.78265894366	0.7080078125
2398.79265894363	0.70709228515625
2398.80265894361	0.70648193359375
2398.81265894358	0.70587158203125
2398.82265894355	0.7049560546875
2398.83265894353	0.704345703125
2398.8426589435	0.70343017578125
2398.85265894348	0.70281982421875
2398.86265894345	0.70220947265625
2398.87265894343	0.7012939453125
2398.8826589434	0.70068359375
2398.89265894338	0.7000732421875
2398.90265894335	0.69915771484375
2398.91265894333	0.69854736328125
2398.9226589433	0.6976318359375
2398.93265894328	0.697021484375
2398.94265894325	0.6964111328125
2398.95265894323	0.69549560546875
2398.9626589432	0.69488525390625
2398.97265894318	0.6939697265625
2398.98265894315	0.693359375
2398.99265894313	0.6927490234375
2399.0026589431	0.69183349609375
2399.01265894308	0.69122314453125
2399.02265894305	0.69061279296875
2399.03265894302	0.689697265625
2399.042658943	0.6890869140625
2399.05265894297	0.68817138671875
2399.06265894295	0.68756103515625
2399.07265894292	0.6866455078125
2399.0826589429	0.68603515625
2399.09265894287	0.6854248046875
2399.10265894285	0.68450927734375
2399.11265894282	0.68389892578125
2399.1226589428	0.68328857421875
2399.13265894277	0.682373046875
2399.14265894275	0.6817626953125
2399.15265894272	0.68084716796875
2399.1626589427	0.68023681640625
2399.17265894267	0.67962646484375
2399.18265894265	0.6787109375
2399.19265894262	0.6781005859375
2399.2026589426	0.677490234375
2399.21265894257	0.67657470703125
2399.22265894254	0.67596435546875
2399.23265894252	0.675048828125
2399.24265894249	0.6744384765625
2399.25265894247	0.673828125
2399.26265894244	0.67291259765625
2399.27265894242	0.67230224609375
2399.28265894239	0.67169189453125
2399.29265894237	0.6707763671875
2399.30265894234	0.670166015625
2399.31265894232	0.66925048828125
2399.32265894229	0.66864013671875
2399.33265894227	0.66802978515625
2399.34265894224	0.6671142578125
2399.35265894222	0.66650390625
2399.36265894219	0.6658935546875
2399.37265894217	0.66497802734375
2399.38265894214	0.66436767578125
2399.39265894212	0.66375732421875
2399.40265894209	0.662841796875
2399.41265894207	0.6622314453125
2399.42265894204	0.66131591796875
2399.43265894201	0.66070556640625
2399.44265894199	0.66009521484375
2399.45265894196	0.6591796875
2399.46265894194	0.6585693359375
2399.47265894191	0.657958984375
2399.48265894189	0.65704345703125
2399.49265894186	0.65643310546875
2399.50265894184	0.65582275390625
2399.51265894181	0.6549072265625
2399.52265894179	0.654296875
2399.53265894176	0.6536865234375
2399.54265894174	0.65277099609375
2399.55265894171	0.65216064453125
2399.56265894169	0.65155029296875
2399.57265894166	0.650634765625
2399.58265894164	0.6500244140625
2399.59265894161	0.6494140625
2399.60265894159	0.64849853515625
2399.61265894156	0.64788818359375
2399.62265894154	0.64727783203125
2399.63265894151	0.6463623046875
2399.64265894148	0.645751953125
2399.65265894146	0.6451416015625
2399.66265894143	0.64422607421875
2399.67265894141	0.64361572265625
2399.68265894138	0.64300537109375
2399.69265894136	0.64208984375
2399.70265894133	0.6414794921875
2399.71265894131	0.640869140625
2399.72265894128	0.63995361328125
2399.73265894126	0.63934326171875
2399.74265894123	0.63873291015625
2399.75265894121	0.6378173828125
2399.76265894118	0.63720703125
2399.77265894116	0.6365966796875
2399.78265894113	0.635986328125
2399.79265894111	0.63507080078125
2399.80265894108	0.63446044921875
2399.81265894106	0.63385009765625
2399.82265894103	0.6329345703125
2399.832658941	0.63232421875
2399.84265894098	0.6317138671875
2399.85265894095	0.63079833984375
2399.86265894093	0.63018798828125
2399.8726589409	0.62957763671875
2399.88265894088	0.628662109375
2399.89265894085	0.6280517578125
2399.90265894083	0.62744140625
2399.9126589408	0.6268310546875
2399.92265894078	0.62591552734375
2399.93265894075	0.62530517578125
2399.94265894073	0.62469482421875
2399.9526589407	0.62408447265625
2399.96265894068	0.62347412109375
2399.97265894065	0.62255859375
2399.98265894063	0.6219482421875
2399.9926589406	0.621337890625
2400.00265894058	0.62042236328125
2400.01265894055	0.61981201171875
2400.02265894053	0.61920166015625
2400.0326589405	0.6182861328125
2400.04265894047	0.61767578125
2400.05265894045	0.6170654296875
2400.06265894042	0.616455078125
2400.0726589404	0.61553955078125
2400.08265894037	0.61492919921875
2400.09265894035	0.61431884765625
2400.10265894032	0.6134033203125
2400.1126589403	0.61279296875
2400.12265894027	0.6121826171875
2400.13265894025	0.611572265625
2400.14265894022	0.61065673828125
2400.1526589402	0.61004638671875
2400.16265894017	0.60943603515625
2400.17265894015	0.60882568359375
2400.18265894012	0.60791015625
2400.1926589401	0.6072998046875
2400.20265894007	0.606689453125
2400.21265894005	0.60577392578125
2400.22265894002	0.60516357421875
2400.23265893999	0.60455322265625
2400.24265893997	0.6036376953125
2400.25265893994	0.60302734375
2400.26265893992	0.6024169921875
2400.27265893989	0.601806640625
2400.28265893987	0.60089111328125
2400.29265893984	0.60028076171875
2400.30265893982	0.59967041015625
2400.31265893979	0.59906005859375
2400.32265893977	0.59814453125
2400.33265893974	0.5975341796875
2400.34265893972	0.596923828125
2400.35265893969	0.5963134765625
2400.36265893967	0.59539794921875
2400.37265893964	0.59478759765625
2400.38265893962	0.59417724609375
2400.39265893959	0.59356689453125
2400.40265893957	0.5926513671875
2400.41265893954	0.592041015625
2400.42265893952	0.5914306640625
2400.43265893949	0.59051513671875
2400.44265893946	0.58990478515625
2400.45265893944	0.58929443359375
2400.46265893941	0.58868408203125
2400.47265893939	0.58807373046875
2400.48265893936	0.587158203125
2400.49265893934	0.5865478515625
2400.50265893931	0.5859375
2400.51265893929	0.58502197265625
2400.52265893926	0.58441162109375
2400.53265893924	0.58380126953125
2400.54265893921	0.58319091796875
2400.55265893919	0.582275390625
2400.56265893916	0.5816650390625
2400.57265893914	0.5810546875
2400.58265893911	0.5804443359375
2400.59265893909	0.579833984375
2400.60265893906	0.57891845703125
2400.61265893904	0.57830810546875
2400.62265893901	0.57769775390625
2400.63265893899	0.57708740234375
2400.64265893896	0.576171875
2400.65265893893	0.5755615234375
2400.66265893891	0.574951171875
2400.67265893888	0.5743408203125
2400.68265893886	0.57373046875
2400.69265893883	0.57281494140625
2400.70265893881	0.57220458984375
2400.71265893878	0.57159423828125
2400.72265893876	0.57098388671875
2400.73265893873	0.570068359375
2400.74265893871	0.5694580078125
2400.75265893868	0.56884765625
2400.76265893866	0.5682373046875
2400.77265893863	0.567626953125
2400.78265893861	0.56671142578125
2400.79265893858	0.56610107421875
2400.80265893856	0.56549072265625
2400.81265893853	0.56488037109375
2400.82265893851	0.56396484375
2400.83265893848	0.5633544921875
2400.84265893845	0.562744140625
2400.85265893843	0.5621337890625
2400.8626589384	0.5615234375
2400.87265893838	0.5609130859375
2400.88265893835	0.55999755859375
2400.89265893833	0.55938720703125
2400.9026589383	0.55877685546875
2400.91265893828	0.55816650390625
2400.92265893825	0.55755615234375
2400.93265893823	0.556640625
2400.9426589382	0.5560302734375
2400.95265893818	0.555419921875
2400.96265893815	0.5548095703125
2400.97265893813	0.55419921875
2400.9826589381	0.55328369140625
2400.99265893808	0.55267333984375
2401.00265893805	0.55206298828125
2401.01265893803	0.55145263671875
2401.022658938	0.55084228515625
2401.03265893798	0.55023193359375
2401.04265893795	0.54931640625
2401.05265893792	0.5487060546875
2401.0626589379	0.548095703125
2401.07265893787	0.5474853515625
2401.08265893785	0.546875
2401.09265893782	0.5462646484375
2401.1026589378	0.545654296875
2401.11265893777	0.5450439453125
2401.12265893775	0.54412841796875
2401.13265893772	0.54351806640625
2401.1426589377	0.54290771484375
2401.15265893767	0.54229736328125
2401.16265893765	0.54168701171875
2401.17265893762	0.54107666015625
2401.1826589376	0.5401611328125
2401.19265893757	0.53955078125
2401.20265893755	0.5389404296875
2401.21265893752	0.538330078125
2401.2226589375	0.5377197265625
2401.23265893747	0.537109375
2401.24265893744	0.53619384765625
2401.25265893742	0.53558349609375
2401.26265893739	0.53497314453125
2401.27265893737	0.53436279296875
2401.28265893734	0.53375244140625
2401.29265893732	0.53314208984375
2401.30265893729	0.53253173828125
2401.31265893727	0.5316162109375
2401.32265893724	0.531005859375
2401.33265893722	0.5303955078125
2401.34265893719	0.52978515625
2401.35265893717	0.5291748046875
2401.36265893714	0.528564453125
2401.37265893712	0.52764892578125
2401.38265893709	0.52703857421875
2401.39265893707	0.52642822265625
2401.40265893704	0.52581787109375
2401.41265893702	0.52520751953125
2401.42265893699	0.52459716796875
2401.43265893697	0.523681640625
2401.44265893694	0.5230712890625
2401.45265893691	0.5224609375
2401.46265893689	0.5218505859375
2401.47265893686	0.521240234375
2401.48265893684	0.5206298828125
2401.49265893681	0.52001953125
2401.50265893679	0.5194091796875
2401.51265893676	0.51849365234375
2401.52265893674	0.51788330078125
2401.53265893671	0.51727294921875
2401.54265893669	0.51666259765625
2401.55265893666	0.51605224609375
2401.56265893664	0.51544189453125
2401.57265893661	0.5145263671875
2401.58265893659	0.513916015625
2401.59265893656	0.5133056640625
2401.60265893654	0.5126953125
2401.61265893651	0.5120849609375
2401.62265893649	0.511474609375
2401.63265893646	0.5108642578125
2401.64265893644	0.50994873046875
2401.65265893641	0.50933837890625
2401.66265893638	0.50872802734375
2401.67265893636	0.50811767578125
2401.68265893633	0.50750732421875
2401.69265893631	0.50689697265625
2401.70265893628	0.50628662109375
2401.71265893626	0.50567626953125
2401.72265893623	0.5047607421875
2401.73265893621	0.504150390625
2401.74265893618	0.5035400390625
2401.75265893616	0.5029296875
2401.76265893613	0.5023193359375
2401.77265893611	0.501708984375
2401.78265893608	0.5010986328125
2401.79265893606	0.50048828125
2401.80265893603	0.4998779296875
2401.81265893601	0.499176025390625
2401.82265893598	0.49853515625
2401.83265893596	0.497894287109375
2401.84265893593	0.49725341796875
2401.8526589359	0.496612548828125
2401.86265893588	0.495941162109375
2401.87265893585	0.49530029296875
2401.88265893583	0.494659423828125
2401.8926589358	0.4940185546875
2401.90265893578	0.493377685546875
2401.91265893575	0.49273681640625
2401.92265893573	0.49212646484375
2401.9326589357	0.491485595703125
2401.94265893568	0.4908447265625
2401.95265893565	0.490203857421875
2401.96265893563	0.48956298828125
2401.9726589356	0.488922119140625
2401.98265893558	0.48828125
2401.99265893555	0.487640380859375
2402.00265893553	0.48699951171875
2402.0126589355	0.48638916015625
2402.02265893548	0.485748291015625
2402.03265893545	0.485107421875
2402.04265893543	0.4844970703125
2402.0526589354	0.48388671875
2402.06265893537	0.483245849609375
2402.07265893535	0.48260498046875
2402.08265893532	0.48199462890625
2402.0926589353	0.481353759765625
2402.10265893527	0.480712890625
2402.11265893525	0.480072021484375
2402.12265893522	0.479461669921875
2402.1326589352	0.47882080078125
2402.14265893517	0.47821044921875
2402.15265893515	0.477569580078125
2402.16265893512	0.4769287109375
2402.1726589351	0.476318359375
2402.18265893507	0.4757080078125
2402.19265893505	0.475067138671875
2402.20265893502	0.474456787109375
2402.212658935	0.47381591796875
2402.22265893497	0.47320556640625
2402.23265893495	0.472564697265625
2402.24265893492	0.471954345703125
2402.25265893489	0.4713134765625
2402.26265893487	0.470703125
2402.27265893484	0.4700927734375
2402.28265893482	0.469451904296875
2402.29265893479	0.468841552734375
2402.30265893477	0.468231201171875
2402.31265893474	0.467620849609375
2402.32265893472	0.467010498046875
2402.33265893469	0.466400146484375
2402.34265893467	0.46575927734375
2402.35265893464	0.46514892578125
2402.36265893462	0.46453857421875
2402.37265893459	0.46392822265625
2402.38265893457	0.46331787109375
2402.39265893454	0.462677001953125
2402.40265893452	0.462066650390625
2402.41265893449	0.461456298828125
2402.42265893447	0.460845947265625
2402.43265893444	0.46026611328125
2402.44265893442	0.45965576171875
2402.45265893439	0.459014892578125
2402.46265893436	0.45843505859375
2402.47265893434	0.45782470703125
2402.48265893431	0.45721435546875
2402.49265893429	0.45660400390625
2402.50265893426	0.45599365234375
2402.51265893424	0.45538330078125
2402.52265893421	0.45477294921875
2402.53265893419	0.45416259765625
2402.54265893416	0.45355224609375
2402.55265893414	0.4530029296875
2402.56265893411	0.452392578125
2402.57265893409	0.451812744140625
2402.58265893406	0.451202392578125
2402.59265893404	0.450592041015625
2402.60265893401	0.449981689453125
2402.61265893399	0.44940185546875
2402.62265893396	0.44879150390625
2402.63265893394	0.448211669921875
2402.64265893391	0.447601318359375
2402.65265893389	0.447021484375
2402.66265893386	0.4464111328125
2402.67265893383	0.445831298828125
2402.68265893381	0.445220947265625
2402.69265893378	0.44464111328125
2402.70265893376	0.444061279296875
2402.71265893373	0.443450927734375
2402.72265893371	0.44287109375
2402.73265893368	0.442291259765625
2402.74265893366	0.441680908203125
2402.75265893363	0.44110107421875
2402.76265893361	0.440521240234375
2402.77265893358	0.439910888671875
2402.78265893356	0.4393310546875
2402.79265893353	0.438751220703125
2402.80265893351	0.43817138671875
2402.81265893348	0.437591552734375
2402.82265893346	0.43701171875
2402.83265893343	0.436431884765625
2402.84265893341	0.43585205078125
2402.85265893338	0.435272216796875
2402.86265893335	0.4346923828125
2402.87265893333	0.434112548828125
2402.8826589333	0.43353271484375
2402.89265893328	0.432952880859375
2402.90265893325	0.432373046875
2402.91265893323	0.431793212890625
2402.9226589332	0.43121337890625
2402.93265893318	0.430633544921875
2402.94265893315	0.4300537109375
2402.95265893313	0.42950439453125
2402.9626589331	0.428924560546875
2402.97265893308	0.428375244140625
2402.98265893305	0.42779541015625
2402.99265893303	0.427215576171875
2403.002658933	0.426666259765625
2403.01265893298	0.42608642578125
2403.02265893295	0.425537109375
2403.03265893293	0.424957275390625
2403.0426589329	0.42437744140625
2403.05265893288	0.423828125
2403.06265893285	0.42327880859375
2403.07265893282	0.422698974609375
2403.0826589328	0.422149658203125
2403.09265893277	0.421630859375
2403.10265893275	0.421051025390625
2403.11265893272	0.420501708984375
2403.1226589327	0.419952392578125
2403.13265893267	0.419403076171875
2403.14265893265	0.4188232421875
2403.15265893262	0.41827392578125
2403.1626589326	0.417724609375
2403.17265893257	0.41717529296875
2403.18265893255	0.4166259765625
2403.19265893252	0.416046142578125
2403.2026589325	0.415496826171875
2403.21265893247	0.414947509765625
2403.22265893245	0.414398193359375
2403.23265893242	0.41387939453125
2403.2426589324	0.413330078125
2403.25265893237	0.41278076171875
2403.26265893234	0.4122314453125
2403.27265893232	0.41168212890625
2403.28265893229	0.4111328125
2403.29265893227	0.41058349609375
2403.30265893224	0.4100341796875
2403.31265893222	0.40948486328125
2403.32265893219	0.408966064453125
2403.33265893217	0.408416748046875
2403.34265893214	0.407867431640625
2403.35265893212	0.407318115234375
2403.36265893209	0.40679931640625
2403.37265893207	0.406280517578125
2403.38265893204	0.405731201171875
2403.39265893202	0.40521240234375
2403.40265893199	0.4046630859375
2403.41265893197	0.404144287109375
2403.42265893194	0.403594970703125
2403.43265893192	0.403076171875
2403.44265893189	0.40252685546875
2403.45265893187	0.402008056640625
2403.46265893184	0.401458740234375
2403.47265893181	0.40093994140625
2403.48265893179	0.400390625
2403.49265893176	0.399871826171875
2403.50265893174	0.399322509765625
2403.51265893171	0.3988037109375
2403.52265893169	0.398284912109375
2403.53265893166	0.39776611328125
2403.54265893164	0.397216796875
2403.55265893161	0.396697998046875
2403.56265893159	0.39617919921875
2403.57265893156	0.395660400390625
2403.58265893154	0.395111083984375
2403.59265893151	0.39459228515625
2403.60265893149	0.394073486328125
2403.61265893146	0.3935546875
2403.62265893144	0.393035888671875
2403.63265893141	0.392486572265625
2403.64265893139	0.3919677734375
2403.65265893136	0.391448974609375
2403.66265893134	0.39093017578125
2403.67265893131	0.39044189453125
2403.68265893128	0.389923095703125
2403.69265893126	0.389404296875
2403.70265893123	0.388885498046875
2403.71265893121	0.38836669921875
2403.72265893118	0.387847900390625
2403.73265893116	0.3873291015625
2403.74265893113	0.386810302734375
2403.75265893111	0.38629150390625
2403.76265893108	0.38580322265625
2403.77265893106	0.385284423828125
2403.78265893103	0.384765625
2403.79265893101	0.384246826171875
2403.80265893098	0.38372802734375
2403.81265893096	0.383209228515625
2403.82265893093	0.382720947265625
2403.83265893091	0.3822021484375
2403.84265893088	0.381683349609375
2403.85265893086	0.381195068359375
2403.86265893083	0.38067626953125
2403.8726589308	0.380157470703125
2403.88265893078	0.379669189453125
2403.89265893075	0.379150390625
2403.90265893073	0.378631591796875
2403.9126589307	0.378143310546875
2403.92265893068	0.37762451171875
2403.93265893065	0.377105712890625
2403.94265893063	0.376617431640625
2403.9526589306	0.3760986328125
2403.96265893058	0.3756103515625
2403.97265893055	0.3751220703125
2403.98265893053	0.374603271484375
2403.9926589305	0.374114990234375
2404.00265893048	0.373626708984375
2404.01265893045	0.37310791015625
2404.02265893043	0.37261962890625
2404.0326589304	0.372100830078125
2404.04265893038	0.371612548828125
2404.05265893035	0.37109375
2404.06265893033	0.37060546875
2404.0726589303	0.3701171875
2404.08265893027	0.369598388671875
2404.09265893025	0.369110107421875
2404.10265893022	0.36859130859375
2404.1126589302	0.36810302734375
2404.12265893017	0.36761474609375
2404.13265893015	0.36712646484375
2404.14265893012	0.36663818359375
2404.1526589301	0.366119384765625
2404.16265893007	0.365631103515625
2404.17265893005	0.365142822265625
2404.18265893002	0.364654541015625
2404.19265893	0.364166259765625
2404.20265892997	0.3636474609375
2404.21265892995	0.3631591796875
2404.22265892992	0.3626708984375
2404.2326589299	0.3621826171875
2404.24265892987	0.3616943359375
2404.25265892985	0.3612060546875
2404.26265892982	0.3607177734375
2404.27265892979	0.3602294921875
2404.28265892977	0.3597412109375
2404.29265892974	0.359283447265625
2404.30265892972	0.358795166015625
2404.31265892969	0.358306884765625
2404.32265892967	0.357818603515625
2404.33265892964	0.357330322265625
2404.34265892962	0.356842041015625
2404.35265892959	0.356353759765625
2404.36265892957	0.355865478515625
2404.37265892954	0.355377197265625
2404.38265892952	0.354888916015625
2404.39265892949	0.354400634765625
2404.40265892947	0.353912353515625
2404.41265892944	0.353424072265625
2404.42265892942	0.352935791015625
2404.43265892939	0.352447509765625
2404.44265892937	0.35198974609375
2404.45265892934	0.35150146484375
2404.46265892932	0.35101318359375
2404.47265892929	0.350555419921875
2404.48265892926	0.350067138671875
2404.49265892924	0.349578857421875
2404.50265892921	0.349090576171875
2404.51265892919	0.348602294921875
2404.52265892916	0.34814453125
2404.53265892914	0.34765625
2404.54265892911	0.34716796875
2404.55265892909	0.3466796875
2404.56265892906	0.346221923828125
2404.57265892904	0.345733642578125
2404.58265892901	0.345245361328125
2404.59265892899	0.34478759765625
2404.60265892896	0.34429931640625
2404.61265892894	0.343841552734375
2404.62265892891	0.3433837890625
2404.63265892889	0.3428955078125
2404.64265892886	0.342437744140625
2404.65265892884	0.341949462890625
2404.66265892881	0.341461181640625
2404.67265892879	0.34100341796875
2404.68265892876	0.34051513671875
2404.69265892873	0.340057373046875
2404.70265892871	0.339569091796875
2404.71265892868	0.339111328125
2404.72265892866	0.338623046875
2404.73265892863	0.338165283203125
2404.74265892861	0.337677001953125
2404.75265892858	0.33721923828125
2404.76265892856	0.33673095703125
2404.77265892853	0.336273193359375
2404.78265892851	0.3358154296875
2404.79265892848	0.335357666015625
2404.80265892846	0.334869384765625
2404.81265892843	0.33441162109375
2404.82265892841	0.333953857421875
2404.83265892838	0.333465576171875
2404.84265892836	0.3330078125
2404.85265892833	0.332550048828125
2404.86265892831	0.332061767578125
2404.87265892828	0.33160400390625
2404.88265892825	0.331146240234375
2404.89265892823	0.3306884765625
2404.9026589282	0.3302001953125
2404.91265892818	0.329742431640625
2404.92265892815	0.32928466796875
2404.93265892813	0.328826904296875
2404.9426589281	0.328369140625
2404.95265892808	0.32794189453125
2404.96265892805	0.327484130859375
2404.97265892803	0.3270263671875
2404.982658928	0.326568603515625
2404.99265892798	0.32611083984375
2405.00265892795	0.325653076171875
2405.01265892793	0.3251953125
2405.0226589279	0.324737548828125
2405.03265892788	0.32427978515625
2405.04265892785	0.323822021484375
2405.05265892783	0.3233642578125
2405.0626589278	0.32293701171875
2405.07265892778	0.322479248046875
2405.08265892775	0.322021484375
2405.09265892772	0.321563720703125
2405.1026589277	0.32110595703125
2405.11265892767	0.3206787109375
2405.12265892765	0.320220947265625
2405.13265892762	0.319793701171875
2405.1426589276	0.3193359375
2405.15265892757	0.318878173828125
2405.16265892755	0.318450927734375
2405.17265892752	0.3179931640625
2405.1826589275	0.317535400390625
2405.19265892747	0.317108154296875
2405.20265892745	0.316650390625
2405.21265892742	0.31622314453125
2405.2226589274	0.315765380859375
2405.23265892737	0.315338134765625
2405.24265892735	0.31488037109375
2405.25265892732	0.314453125
2405.2626589273	0.31402587890625
2405.27265892727	0.313568115234375
2405.28265892724	0.313140869140625
2405.29265892722	0.312713623046875
2405.30265892719	0.312286376953125
2405.31265892717	0.311859130859375
2405.32265892714	0.311431884765625
2405.33265892712	0.311004638671875
2405.34265892709	0.310546875
2405.35265892707	0.31011962890625
2405.36265892704	0.3096923828125
2405.37265892702	0.30926513671875
2405.38265892699	0.308837890625
2405.39265892697	0.30841064453125
2405.40265892694	0.3079833984375
2405.41265892692	0.30755615234375
2405.42265892689	0.30712890625
2405.43265892687	0.30670166015625
2405.44265892684	0.306304931640625
2405.45265892682	0.305877685546875
2405.46265892679	0.305450439453125
2405.47265892677	0.305023193359375
2405.48265892674	0.30462646484375
2405.49265892671	0.30419921875
2405.50265892669	0.303802490234375
2405.51265892666	0.303375244140625
2405.52265892664	0.302947998046875
2405.53265892661	0.30255126953125
2405.54265892659	0.3021240234375
2405.55265892656	0.301727294921875
2405.56265892654	0.301300048828125
2405.57265892651	0.3009033203125
2405.58265892649	0.30047607421875
2405.59265892646	0.300079345703125
2405.60265892644	0.299652099609375
2405.61265892641	0.29925537109375
2405.62265892639	0.298858642578125
2405.63265892636	0.298431396484375
2405.64265892634	0.29803466796875
2405.65265892631	0.297637939453125
2405.66265892629	0.2972412109375
2405.67265892626	0.296844482421875
2405.68265892624	0.296478271484375
2405.69265892621	0.29608154296875
2405.70265892618	0.295654296875
2405.71265892616	0.295257568359375
2405.72265892613	0.29486083984375
2405.73265892611	0.294464111328125
2405.74265892608	0.2940673828125
2405.75265892606	0.293670654296875
2405.76265892603	0.29327392578125
2405.77265892601	0.292877197265625
2405.78265892598	0.29248046875
2405.79265892596	0.292083740234375
2405.80265892593	0.291717529296875
2405.81265892591	0.29132080078125
2405.82265892588	0.290924072265625
2405.83265892586	0.29052734375
2405.84265892583	0.290130615234375
2405.85265892581	0.28973388671875
2405.86265892578	0.28936767578125
2405.87265892576	0.288970947265625
2405.88265892573	0.28857421875
2405.8926589257	0.2882080078125
2405.90265892568	0.287811279296875
2405.91265892565	0.28741455078125
2405.92265892563	0.287017822265625
2405.9326589256	0.286651611328125
2405.94265892558	0.2862548828125
2405.95265892555	0.285858154296875
2405.96265892553	0.285491943359375
2405.9726589255	0.28509521484375
2405.98265892548	0.284698486328125
2405.99265892545	0.2843017578125
2406.00265892543	0.283935546875
2406.0126589254	0.283538818359375
2406.02265892538	0.28314208984375
2406.03265892535	0.282745361328125
2406.04265892533	0.282379150390625
2406.0526589253	0.281982421875
2406.06265892528	0.281585693359375
2406.07265892525	0.281219482421875
2406.08265892523	0.280853271484375
2406.0926589252	0.28045654296875
2406.10265892517	0.28009033203125
2406.11265892515	0.279693603515625
2406.12265892512	0.279296875
2406.1326589251	0.278900146484375
2406.14265892507	0.278533935546875
2406.15265892505	0.27813720703125
2406.16265892502	0.277740478515625
2406.172658925	0.27734375
2406.18265892497	0.276947021484375
2406.19265892495	0.276580810546875
2406.20265892492	0.27618408203125
2406.2126589249	0.275787353515625
2406.22265892487	0.275390625
2406.23265892485	0.2750244140625
2406.24265892482	0.274627685546875
2406.2526589248	0.27423095703125
2406.26265892477	0.273834228515625
2406.27265892475	0.2734375
2406.28265892472	0.2730712890625
2406.29265892469	0.272674560546875
2406.30265892467	0.27227783203125
2406.31265892464	0.271881103515625
2406.32265892462	0.271484375
2406.33265892459	0.271087646484375
2406.34265892457	0.270660400390625
2406.35265892454	0.270263671875
2406.36265892452	0.269866943359375
2406.37265892449	0.26947021484375
2406.38265892447	0.269073486328125
2406.39265892444	0.2686767578125
2406.40265892442	0.268280029296875
2406.41265892439	0.267852783203125
2406.42265892437	0.2674560546875
2406.43265892434	0.267059326171875
2406.44265892432	0.26666259765625
2406.45265892429	0.2662353515625
2406.46265892427	0.265838623046875
2406.47265892424	0.265472412109375
2406.48265892422	0.265045166015625
2406.49265892419	0.2646484375
2406.50265892416	0.26422119140625
2406.51265892414	0.263824462890625
2406.52265892411	0.263397216796875
2406.53265892409	0.26300048828125
2406.54265892406	0.2625732421875
2406.55265892404	0.262176513671875
2406.56265892401	0.261749267578125
2406.57265892399	0.261322021484375
2406.58265892396	0.260894775390625
2406.59265892394	0.260498046875
2406.60265892391	0.26007080078125
2406.61265892389	0.2596435546875
2406.62265892386	0.25921630859375
2406.63265892384	0.258819580078125
2406.64265892381	0.258392333984375
2406.65265892379	0.257965087890625
2406.66265892376	0.257537841796875
2406.67265892374	0.257110595703125
2406.68265892371	0.256683349609375
2406.69265892369	0.256256103515625
2406.70265892366	0.255828857421875
2406.71265892363	0.255401611328125
2406.72265892361	0.254974365234375
2406.73265892358	0.254547119140625
2406.74265892356	0.25408935546875
2406.75265892353	0.253662109375
2406.76265892351	0.25323486328125
2406.77265892348	0.2528076171875
2406.78265892346	0.252349853515625
2406.79265892343	0.251922607421875
2406.80265892341	0.251495361328125
2406.81265892338	0.25103759765625
2406.82265892336	0.2506103515625
2406.83265892333	0.25018310546875
2406.84265892331	0.249755859375
2406.85265892328	0.24932861328125
2406.86265892326	0.248870849609375
2406.87265892323	0.248443603515625
2406.88265892321	0.24798583984375
2406.89265892318	0.24755859375
2406.90265892315	0.247100830078125
2406.91265892313	0.24664306640625
2406.9226589231	0.2462158203125
2406.93265892308	0.245758056640625
2406.94265892305	0.24530029296875
2406.95265892303	0.244873046875
2406.962658923	0.244415283203125
2406.97265892298	0.24395751953125
2406.98265892295	0.243499755859375
2406.99265892293	0.243072509765625
2407.0026589229	0.24261474609375
2407.01265892288	0.242156982421875
2407.02265892285	0.241729736328125
2407.03265892283	0.24127197265625
2407.0426589228	0.240814208984375
2407.05265892278	0.2403564453125
2407.06265892275	0.239898681640625
2407.07265892273	0.23944091796875
2407.0826589227	0.238983154296875
2407.09265892268	0.238555908203125
2407.10265892265	0.238067626953125
2407.11265892262	0.237640380859375
2407.1226589226	0.2371826171875
2407.13265892257	0.236724853515625
2407.14265892255	0.23626708984375
2407.15265892252	0.235809326171875
2407.1626589225	0.2353515625
2407.17265892247	0.234893798828125
2407.18265892245	0.23443603515625
2407.19265892242	0.2340087890625
2407.2026589224	0.233551025390625
2407.21265892237	0.23309326171875
2407.22265892235	0.23260498046875
2407.23265892232	0.232177734375
2407.2426589223	0.231689453125
2407.25265892227	0.231231689453125
2407.26265892225	0.23077392578125
2407.27265892222	0.230316162109375
2407.2826589222	0.2298583984375
2407.29265892217	0.2293701171875
2407.30265892214	0.228912353515625
2407.31265892212	0.22845458984375
2407.32265892209	0.227996826171875
2407.33265892207	0.2275390625
2407.34265892204	0.22705078125
2407.35265892202	0.226593017578125
2407.36265892199	0.22613525390625
2407.37265892197	0.225677490234375
2407.38265892194	0.2252197265625
2407.39265892192	0.224761962890625
2407.40265892189	0.224273681640625
2407.41265892187	0.22381591796875
2407.42265892184	0.223358154296875
2407.43265892182	0.222900390625
2407.44265892179	0.222412109375
2407.45265892177	0.221954345703125
2407.46265892174	0.221466064453125
2407.47265892172	0.22100830078125
2407.48265892169	0.220550537109375
2407.49265892167	0.2200927734375
2407.50265892164	0.2196044921875
2407.51265892161	0.219146728515625
2407.52265892159	0.21868896484375
2407.53265892156	0.218231201171875
2407.54265892154	0.2177734375
2407.55265892151	0.21728515625
2407.56265892149	0.216827392578125
2407.57265892146	0.21636962890625
2407.58265892144	0.21588134765625
2407.59265892141	0.215423583984375
2407.60265892139	0.214935302734375
2407.61265892136	0.2144775390625
2407.62265892134	0.214019775390625
2407.63265892131	0.213531494140625
2407.64265892129	0.21307373046875
2407.65265892126	0.21258544921875
2407.66265892124	0.212127685546875
2407.67265892121	0.211669921875
2407.68265892119	0.211181640625
2407.69265892116	0.210723876953125
2407.70265892114	0.21026611328125
2407.71265892111	0.20977783203125
2407.72265892108	0.209320068359375
2407.73265892106	0.208831787109375
2407.74265892103	0.2083740234375
2407.75265892101	0.2078857421875
2407.76265892098	0.207427978515625
2407.77265892096	0.206939697265625
2407.78265892093	0.20648193359375
2407.79265892091	0.20599365234375
2407.80265892088	0.205535888671875
2407.81265892086	0.205047607421875
2407.82265892083	0.20458984375
2407.83265892081	0.2041015625
2407.84265892078	0.203643798828125
2407.85265892076	0.20318603515625
2407.86265892073	0.202728271484375
2407.87265892071	0.2022705078125
2407.88265892068	0.2017822265625
2407.89265892066	0.201324462890625
2407.90265892063	0.200836181640625
2407.9126589206	0.20037841796875
2407.92265892058	0.19989013671875
2407.93265892055	0.199432373046875
2407.94265892053	0.198944091796875
2407.9526589205	0.198455810546875
2407.96265892048	0.197998046875
2407.97265892045	0.197509765625
2407.98265892043	0.197052001953125
2407.9926589204	0.196563720703125
2408.00265892038	0.19610595703125
2408.01265892035	0.19561767578125
2408.02265892033	0.195159912109375
2408.0326589203	0.194671630859375
2408.04265892028	0.1942138671875
2408.05265892025	0.1937255859375
2408.06265892023	0.1932373046875
2408.0726589202	0.192779541015625
2408.08265892018	0.192291259765625
2408.09265892015	0.191802978515625
2408.10265892013	0.19134521484375
2408.1126589201	0.19085693359375
2408.12265892007	0.19036865234375
2408.13265892005	0.189910888671875
2408.14265892002	0.189422607421875
2408.15265892	0.188934326171875
2408.16265891997	0.1884765625
2408.17265891995	0.18798828125
2408.18265891992	0.1875
2408.1926589199	0.187042236328125
2408.20265891987	0.186553955078125
2408.21265891985	0.18609619140625
2408.22265891982	0.18560791015625
2408.2326589198	0.18511962890625
2408.24265891977	0.18463134765625
2408.25265891975	0.184173583984375
2408.26265891972	0.183685302734375
2408.2726589197	0.183197021484375
2408.28265891967	0.182708740234375
2408.29265891965	0.1822509765625
2408.30265891962	0.1817626953125
2408.31265891959	0.1812744140625
2408.32265891957	0.1807861328125
2408.33265891954	0.1802978515625
2408.34265891952	0.1798095703125
2408.35265891949	0.179351806640625
2408.36265891947	0.178863525390625
2408.37265891944	0.178375244140625
2408.38265891942	0.177886962890625
2408.39265891939	0.177398681640625
2408.40265891937	0.17694091796875
2408.41265891934	0.17645263671875
2408.42265891932	0.17596435546875
2408.43265891929	0.17547607421875
2408.44265891927	0.17498779296875
2408.45265891924	0.17449951171875
2408.46265891922	0.17401123046875
2408.47265891919	0.17352294921875
2408.48265891917	0.17303466796875
2408.49265891914	0.17254638671875
2408.50265891912	0.17205810546875
2408.51265891909	0.171630859375
2408.52265891906	0.171112060546875
2408.53265891904	0.170623779296875
2408.54265891901	0.170135498046875
2408.55265891899	0.169677734375
2408.56265891896	0.169158935546875
2408.57265891894	0.168670654296875
2408.58265891891	0.168182373046875
2408.59265891889	0.167694091796875
2408.60265891886	0.167205810546875
2408.61265891884	0.166717529296875
2408.62265891881	0.166229248046875
2408.63265891879	0.165740966796875
2408.64265891876	0.165252685546875
2408.65265891874	0.164764404296875
2408.66265891871	0.16424560546875
2408.67265891869	0.163787841796875
2408.68265891866	0.163299560546875
2408.69265891864	0.16278076171875
2408.70265891861	0.16229248046875
2408.71265891859	0.16180419921875
2408.72265891856	0.16131591796875
2408.73265891853	0.160797119140625
2408.74265891851	0.160308837890625
2408.75265891848	0.159820556640625
2408.76265891846	0.159332275390625
2408.77265891843	0.1588134765625
2408.78265891841	0.1583251953125
2408.79265891838	0.1578369140625
2408.80265891836	0.1573486328125
2408.81265891833	0.156829833984375
2408.82265891831	0.156341552734375
2408.83265891828	0.1558837890625
2408.84265891826	0.155364990234375
2408.85265891823	0.154876708984375
2408.86265891821	0.154388427734375
2408.87265891818	0.15386962890625
2408.88265891816	0.15338134765625
2408.89265891813	0.152862548828125
2408.90265891811	0.152374267578125
2408.91265891808	0.15185546875
2408.92265891805	0.1513671875
2408.93265891803	0.15087890625
2408.942658918	0.150360107421875
2408.95265891798	0.149871826171875
2408.96265891795	0.14935302734375
2408.97265891793	0.14886474609375
2408.9826589179	0.14837646484375
2408.99265891788	0.147857666015625
2409.00265891785	0.147369384765625
2409.01265891783	0.1468505859375
2409.0226589178	0.1463623046875
2409.03265891778	0.145843505859375
2409.04265891775	0.145355224609375
2409.05265891773	0.14483642578125
2409.0626589177	0.14434814453125
2409.07265891768	0.143829345703125
2409.08265891765	0.143310546875
2409.09265891763	0.142822265625
2409.1026589176	0.142303466796875
2409.11265891758	0.141815185546875
2409.12265891755	0.14129638671875
2409.13265891752	0.14080810546875
2409.1426589175	0.14031982421875
2409.15265891747	0.139801025390625
2409.16265891745	0.139312744140625
2409.17265891742	0.1387939453125
2409.1826589174	0.1383056640625
2409.19265891737	0.137786865234375
2409.20265891735	0.13726806640625
2409.21265891732	0.136749267578125
2409.2226589173	0.136260986328125
2409.23265891727	0.1357421875
2409.24265891725	0.135223388671875
2409.25265891722	0.13470458984375
2409.2626589172	0.13421630859375
2409.27265891717	0.133697509765625
2409.28265891715	0.1331787109375
2409.29265891712	0.1326904296875
2409.3026589171	0.132171630859375
2409.31265891707	0.131683349609375
2409.32265891704	0.13116455078125
2409.33265891702	0.130645751953125
2409.34265891699	0.130126953125
2409.35265891697	0.129608154296875
2409.36265891694	0.129119873046875
2409.37265891692	0.12860107421875
2409.38265891689	0.128082275390625
2409.39265891687	0.1275634765625
2409.40265891684	0.127044677734375
2409.41265891682	0.12652587890625
2409.42265891679	0.126007080078125
2409.43265891677	0.12548828125
2409.44265891674	0.125
2409.45265891672	0.12451171875
2409.46265891669	0.123992919921875
2409.47265891667	0.12347412109375
2409.48265891664	0.122955322265625
2409.49265891662	0.1224365234375
2409.50265891659	0.121917724609375
2409.51265891657	0.12139892578125
2409.52265891654	0.120880126953125
2409.53265891651	0.120361328125
2409.54265891649	0.119842529296875
2409.55265891646	0.119354248046875
2409.56265891644	0.118804931640625
2409.57265891641	0.118316650390625
2409.58265891639	0.1177978515625
2409.59265891636	0.117279052734375
2409.60265891634	0.11676025390625
2409.61265891631	0.116241455078125
2409.62265891629	0.11572265625
2409.63265891626	0.115203857421875
2409.64265891624	0.11468505859375
2409.65265891621	0.114166259765625
2409.66265891619	0.1136474609375
2409.67265891616	0.113128662109375
2409.68265891614	0.11260986328125
2409.69265891611	0.112091064453125
2409.70265891609	0.111572265625
2409.71265891606	0.111053466796875
2409.72265891604	0.11053466796875
2409.73265891601	0.110015869140625
2409.74265891598	0.109527587890625
2409.75265891596	0.109039306640625
2409.76265891593	0.1085205078125
2409.77265891591	0.108001708984375
2409.78265891588	0.10748291015625
2409.79265891586	0.106964111328125
2409.80265891583	0.1064453125
2409.81265891581	0.105926513671875
2409.82265891578	0.10540771484375
2409.83265891576	0.104888916015625
2409.84265891573	0.1043701171875
2409.85265891571	0.103851318359375
2409.86265891568	0.10333251953125
2409.87265891566	0.102813720703125
2409.88265891563	0.102294921875
2409.89265891561	0.101776123046875
2409.90265891558	0.10125732421875
2409.91265891556	0.100738525390625
2409.92265891553	0.1002197265625
2409.9326589155	0.099700927734375
2409.94265891548	0.09918212890625
2409.95265891545	0.098663330078125
2409.96265891543	0.09814453125
2409.9726589154	0.097625732421875
2409.98265891538	0.09710693359375
2409.99265891535	0.096588134765625
2410.00265891533	0.0960693359375
2410.0126589153	0.095550537109375
2410.02265891528	0.09503173828125
2410.03265891525	0.094512939453125
2410.04265891523	0.093994140625
2410.0526589152	0.093505859375
2410.06265891518	0.092987060546875
2410.07265891515	0.09246826171875
2410.08265891513	0.091949462890625
2410.0926589151	0.0914306640625
2410.10265891508	0.090911865234375
2410.11265891505	0.09039306640625
2410.12265891503	0.089874267578125
2410.132658915	0.08935546875
2410.14265891497	0.088836669921875
2410.15265891495	0.08831787109375
2410.16265891492	0.087799072265625
2410.1726589149	0.0872802734375
2410.18265891487	0.0867919921875
2410.19265891485	0.086273193359375
2410.20265891482	0.08575439453125
2410.2126589148	0.085235595703125
2410.22265891477	0.084716796875
2410.23265891475	0.084228515625
2410.24265891472	0.083709716796875
2410.2526589147	0.08319091796875
2410.26265891467	0.082672119140625
2410.27265891465	0.0821533203125
2410.28265891462	0.081634521484375
2410.2926589146	0.08111572265625
2410.30265891457	0.080596923828125
2410.31265891455	0.080108642578125
2410.32265891452	0.07958984375
2410.33265891449	0.079071044921875
2410.34265891447	0.07855224609375
2410.35265891444	0.07806396484375
2410.36265891442	0.07757568359375
2410.37265891439	0.077056884765625
2410.38265891437	0.076568603515625
2410.39265891434	0.0760498046875
2410.40265891432	0.075531005859375
2410.41265891429	0.07501220703125
2410.42265891427	0.074493408203125
2410.43265891424	0.074005126953125
2410.44265891422	0.073486328125
2410.45265891419	0.072967529296875
2410.46265891417	0.072479248046875
2410.47265891414	0.07196044921875
2410.48265891412	0.071441650390625
2410.49265891409	0.070953369140625
2410.50265891407	0.0704345703125
2410.51265891404	0.0699462890625
2410.52265891402	0.069427490234375
2410.53265891399	0.06890869140625
2410.54265891396	0.06842041015625
2410.55265891394	0.067901611328125
2410.56265891391	0.067413330078125
2410.57265891389	0.06689453125
2410.58265891386	0.066375732421875
2410.59265891384	0.065887451171875
2410.60265891381	0.06536865234375
2410.61265891379	0.06488037109375
2410.62265891376	0.064361572265625
2410.63265891374	0.063873291015625
2410.64265891371	0.0633544921875
2410.65265891369	0.0628662109375
2410.66265891366	0.0623779296875
2410.67265891364	0.061859130859375
2410.68265891361	0.061370849609375
2410.69265891359	0.06085205078125
2410.70265891356	0.06036376953125
2410.71265891354	0.059844970703125
2410.72265891351	0.059356689453125
2410.73265891349	0.058868408203125
2410.74265891346	0.058349609375
2410.75265891343	0.057861328125
2410.76265891341	0.057342529296875
2410.77265891338	0.056854248046875
2410.78265891336	0.056365966796875
2410.79265891333	0.05584716796875
2410.80265891331	0.05535888671875
2410.81265891328	0.05487060546875
2410.82265891326	0.05438232421875
2410.83265891323	0.053863525390625
2410.84265891321	0.053375244140625
2410.85265891318	0.052886962890625
2410.86265891316	0.0523681640625
2410.87265891313	0.0518798828125
2410.88265891311	0.0513916015625
2410.89265891308	0.0509033203125
2410.90265891306	0.050384521484375
2410.91265891303	0.049896240234375
2410.92265891301	0.0493988037109375
2410.93265891298	0.048907470703125
2410.94265891295	0.0484130859375
2410.95265891293	0.0479248046875
2410.9626589129	0.047430419921875
2410.97265891288	0.0469390869140625
2410.98265891285	0.04644775390625
2410.99265891283	0.045953369140625
2411.0026589128	0.045465087890625
2411.01265891278	0.044976806640625
2411.02265891275	0.044482421875
2411.03265891273	0.0439910888671875
2411.0426589127	0.0435028076171875
2411.05265891268	0.0430145263671875
2411.06265891265	0.042523193359375
2411.07265891263	0.042034912109375
2411.0826589126	0.041546630859375
2411.09265891258	0.041058349609375
2411.10265891255	0.040570068359375
2411.11265891253	0.040081787109375
2411.1226589125	0.039593505859375
2411.13265891248	0.0391082763671875
2411.14265891245	0.0386199951171875
2411.15265891242	0.038134765625
2411.1626589124	0.0376434326171875
2411.17265891237	0.0371612548828125
2411.18265891235	0.0366729736328125
2411.19265891232	0.036187744140625
2411.2026589123	0.03570556640625
2411.21265891227	0.035223388671875
2411.22265891225	0.034735107421875
2411.23265891222	0.0342529296875
2411.2426589122	0.033770751953125
2411.25265891217	0.03328857421875
2411.26265891215	0.0328033447265625
2411.27265891212	0.03232421875
2411.2826589121	0.0318389892578125
2411.29265891207	0.03135986328125
2411.30265891205	0.0308807373046875
2411.31265891202	0.030401611328125
2411.322658912	0.02991943359375
2411.33265891197	0.029443359375
2411.34265891194	0.028961181640625
2411.35265891192	0.028485107421875
2411.36265891189	0.0280059814453125
2411.37265891187	0.0275299072265625
2411.38265891184	0.02705078125
2411.39265891182	0.02657470703125
2411.40265891179	0.0260986328125
2411.41265891177	0.0256256103515625
2411.42265891174	0.025146484375
2411.43265891172	0.0246734619140625
2411.44265891169	0.0241973876953125
2411.45265891167	0.023724365234375
2411.46265891164	0.0232513427734375
2411.47265891162	0.0227783203125
2411.48265891159	0.0223052978515625
2411.49265891157	0.0218353271484375
2411.50265891154	0.0213623046875
2411.51265891152	0.0208892822265625
2411.52265891149	0.0204193115234375
2411.53265891147	0.0199493408203125
2411.54265891144	0.019482421875
2411.55265891141	0.0190093994140625
2411.56265891139	0.01854248046875
2411.57265891136	0.018072509765625
2411.58265891134	0.0176025390625
2411.59265891131	0.017138671875
2411.60265891129	0.0166717529296875
2411.61265891126	0.0162078857421875
2411.62265891124	0.015740966796875
2411.63265891121	0.015277099609375
2411.64265891119	0.0148101806640625
2411.65265891116	0.014349365234375
2411.66265891114	0.013885498046875
2411.67265891111	0.013421630859375
2411.68265891109	0.0129608154296875
2411.69265891106	0.0125
2411.70265891104	0.0120391845703125
2411.71265891101	0.011578369140625
2411.72265891099	0.0111175537109375
2411.73265891096	0.010662841796875
2411.74265891094	0.0102020263671875
2411.75265891091	0.00974426269531251
2411.76265891088	0.00928649902343751
2411.77265891086	0.00882873535156251
2411.78265891083	0.00837097167968751
2411.79265891081	0.007916259765625
2411.80265891078	0.007464599609375
2411.81265891076	0.0070068359375
2411.82265891073	0.00655212402343749
2411.83265891071	0.006103515625
2411.84265891068	0.0056488037109375
2411.85265891066	0.00519714355468751
2411.86265891063	0.0047454833984375
2411.87265891061	0.00429687500000001
2411.88265891058	0.0038421630859375
2411.89265891056	0.00339355468749999
2411.90265891053	0.002947998046875
2411.91265891051	0.0024993896484375
2411.92265891048	0.00205078124999999
2411.93265891046	0.001605224609375
2411.94265891043	0.00115966796875
2411.9526589104	0.000714111328125003
2411.96265891038	0.000265502929687494
2411.97265891035	-0.000173950195312494
2411.98265891033	-0.000622558593750003
2411.9926589103	-0.0010650634765625
2412.00265891028	-0.00150451660156251
