Time (s)	WE(1).Potential (V)
2329.60676011831	0.75958251953125
2329.61676011828	0.75897216796875
2329.62676011826	0.75836181640625
2329.63676011823	0.75775146484375
2329.64676011821	0.7574462890625
2329.65676011818	0.7568359375
2329.66676011816	0.7562255859375
2329.67676011813	0.75592041015625
2329.68676011811	0.75531005859375
2329.69676011808	0.75469970703125
2329.70676011806	0.75408935546875
2329.71676011803	0.7537841796875
2329.72676011801	0.753173828125
2329.73676011798	0.7525634765625
2329.74676011796	0.751953125
2329.75676011793	0.75164794921875
2329.7667601179	0.75103759765625
2329.77676011788	0.750732421875
2329.78676011785	0.7501220703125
2329.79676011783	0.74951171875
2329.8067601178	0.7489013671875
2329.81676011778	0.74859619140625
2329.82676011775	0.74798583984375
2329.83676011773	0.74737548828125
2329.8467601177	0.7470703125
2329.85676011768	0.7464599609375
2329.86676011765	0.745849609375
2329.87676011763	0.74554443359375
2329.8867601176	0.74493408203125
2329.89676011758	0.74432373046875
2329.90676011755	0.7440185546875
2329.91676011753	0.743408203125
2329.9267601175	0.7427978515625
2329.93676011748	0.74249267578125
2329.94676011745	0.74188232421875
2329.95676011742	0.74127197265625
2329.9667601174	0.740966796875
2329.97676011737	0.7403564453125
2329.98676011735	0.73974609375
2329.99676011732	0.73944091796875
2330.0067601173	0.73883056640625
2330.01676011727	0.73822021484375
2330.02676011725	0.7379150390625
2330.03676011722	0.7373046875
2330.0467601172	0.7366943359375
2330.05676011717	0.73638916015625
2330.06676011715	0.73577880859375
2330.07676011712	0.73516845703125
2330.0867601171	0.73486328125
2330.09676011707	0.7342529296875
2330.10676011705	0.73394775390625
2330.11676011702	0.73333740234375
2330.126760117	0.73272705078125
2330.13676011697	0.73211669921875
2330.14676011695	0.7318115234375
2330.15676011692	0.731201171875
2330.16676011689	0.73089599609375
2330.17676011687	0.73028564453125
2330.18676011684	0.72967529296875
2330.19676011682	0.7293701171875
2330.20676011679	0.728759765625
2330.21676011677	0.7281494140625
2330.22676011674	0.72784423828125
2330.23676011672	0.72723388671875
2330.24676011669	0.7269287109375
2330.25676011667	0.726318359375
2330.26676011664	0.7257080078125
2330.27676011662	0.72540283203125
2330.28676011659	0.72479248046875
2330.29676011657	0.72418212890625
2330.30676011654	0.723876953125
2330.31676011652	0.7232666015625
2330.32676011649	0.72296142578125
2330.33676011647	0.72235107421875
2330.34676011644	0.72174072265625
2330.35676011641	0.721435546875
2330.36676011639	0.7208251953125
2330.37676011636	0.72052001953125
2330.38676011634	0.71990966796875
2330.39676011631	0.71929931640625
2330.40676011629	0.718994140625
2330.41676011626	0.7183837890625
2330.42676011624	0.7177734375
2330.43676011621	0.71746826171875
2330.44676011619	0.71685791015625
2330.45676011616	0.716552734375
2330.46676011614	0.7159423828125
2330.47676011611	0.71533203125
2330.48676011609	0.71502685546875
2330.49676011606	0.71441650390625
2330.50676011604	0.714111328125
2330.51676011601	0.7135009765625
2330.52676011599	0.712890625
2330.53676011596	0.71258544921875
2330.54676011594	0.71197509765625
2330.55676011591	0.711669921875
2330.56676011588	0.7110595703125
2330.57676011586	0.71044921875
2330.58676011583	0.71014404296875
2330.59676011581	0.70953369140625
2330.60676011578	0.709228515625
2330.61676011576	0.7086181640625
2330.62676011573	0.70831298828125
2330.63676011571	0.70770263671875
2330.64676011568	0.70709228515625
2330.65676011566	0.706787109375
2330.66676011563	0.7061767578125
2330.67676011561	0.70587158203125
2330.68676011558	0.70526123046875
2330.69676011556	0.70465087890625
2330.70676011553	0.704345703125
2330.71676011551	0.7037353515625
2330.72676011548	0.70343017578125
2330.73676011546	0.70281982421875
2330.74676011543	0.7025146484375
2330.75676011541	0.701904296875
2330.76676011538	0.70159912109375
2330.77676011535	0.70098876953125
2330.78676011533	0.70037841796875
2330.7967601153	0.7000732421875
2330.80676011528	0.699462890625
2330.81676011525	0.69915771484375
2330.82676011523	0.69854736328125
2330.8367601152	0.6982421875
2330.84676011518	0.6976318359375
2330.85676011515	0.697021484375
2330.86676011513	0.69671630859375
2330.8767601151	0.69610595703125
2330.88676011508	0.69580078125
2330.89676011505	0.6951904296875
2330.90676011503	0.69488525390625
2330.916760115	0.69427490234375
2330.92676011498	0.6939697265625
2330.93676011495	0.693359375
2330.94676011493	0.6927490234375
2330.9567601149	0.69244384765625
2330.96676011487	0.69183349609375
2330.97676011485	0.6915283203125
2330.98676011482	0.69091796875
2330.9967601148	0.6903076171875
2331.00676011477	0.69000244140625
2331.01676011475	0.68939208984375
2331.02676011472	0.6890869140625
2331.0367601147	0.6884765625
2331.04676011467	0.68817138671875
2331.05676011465	0.68756103515625
2331.06676011462	0.687255859375
2331.0767601146	0.6866455078125
2331.08676011457	0.68603515625
2331.09676011455	0.68572998046875
2331.10676011452	0.68511962890625
2331.1167601145	0.684814453125
2331.12676011447	0.6842041015625
2331.13676011445	0.68389892578125
2331.14676011442	0.68328857421875
2331.1567601144	0.68267822265625
2331.16676011437	0.682373046875
2331.17676011434	0.6817626953125
2331.18676011432	0.68145751953125
2331.19676011429	0.68084716796875
2331.20676011427	0.6805419921875
2331.21676011424	0.679931640625
2331.22676011422	0.67962646484375
2331.23676011419	0.67901611328125
2331.24676011417	0.67840576171875
2331.25676011414	0.6781005859375
2331.26676011412	0.67779541015625
2331.27676011409	0.67718505859375
2331.28676011407	0.67657470703125
2331.29676011404	0.67626953125
2331.30676011402	0.6756591796875
2331.31676011399	0.67535400390625
2331.32676011397	0.67474365234375
2331.33676011394	0.6744384765625
2331.34676011392	0.673828125
2331.35676011389	0.67352294921875
2331.36676011386	0.67291259765625
2331.37676011384	0.67230224609375
2331.38676011381	0.6719970703125
2331.39676011379	0.67138671875
2331.40676011376	0.67108154296875
2331.41676011374	0.67047119140625
2331.42676011371	0.670166015625
2331.43676011369	0.6695556640625
2331.44676011366	0.66925048828125
2331.45676011364	0.66864013671875
2331.46676011361	0.6683349609375
2331.47676011359	0.667724609375
2331.48676011356	0.6671142578125
2331.49676011354	0.66680908203125
2331.50676011351	0.66619873046875
2331.51676011349	0.6658935546875
2331.52676011346	0.665283203125
2331.53676011344	0.66497802734375
2331.54676011341	0.66436767578125
2331.55676011339	0.6640625
2331.56676011336	0.6634521484375
2331.57676011333	0.66314697265625
2331.58676011331	0.66253662109375
2331.59676011328	0.6622314453125
2331.60676011326	0.66162109375
2331.61676011323	0.6610107421875
2331.62676011321	0.66070556640625
2331.63676011318	0.66009521484375
2331.64676011316	0.6597900390625
2331.65676011313	0.6591796875
2331.66676011311	0.65887451171875
2331.67676011308	0.65826416015625
2331.68676011306	0.657958984375
2331.69676011303	0.6573486328125
2331.70676011301	0.65704345703125
2331.71676011298	0.65643310546875
2331.72676011296	0.6561279296875
2331.73676011293	0.655517578125
2331.74676011291	0.65521240234375
2331.75676011288	0.65460205078125
2331.76676011286	0.654296875
2331.77676011283	0.6536865234375
2331.7867601128	0.65338134765625
2331.79676011278	0.65277099609375
2331.80676011275	0.65216064453125
2331.81676011273	0.65185546875
2331.8267601127	0.65155029296875
2331.83676011268	0.65093994140625
2331.84676011265	0.650634765625
2331.85676011263	0.6500244140625
2331.8667601126	0.6494140625
2331.87676011258	0.64910888671875
2331.88676011255	0.6488037109375
2331.89676011253	0.648193359375
2331.9067601125	0.6475830078125
2331.91676011248	0.64727783203125
2331.92676011245	0.64666748046875
2331.93676011243	0.6463623046875
2331.9467601124	0.645751953125
2331.95676011238	0.64544677734375
2331.96676011235	0.64483642578125
2331.97676011232	0.64453125
2331.9867601123	0.6439208984375
2331.99676011227	0.64361572265625
2332.00676011225	0.64300537109375
2332.01676011222	0.6427001953125
2332.0267601122	0.64208984375
2332.03676011217	0.64178466796875
2332.04676011215	0.64117431640625
2332.05676011212	0.640869140625
2332.0667601121	0.6402587890625
2332.07676011207	0.63995361328125
2332.08676011205	0.63934326171875
2332.09676011202	0.6390380859375
2332.106760112	0.638427734375
2332.11676011197	0.63812255859375
2332.12676011195	0.63751220703125
2332.13676011192	0.63720703125
2332.1467601119	0.6365966796875
2332.15676011187	0.63629150390625
2332.16676011185	0.63568115234375
2332.17676011182	0.6353759765625
2332.18676011179	0.634765625
2332.19676011177	0.63446044921875
2332.20676011174	0.63385009765625
2332.21676011172	0.633544921875
2332.22676011169	0.6329345703125
2332.23676011167	0.63262939453125
2332.24676011164	0.63201904296875
2332.25676011162	0.6317138671875
2332.26676011159	0.631103515625
2332.27676011157	0.63079833984375
2332.28676011154	0.63018798828125
2332.29676011152	0.6298828125
2332.30676011149	0.6292724609375
2332.31676011147	0.62896728515625
2332.32676011144	0.62835693359375
2332.33676011142	0.6280517578125
2332.34676011139	0.62744140625
2332.35676011137	0.62713623046875
2332.36676011134	0.62652587890625
2332.37676011131	0.626220703125
2332.38676011129	0.6256103515625
2332.39676011126	0.62530517578125
2332.40676011124	0.625
2332.41676011121	0.6243896484375
2332.42676011119	0.62408447265625
2332.43676011116	0.62347412109375
2332.44676011114	0.6231689453125
2332.45676011111	0.62255859375
2332.46676011109	0.62225341796875
2332.47676011106	0.62164306640625
2332.48676011104	0.621337890625
2332.49676011101	0.6207275390625
2332.50676011099	0.62042236328125
2332.51676011096	0.61981201171875
2332.52676011094	0.6195068359375
2332.53676011091	0.61920166015625
2332.54676011089	0.61859130859375
2332.55676011086	0.6182861328125
2332.56676011084	0.61767578125
2332.57676011081	0.61737060546875
2332.58676011078	0.61676025390625
2332.59676011076	0.61614990234375
2332.60676011073	0.6158447265625
2332.61676011071	0.61553955078125
2332.62676011068	0.61492919921875
2332.63676011066	0.6146240234375
2332.64676011063	0.614013671875
2332.65676011061	0.61370849609375
2332.66676011058	0.61309814453125
2332.67676011056	0.61279296875
2332.68676011053	0.6121826171875
2332.69676011051	0.61187744140625
2332.70676011048	0.61126708984375
2332.71676011046	0.6109619140625
2332.72676011043	0.6103515625
2332.73676011041	0.61004638671875
2332.74676011038	0.60943603515625
2332.75676011036	0.609130859375
2332.76676011033	0.6085205078125
2332.77676011031	0.60821533203125
2332.78676011028	0.60760498046875
2332.79676011025	0.6072998046875
2332.80676011023	0.606689453125
2332.8167601102	0.60638427734375
2332.82676011018	0.6060791015625
2332.83676011015	0.60546875
2332.84676011013	0.60516357421875
2332.8567601101	0.60455322265625
2332.86676011008	0.604248046875
2332.87676011005	0.6036376953125
2332.88676011003	0.60333251953125
2332.89676011	0.60272216796875
2332.90676010998	0.6024169921875
2332.91676010995	0.601806640625
2332.92676010993	0.60150146484375
2332.9367601099	0.60089111328125
2332.94676010988	0.6005859375
2332.95676010985	0.5999755859375
2332.96676010983	0.59967041015625
2332.9767601098	0.59906005859375
2332.98676010977	0.5987548828125
2332.99676010975	0.59844970703125
2333.00676010972	0.59783935546875
2333.0167601097	0.5975341796875
2333.02676010967	0.596923828125
2333.03676010965	0.59661865234375
2333.04676010962	0.59600830078125
2333.0567601096	0.595703125
2333.06676010957	0.5950927734375
2333.07676010955	0.59478759765625
2333.08676010952	0.59417724609375
2333.0967601095	0.5938720703125
2333.10676010947	0.59326171875
2333.11676010945	0.59295654296875
2333.12676010942	0.59234619140625
2333.1367601094	0.592041015625
2333.14676010937	0.59173583984375
2333.15676010935	0.59112548828125
2333.16676010932	0.5908203125
2333.1767601093	0.5902099609375
2333.18676010927	0.58990478515625
2333.19676010924	0.58929443359375
2333.20676010922	0.5889892578125
2333.21676010919	0.58837890625
2333.22676010917	0.58807373046875
2333.23676010914	0.58746337890625
2333.24676010912	0.587158203125
2333.25676010909	0.5865478515625
2333.26676010907	0.58624267578125
2333.27676010904	0.5859375
2333.28676010902	0.5853271484375
2333.29676010899	0.58502197265625
2333.30676010897	0.58441162109375
2333.31676010894	0.5841064453125
2333.32676010892	0.58349609375
2333.33676010889	0.58319091796875
2333.34676010887	0.58258056640625
2333.35676010884	0.582275390625
2333.36676010882	0.5816650390625
2333.37676010879	0.58135986328125
2333.38676010876	0.5810546875
2333.39676010874	0.5804443359375
2333.40676010871	0.58013916015625
2333.41676010869	0.57952880859375
2333.42676010866	0.5792236328125
2333.43676010864	0.57861328125
2333.44676010861	0.57830810546875
2333.45676010859	0.57769775390625
2333.46676010856	0.577392578125
2333.47676010854	0.57708740234375
2333.48676010851	0.57647705078125
2333.49676010849	0.576171875
2333.50676010846	0.5755615234375
2333.51676010844	0.57525634765625
2333.52676010841	0.57464599609375
2333.53676010839	0.5743408203125
2333.54676010836	0.57373046875
2333.55676010834	0.57342529296875
2333.56676010831	0.57281494140625
2333.57676010829	0.572509765625
2333.58676010826	0.57220458984375
2333.59676010823	0.57159423828125
2333.60676010821	0.5712890625
2333.61676010818	0.5706787109375
2333.62676010816	0.57037353515625
2333.63676010813	0.570068359375
2333.64676010811	0.5694580078125
2333.65676010808	0.56915283203125
2333.66676010806	0.56854248046875
2333.67676010803	0.5682373046875
2333.68676010801	0.567626953125
2333.69676010798	0.56732177734375
2333.70676010796	0.56671142578125
2333.71676010793	0.56640625
2333.72676010791	0.56610107421875
2333.73676010788	0.56549072265625
2333.74676010786	0.565185546875
2333.75676010783	0.5645751953125
2333.76676010781	0.56427001953125
2333.77676010778	0.56365966796875
2333.78676010776	0.5633544921875
2333.79676010773	0.56304931640625
2333.8067601077	0.56243896484375
2333.81676010768	0.5621337890625
2333.82676010765	0.5615234375
2333.83676010763	0.56121826171875
2333.8467601076	0.56060791015625
2333.85676010758	0.560302734375
2333.86676010755	0.5596923828125
2333.87676010753	0.55938720703125
2333.8867601075	0.55908203125
2333.89676010748	0.5584716796875
2333.90676010745	0.55816650390625
2333.91676010743	0.557861328125
2333.9267601074	0.5572509765625
2333.93676010738	0.55694580078125
2333.94676010735	0.55633544921875
2333.95676010733	0.5560302734375
2333.9667601073	0.555419921875
2333.97676010728	0.55511474609375
2333.98676010725	0.5548095703125
2333.99676010722	0.55419921875
2334.0067601072	0.55389404296875
2334.01676010717	0.55328369140625
2334.02676010715	0.552978515625
2334.03676010712	0.5523681640625
2334.0467601071	0.55206298828125
2334.05676010707	0.5517578125
2334.06676010705	0.5511474609375
2334.07676010702	0.55084228515625
2334.086760107	0.55023193359375
2334.09676010697	0.5499267578125
2334.10676010695	0.54962158203125
2334.11676010692	0.54901123046875
2334.1267601069	0.5487060546875
2334.13676010687	0.548095703125
2334.14676010685	0.54779052734375
2334.15676010682	0.5474853515625
2334.1667601068	0.546875
2334.17676010677	0.54656982421875
2334.18676010675	0.5462646484375
2334.19676010672	0.54595947265625
2334.20676010669	0.54534912109375
2334.21676010667	0.5450439453125
2334.22676010664	0.54443359375
2334.23676010662	0.54412841796875
2334.24676010659	0.54351806640625
2334.25676010657	0.543212890625
2334.26676010654	0.5426025390625
2334.27676010652	0.54229736328125
2334.28676010649	0.5419921875
2334.29676010647	0.5413818359375
2334.30676010644	0.54107666015625
2334.31676010642	0.54046630859375
2334.32676010639	0.5401611328125
2334.33676010637	0.53985595703125
2334.34676010634	0.53924560546875
2334.35676010632	0.5389404296875
2334.36676010629	0.538330078125
2334.37676010627	0.53802490234375
2334.38676010624	0.5377197265625
2334.39676010621	0.537109375
2334.40676010619	0.53680419921875
2334.41676010616	0.5364990234375
2334.42676010614	0.535888671875
2334.43676010611	0.53558349609375
2334.44676010609	0.53497314453125
2334.45676010606	0.53466796875
2334.46676010604	0.5340576171875
2334.47676010601	0.53375244140625
2334.48676010599	0.533447265625
2334.49676010596	0.5328369140625
2334.50676010594	0.53253173828125
2334.51676010591	0.53192138671875
2334.52676010589	0.5316162109375
2334.53676010586	0.53131103515625
2334.54676010584	0.53070068359375
2334.55676010581	0.5303955078125
2334.56676010579	0.52978515625
2334.57676010576	0.52947998046875
2334.58676010574	0.5291748046875
2334.59676010571	0.528564453125
2334.60676010568	0.52825927734375
2334.61676010566	0.52764892578125
2334.62676010563	0.52734375
2334.63676010561	0.52703857421875
2334.64676010558	0.52642822265625
2334.65676010556	0.526123046875
2334.66676010553	0.5255126953125
2334.67676010551	0.52520751953125
2334.68676010548	0.52490234375
2334.69676010546	0.5242919921875
2334.70676010543	0.52398681640625
2334.71676010541	0.523681640625
2334.72676010538	0.5230712890625
2334.73676010536	0.52276611328125
2334.74676010533	0.52215576171875
2334.75676010531	0.5218505859375
2334.76676010528	0.52154541015625
2334.77676010526	0.52093505859375
2334.78676010523	0.5206298828125
2334.79676010521	0.52001953125
2334.80676010518	0.51971435546875
2334.81676010515	0.5194091796875
2334.82676010513	0.518798828125
2334.8367601051	0.51849365234375
2334.84676010508	0.5181884765625
2334.85676010505	0.517578125
2334.86676010503	0.51727294921875
2334.876760105	0.51666259765625
2334.88676010498	0.516357421875
2334.89676010495	0.51605224609375
2334.90676010493	0.51544189453125
2334.9167601049	0.51513671875
2334.92676010488	0.5145263671875
2334.93676010485	0.51422119140625
2334.94676010483	0.513916015625
2334.9567601048	0.5133056640625
2334.96676010478	0.51300048828125
2334.97676010475	0.5126953125
2334.98676010473	0.5120849609375
2334.9967601047	0.51177978515625
2335.00676010467	0.51116943359375
2335.01676010465	0.5108642578125
2335.02676010462	0.51055908203125
2335.0367601046	0.50994873046875
2335.04676010457	0.5096435546875
2335.05676010455	0.50933837890625
2335.06676010452	0.50872802734375
2335.0767601045	0.5084228515625
2335.08676010447	0.5078125
2335.09676010445	0.50750732421875
2335.10676010442	0.5072021484375
2335.1167601044	0.506591796875
2335.12676010437	0.50628662109375
2335.13676010435	0.50567626953125
2335.14676010432	0.50537109375
2335.1567601043	0.50506591796875
2335.16676010427	0.50445556640625
2335.17676010425	0.504150390625
2335.18676010422	0.5035400390625
2335.1967601042	0.50323486328125
2335.20676010417	0.5029296875
2335.21676010414	0.5023193359375
2335.22676010412	0.50201416015625
2335.23676010409	0.501708984375
2335.24676010407	0.5010986328125
2335.25676010404	0.50079345703125
2335.26676010402	0.50048828125
2335.27676010399	0.4998779296875
2335.28676010397	0.499603271484375
2335.29676010394	0.499176025390625
2335.30676010392	0.498779296875
2335.31676010389	0.49835205078125
2335.32676010387	0.4979248046875
2335.33676010384	0.497528076171875
2335.34676010382	0.497100830078125
2335.35676010379	0.496673583984375
2335.36676010377	0.49627685546875
2335.37676010374	0.495849609375
2335.38676010372	0.49542236328125
2335.39676010369	0.495025634765625
2335.40676010366	0.494598388671875
2335.41676010364	0.494171142578125
2335.42676010361	0.4937744140625
2335.43676010359	0.49334716796875
2335.44676010356	0.492950439453125
2335.45676010354	0.492523193359375
2335.46676010351	0.49212646484375
2335.47676010349	0.49169921875
2335.48676010346	0.491302490234375
2335.49676010344	0.490875244140625
2335.50676010341	0.490478515625
2335.51676010339	0.49005126953125
2335.52676010336	0.489654541015625
2335.53676010334	0.489227294921875
2335.54676010331	0.48883056640625
2335.55676010329	0.4884033203125
2335.56676010326	0.48797607421875
2335.57676010324	0.487579345703125
2335.58676010321	0.487152099609375
2335.59676010319	0.48675537109375
2335.60676010316	0.486358642578125
2335.61676010313	0.485931396484375
2335.62676010311	0.48553466796875
2335.63676010308	0.485107421875
2335.64676010306	0.484710693359375
2335.65676010303	0.48431396484375
2335.66676010301	0.483917236328125
2335.67676010298	0.4835205078125
2335.68676010296	0.483123779296875
2335.69676010293	0.482696533203125
2335.70676010291	0.4822998046875
2335.71676010288	0.48187255859375
2335.72676010286	0.481475830078125
2335.73676010283	0.481048583984375
2335.74676010281	0.48065185546875
2335.75676010278	0.480255126953125
2335.76676010276	0.479827880859375
2335.77676010273	0.47943115234375
2335.78676010271	0.479034423828125
2335.79676010268	0.478607177734375
2335.80676010266	0.47821044921875
2335.81676010263	0.477813720703125
2335.8267601026	0.4774169921875
2335.83676010258	0.47698974609375
2335.84676010255	0.476593017578125
2335.85676010253	0.4761962890625
2335.8667601025	0.475799560546875
2335.87676010248	0.47540283203125
2335.88676010245	0.4749755859375
2335.89676010243	0.474578857421875
2335.9067601024	0.47418212890625
2335.91676010238	0.473785400390625
2335.92676010235	0.473358154296875
2335.93676010233	0.47296142578125
2335.9467601023	0.472564697265625
2335.95676010228	0.47216796875
2335.96676010225	0.471771240234375
2335.97676010223	0.471343994140625
2335.9867601022	0.470947265625
2335.99676010218	0.470550537109375
2336.00676010215	0.47015380859375
2336.01676010212	0.469757080078125
2336.0267601021	0.4693603515625
2336.03676010207	0.468963623046875
2336.04676010205	0.46856689453125
2336.05676010202	0.468170166015625
2336.066760102	0.4677734375
2336.07676010197	0.467376708984375
2336.08676010195	0.46697998046875
2336.09676010192	0.466583251953125
2336.1067601019	0.4661865234375
2336.11676010187	0.465789794921875
2336.12676010185	0.46539306640625
2336.13676010182	0.464996337890625
2336.1467601018	0.464599609375
2336.15676010177	0.464202880859375
2336.16676010175	0.46380615234375
2336.17676010172	0.463409423828125
2336.1867601017	0.4630126953125
2336.19676010167	0.462615966796875
2336.20676010165	0.46221923828125
2336.21676010162	0.461822509765625
2336.22676010159	0.46142578125
2336.23676010157	0.461029052734375
2336.24676010154	0.460662841796875
2336.25676010152	0.46026611328125
2336.26676010149	0.459869384765625
2336.27676010147	0.45947265625
2336.28676010144	0.459075927734375
2336.29676010142	0.45867919921875
2336.30676010139	0.458282470703125
2336.31676010137	0.4578857421875
2336.32676010134	0.45751953125
2336.33676010132	0.457122802734375
2336.34676010129	0.45672607421875
2336.35676010127	0.456329345703125
2336.36676010124	0.4559326171875
2336.37676010122	0.45556640625
2336.38676010119	0.455169677734375
2336.39676010117	0.45477294921875
2336.40676010114	0.454376220703125
2336.41676010111	0.4539794921875
2336.42676010109	0.45361328125
2336.43676010106	0.453216552734375
2336.44676010104	0.452880859375
2336.45676010101	0.452484130859375
2336.46676010099	0.45208740234375
2336.47676010096	0.451690673828125
2336.48676010094	0.451324462890625
2336.49676010091	0.450927734375
2336.50676010089	0.4505615234375
2336.51676010086	0.450164794921875
2336.52676010084	0.44976806640625
2336.53676010081	0.44940185546875
2336.54676010079	0.449005126953125
2336.55676010076	0.4486083984375
2336.56676010074	0.4482421875
2336.57676010071	0.447845458984375
2336.58676010069	0.447479248046875
2336.59676010066	0.44708251953125
2336.60676010064	0.44671630859375
2336.61676010061	0.446319580078125
2336.62676010058	0.445953369140625
2336.63676010056	0.445556640625
2336.64676010053	0.4451904296875
2336.65676010051	0.44482421875
2336.66676010048	0.444427490234375
2336.67676010046	0.44403076171875
2336.68676010043	0.44366455078125
2336.69676010041	0.44329833984375
2336.70676010038	0.442901611328125
2336.71676010036	0.442535400390625
2336.72676010033	0.442169189453125
2336.73676010031	0.4417724609375
2336.74676010028	0.44140625
2336.75676010026	0.441009521484375
2336.76676010023	0.440643310546875
2336.77676010021	0.440277099609375
2336.78676010018	0.43988037109375
2336.79676010016	0.43951416015625
2336.80676010013	0.43914794921875
2336.81676010011	0.438751220703125
2336.82676010008	0.438385009765625
2336.83676010005	0.438018798828125
2336.84676010003	0.437652587890625
2336.8567601	0.437286376953125
2336.86676009998	0.436920166015625
2336.87676009995	0.4365234375
2336.88676009993	0.4361572265625
2336.8967600999	0.435791015625
2336.90676009988	0.4354248046875
2336.91676009985	0.43505859375
2336.92676009983	0.434661865234375
2336.9367600998	0.434295654296875
2336.94676009978	0.433929443359375
2336.95676009975	0.433563232421875
2336.96676009973	0.433197021484375
2336.9767600997	0.432830810546875
2336.98676009968	0.432464599609375
2336.99676009965	0.432098388671875
2337.00676009963	0.431732177734375
2337.0167600996	0.431365966796875
2337.02676009957	0.43096923828125
2337.03676009955	0.430633544921875
2337.04676009952	0.430267333984375
2337.0567600995	0.42987060546875
2337.06676009947	0.429534912109375
2337.07676009945	0.429168701171875
2337.08676009942	0.428802490234375
2337.0967600994	0.428436279296875
2337.10676009937	0.428070068359375
2337.11676009935	0.427703857421875
2337.12676009932	0.427337646484375
2337.1367600993	0.426971435546875
2337.14676009927	0.4266357421875
2337.15676009925	0.42626953125
2337.16676009922	0.4259033203125
2337.1767600992	0.425537109375
2337.18676009917	0.4251708984375
2337.19676009915	0.4248046875
2337.20676009912	0.4244384765625
2337.2167600991	0.424102783203125
2337.22676009907	0.423736572265625
2337.23676009904	0.423370361328125
2337.24676009902	0.423004150390625
2337.25676009899	0.42266845703125
2337.26676009897	0.42230224609375
2337.27676009894	0.421966552734375
2337.28676009892	0.421630859375
2337.29676009889	0.4212646484375
2337.30676009887	0.420928955078125
2337.31676009884	0.420562744140625
2337.32676009882	0.420196533203125
2337.33676009879	0.41986083984375
2337.34676009877	0.41949462890625
2337.35676009874	0.41912841796875
2337.36676009872	0.418792724609375
2337.37676009869	0.418426513671875
2337.38676009867	0.418060302734375
2337.39676009864	0.417724609375
2337.40676009862	0.4173583984375
2337.41676009859	0.417022705078125
2337.42676009856	0.416656494140625
2337.43676009854	0.41632080078125
2337.44676009851	0.41595458984375
2337.45676009849	0.415618896484375
2337.46676009846	0.415252685546875
2337.47676009844	0.4149169921875
2337.48676009841	0.41455078125
2337.49676009839	0.414215087890625
2337.50676009836	0.41387939453125
2337.51676009834	0.41351318359375
2337.52676009831	0.413177490234375
2337.53676009829	0.412811279296875
2337.54676009826	0.4124755859375
2337.55676009824	0.412109375
2337.56676009821	0.411773681640625
2337.57676009819	0.41143798828125
2337.58676009816	0.41107177734375
2337.59676009814	0.410736083984375
2337.60676009811	0.410400390625
2337.61676009809	0.4100341796875
2337.62676009806	0.409698486328125
2337.63676009803	0.409332275390625
2337.64676009801	0.40899658203125
2337.65676009798	0.408660888671875
2337.66676009796	0.4083251953125
2337.67676009793	0.407958984375
2337.68676009791	0.407623291015625
2337.69676009788	0.40728759765625
2337.70676009786	0.406951904296875
2337.71676009783	0.406585693359375
2337.72676009781	0.406280517578125
2337.73676009778	0.40594482421875
2337.74676009776	0.405609130859375
2337.75676009773	0.405242919921875
2337.76676009771	0.4049072265625
2337.77676009768	0.404571533203125
2337.78676009766	0.40423583984375
2337.79676009763	0.403900146484375
2337.80676009761	0.403564453125
2337.81676009758	0.4031982421875
2337.82676009756	0.402862548828125
2337.83676009753	0.40252685546875
2337.8467600975	0.402191162109375
2337.85676009748	0.40185546875
2337.86676009745	0.401519775390625
2337.87676009743	0.40118408203125
2337.8867600974	0.400848388671875
2337.89676009738	0.4005126953125
2337.90676009735	0.400146484375
2337.91676009733	0.399810791015625
2337.9267600973	0.39947509765625
2337.93676009728	0.399139404296875
2337.94676009725	0.3988037109375
2337.95676009723	0.398468017578125
2337.9667600972	0.398162841796875
2337.97676009718	0.397796630859375
2337.98676009715	0.397491455078125
2337.99676009713	0.397125244140625
2338.0067600971	0.39678955078125
2338.01676009708	0.396453857421875
2338.02676009705	0.3961181640625
2338.03676009702	0.395782470703125
2338.046760097	0.39544677734375
2338.05676009697	0.3951416015625
2338.06676009695	0.394805908203125
2338.07676009692	0.39447021484375
2338.0867600969	0.394134521484375
2338.09676009687	0.393798828125
2338.10676009685	0.393463134765625
2338.11676009682	0.39312744140625
2338.1267600968	0.392791748046875
2338.13676009677	0.3924560546875
2338.14676009675	0.392120361328125
2338.15676009672	0.39178466796875
2338.1667600967	0.391448974609375
2338.17676009667	0.39111328125
2338.18676009665	0.39080810546875
2338.19676009662	0.3905029296875
2338.2067600966	0.390167236328125
2338.21676009657	0.38983154296875
2338.22676009655	0.389495849609375
2338.23676009652	0.389190673828125
2338.24676009649	0.38885498046875
2338.25676009647	0.388519287109375
2338.26676009644	0.38818359375
2338.27676009642	0.387847900390625
2338.28676009639	0.38751220703125
2338.29676009637	0.38720703125
2338.30676009634	0.386871337890625
2338.31676009632	0.38653564453125
2338.32676009629	0.386199951171875
2338.33676009627	0.3858642578125
2338.34676009624	0.38555908203125
2338.35676009622	0.385223388671875
2338.36676009619	0.3848876953125
2338.37676009617	0.384552001953125
2338.38676009614	0.384246826171875
2338.39676009612	0.3839111328125
2338.40676009609	0.383575439453125
2338.41676009607	0.383270263671875
2338.42676009604	0.3829345703125
2338.43676009601	0.38262939453125
2338.44676009599	0.382293701171875
2338.45676009596	0.3819580078125
2338.46676009594	0.381622314453125
2338.47676009591	0.381317138671875
2338.48676009589	0.3809814453125
2338.49676009586	0.380645751953125
2338.50676009584	0.380340576171875
2338.51676009581	0.3800048828125
2338.52676009579	0.379669189453125
2338.53676009576	0.379364013671875
2338.54676009574	0.3790283203125
2338.55676009571	0.378692626953125
2338.56676009569	0.378387451171875
2338.57676009566	0.3780517578125
2338.58676009564	0.37774658203125
2338.59676009561	0.377410888671875
2338.60676009559	0.377105712890625
2338.61676009556	0.37677001953125
2338.62676009554	0.376434326171875
2338.63676009551	0.376129150390625
2338.64676009548	0.37579345703125
2338.65676009546	0.37548828125
2338.66676009543	0.375152587890625
2338.67676009541	0.3748779296875
2338.68676009538	0.374542236328125
2338.69676009536	0.37420654296875
2338.70676009533	0.3739013671875
2338.71676009531	0.373565673828125
2338.72676009528	0.373260498046875
2338.73676009526	0.3729248046875
2338.74676009523	0.37261962890625
2338.75676009521	0.372283935546875
2338.76676009518	0.371978759765625
2338.77676009516	0.37164306640625
2338.78676009513	0.371337890625
2338.79676009511	0.371002197265625
2338.80676009508	0.370697021484375
2338.81676009506	0.370361328125
2338.82676009503	0.37005615234375
2338.83676009501	0.369720458984375
2338.84676009498	0.369415283203125
2338.85676009495	0.369110107421875
2338.86676009493	0.3687744140625
2338.8767600949	0.36846923828125
2338.88676009488	0.368133544921875
2338.89676009485	0.367828369140625
2338.90676009483	0.367523193359375
2338.9167600948	0.3671875
2338.92676009478	0.36688232421875
2338.93676009475	0.3665771484375
2338.94676009473	0.36627197265625
2338.9567600947	0.365936279296875
2338.96676009468	0.365631103515625
2338.97676009465	0.36529541015625
2338.98676009463	0.364990234375
2338.9967600946	0.36468505859375
2339.00676009458	0.364349365234375
2339.01676009455	0.364044189453125
2339.02676009453	0.363739013671875
2339.0367600945	0.3634033203125
2339.04676009447	0.36309814453125
2339.05676009445	0.36279296875
2339.06676009442	0.362457275390625
2339.0767600944	0.362152099609375
2339.08676009437	0.361846923828125
2339.09676009435	0.36151123046875
2339.10676009432	0.3612060546875
2339.1167600943	0.36090087890625
2339.12676009427	0.360595703125
2339.13676009425	0.360260009765625
2339.14676009422	0.359954833984375
2339.1567600942	0.359649658203125
2339.16676009417	0.359344482421875
2339.17676009415	0.35906982421875
2339.18676009412	0.358734130859375
2339.1967600941	0.358428955078125
2339.20676009407	0.358123779296875
2339.21676009405	0.357818603515625
2339.22676009402	0.35748291015625
2339.236760094	0.357177734375
2339.24676009397	0.35687255859375
2339.25676009394	0.3565673828125
2339.26676009392	0.356231689453125
2339.27676009389	0.355926513671875
2339.28676009387	0.355621337890625
2339.29676009384	0.355316162109375
2339.30676009382	0.355010986328125
2339.31676009379	0.35467529296875
2339.32676009377	0.3543701171875
2339.33676009374	0.35406494140625
2339.34676009372	0.353759765625
2339.35676009369	0.35345458984375
2339.36676009367	0.3531494140625
2339.37676009364	0.35284423828125
2339.38676009362	0.352508544921875
2339.39676009359	0.352203369140625
2339.40676009357	0.351898193359375
2339.41676009354	0.351593017578125
2339.42676009352	0.351287841796875
2339.43676009349	0.350982666015625
2339.44676009346	0.350677490234375
2339.45676009344	0.350372314453125
2339.46676009341	0.350067138671875
2339.47676009339	0.349761962890625
2339.48676009336	0.34942626953125
2339.49676009334	0.34912109375
2339.50676009331	0.34881591796875
2339.51676009329	0.3485107421875
2339.52676009326	0.34820556640625
2339.53676009324	0.347900390625
2339.54676009321	0.34759521484375
2339.55676009319	0.3472900390625
2339.56676009316	0.34698486328125
2339.57676009314	0.3466796875
2339.58676009311	0.34637451171875
2339.59676009309	0.346038818359375
2339.60676009306	0.345733642578125
2339.61676009304	0.345428466796875
2339.62676009301	0.345123291015625
2339.63676009299	0.344818115234375
2339.64676009296	0.344512939453125
2339.65676009293	0.344207763671875
2339.66676009291	0.343902587890625
2339.67676009288	0.3436279296875
2339.68676009286	0.34332275390625
2339.69676009283	0.343017578125
2339.70676009281	0.34271240234375
2339.71676009278	0.3424072265625
2339.72676009276	0.34210205078125
2339.73676009273	0.341796875
2339.74676009271	0.34149169921875
2339.75676009268	0.3411865234375
2339.76676009266	0.34088134765625
2339.77676009263	0.340576171875
2339.78676009261	0.34027099609375
2339.79676009258	0.3399658203125
2339.80676009256	0.33966064453125
2339.81676009253	0.33935546875
2339.82676009251	0.33905029296875
2339.83676009248	0.3387451171875
2339.84676009246	0.33843994140625
2339.85676009243	0.338134765625
2339.8667600924	0.33782958984375
2339.87676009238	0.3375244140625
2339.88676009235	0.337249755859375
2339.89676009233	0.336944580078125
2339.9067600923	0.336639404296875
2339.91676009228	0.336334228515625
2339.92676009225	0.336029052734375
2339.93676009223	0.33575439453125
2339.9467600922	0.33544921875
2339.95676009218	0.33514404296875
2339.96676009215	0.3348388671875
2339.97676009213	0.33453369140625
2339.9867600921	0.334228515625
2339.99676009208	0.33392333984375
2340.00676009205	0.333648681640625
2340.01676009203	0.333343505859375
2340.026760092	0.333038330078125
2340.03676009198	0.332733154296875
2340.04676009195	0.332427978515625
2340.05676009192	0.3321533203125
2340.0667600919	0.33184814453125
2340.07676009187	0.33154296875
2340.08676009185	0.33123779296875
2340.09676009182	0.3309326171875
2340.1067600918	0.330657958984375
2340.11676009177	0.330352783203125
2340.12676009175	0.330047607421875
2340.13676009172	0.329742431640625
2340.1467600917	0.3294677734375
2340.15676009167	0.32916259765625
2340.16676009165	0.328857421875
2340.17676009162	0.32855224609375
2340.1867600916	0.328277587890625
2340.19676009157	0.3280029296875
2340.20676009155	0.327728271484375
2340.21676009152	0.327423095703125
2340.2267600915	0.327117919921875
2340.23676009147	0.32684326171875
2340.24676009145	0.3265380859375
2340.25676009142	0.32623291015625
2340.26676009139	0.325958251953125
2340.27676009137	0.325653076171875
2340.28676009134	0.325347900390625
2340.29676009132	0.3250732421875
2340.30676009129	0.32476806640625
2340.31676009127	0.324462890625
2340.32676009124	0.324188232421875
2340.33676009122	0.323883056640625
2340.34676009119	0.3236083984375
2340.35676009117	0.32330322265625
2340.36676009114	0.323028564453125
2340.37676009112	0.322723388671875
2340.38676009109	0.322418212890625
2340.39676009107	0.3221435546875
2340.40676009104	0.32183837890625
2340.41676009102	0.321563720703125
2340.42676009099	0.321258544921875
2340.43676009097	0.32098388671875
2340.44676009094	0.320709228515625
2340.45676009091	0.320404052734375
2340.46676009089	0.32012939453125
2340.47676009086	0.319854736328125
2340.48676009084	0.319549560546875
2340.49676009081	0.31927490234375
2340.50676009079	0.3189697265625
2340.51676009076	0.318695068359375
2340.52676009074	0.318389892578125
2340.53676009071	0.318115234375
2340.54676009069	0.317840576171875
2340.55676009066	0.317535400390625
2340.56676009064	0.3172607421875
2340.57676009061	0.316986083984375
2340.58676009059	0.316680908203125
2340.59676009056	0.31640625
2340.60676009054	0.31610107421875
2340.61676009051	0.315826416015625
2340.62676009049	0.3155517578125
2340.63676009046	0.315277099609375
2340.64676009044	0.314971923828125
2340.65676009041	0.314697265625
2340.66676009038	0.314422607421875
2340.67676009036	0.31414794921875
2340.68676009033	0.3138427734375
2340.69676009031	0.313568115234375
2340.70676009028	0.31329345703125
2340.71676009026	0.313018798828125
2340.72676009023	0.312744140625
2340.73676009021	0.312469482421875
2340.74676009018	0.31219482421875
2340.75676009016	0.311920166015625
2340.76676009013	0.3116455078125
2340.77676009011	0.31134033203125
2340.78676009008	0.311065673828125
2340.79676009006	0.310791015625
2340.80676009003	0.310516357421875
2340.81676009001	0.31024169921875
2340.82676008998	0.309967041015625
2340.83676008996	0.3096923828125
2340.84676008993	0.309417724609375
2340.85676008991	0.30914306640625
2340.86676008988	0.308868408203125
2340.87676008985	0.30859375
2340.88676008983	0.308319091796875
2340.8967600898	0.30804443359375
2340.90676008978	0.307769775390625
2340.91676008975	0.3074951171875
2340.92676008973	0.307220458984375
2340.9367600897	0.30694580078125
2340.94676008968	0.306671142578125
2340.95676008965	0.306396484375
2340.96676008963	0.30615234375
2340.9767600896	0.305877685546875
2340.98676008958	0.30560302734375
2340.99676008955	0.305328369140625
2341.00676008953	0.3050537109375
2341.0167600895	0.304779052734375
2341.02676008948	0.304534912109375
2341.03676008945	0.30426025390625
2341.04676008943	0.303985595703125
2341.0567600894	0.303741455078125
2341.06676008937	0.303466796875
2341.07676008935	0.303192138671875
2341.08676008932	0.30291748046875
2341.0967600893	0.30267333984375
2341.10676008927	0.302398681640625
2341.11676008925	0.3021240234375
2341.12676008922	0.3018798828125
2341.1367600892	0.301605224609375
2341.14676008917	0.30133056640625
2341.15676008915	0.30108642578125
2341.16676008912	0.300811767578125
2341.1767600891	0.300537109375
2341.18676008907	0.30029296875
2341.19676008905	0.300018310546875
2341.20676008902	0.299774169921875
2341.216760089	0.29949951171875
2341.22676008897	0.29925537109375
2341.23676008895	0.298980712890625
2341.24676008892	0.298736572265625
2341.2567600889	0.2984619140625
2341.26676008887	0.298187255859375
2341.27676008884	0.297943115234375
2341.28676008882	0.297698974609375
2341.29676008879	0.29742431640625
2341.30676008877	0.29718017578125
2341.31676008874	0.29693603515625
2341.32676008872	0.29669189453125
2341.33676008869	0.29644775390625
2341.34676008867	0.296173095703125
2341.35676008864	0.295928955078125
2341.36676008862	0.295654296875
2341.37676008859	0.29541015625
2341.38676008857	0.295166015625
2341.39676008854	0.294891357421875
2341.40676008852	0.294647216796875
2341.41676008849	0.294403076171875
2341.42676008847	0.29412841796875
2341.43676008844	0.29388427734375
2341.44676008842	0.29364013671875
2341.45676008839	0.293365478515625
2341.46676008836	0.293121337890625
2341.47676008834	0.292877197265625
2341.48676008831	0.2926025390625
2341.49676008829	0.2923583984375
2341.50676008826	0.2921142578125
2341.51676008824	0.2918701171875
2341.52676008821	0.2916259765625
2341.53676008819	0.291351318359375
2341.54676008816	0.291107177734375
2341.55676008814	0.290863037109375
2341.56676008811	0.29058837890625
2341.57676008809	0.29034423828125
2341.58676008806	0.29010009765625
2341.59676008804	0.28985595703125
2341.60676008801	0.28961181640625
2341.61676008799	0.289337158203125
2341.62676008796	0.289093017578125
2341.63676008794	0.28887939453125
2341.64676008791	0.288604736328125
2341.65676008789	0.288360595703125
2341.66676008786	0.288116455078125
2341.67676008783	0.287872314453125
2341.68676008781	0.287628173828125
2341.69676008778	0.287353515625
2341.70676008776	0.287139892578125
2341.71676008773	0.286865234375
2341.72676008771	0.28662109375
2341.73676008768	0.286376953125
2341.74676008766	0.2861328125
2341.75676008763	0.285888671875
2341.76676008761	0.28564453125
2341.77676008758	0.285369873046875
2341.78676008756	0.285125732421875
2341.79676008753	0.284881591796875
2341.80676008751	0.284637451171875
2341.81676008748	0.284393310546875
2341.82676008746	0.284149169921875
2341.83676008743	0.283905029296875
2341.84676008741	0.283660888671875
2341.85676008738	0.283416748046875
2341.86676008736	0.283172607421875
2341.87676008733	0.28289794921875
2341.8867600873	0.28265380859375
2341.89676008728	0.28240966796875
2341.90676008725	0.28216552734375
2341.91676008723	0.28192138671875
2341.9267600872	0.28167724609375
2341.93676008718	0.28143310546875
2341.94676008715	0.281219482421875
2341.95676008713	0.280975341796875
2341.9667600871	0.280731201171875
2341.97676008708	0.28045654296875
2341.98676008705	0.28021240234375
2341.99676008703	0.27996826171875
2342.006760087	0.27972412109375
2342.01676008698	0.27947998046875
2342.02676008695	0.27923583984375
2342.03676008693	0.27899169921875
2342.0467600869	0.27874755859375
2342.05676008688	0.27850341796875
2342.06676008685	0.278228759765625
2342.07676008682	0.277984619140625
2342.0867600868	0.277740478515625
2342.09676008677	0.277496337890625
2342.10676008675	0.277252197265625
2342.11676008672	0.277008056640625
2342.1267600867	0.2767333984375
2342.13676008667	0.2764892578125
2342.14676008665	0.2762451171875
2342.15676008662	0.2760009765625
2342.1667600866	0.2757568359375
2342.17676008657	0.2755126953125
2342.18676008655	0.275238037109375
2342.19676008652	0.274993896484375
2342.2067600865	0.274749755859375
2342.21676008647	0.274505615234375
2342.22676008645	0.274261474609375
2342.23676008642	0.27398681640625
2342.2467600864	0.27374267578125
2342.25676008637	0.27349853515625
2342.26676008635	0.27325439453125
2342.27676008632	0.27301025390625
2342.28676008629	0.27276611328125
2342.29676008627	0.27252197265625
2342.30676008624	0.272247314453125
2342.31676008622	0.272003173828125
2342.32676008619	0.271759033203125
2342.33676008617	0.271484375
2342.34676008614	0.271240234375
2342.35676008612	0.27099609375
2342.36676008609	0.270721435546875
2342.37676008607	0.270477294921875
2342.38676008604	0.270233154296875
2342.39676008602	0.26995849609375
2342.40676008599	0.26971435546875
2342.41676008597	0.26947021484375
2342.42676008594	0.269195556640625
2342.43676008592	0.268951416015625
2342.44676008589	0.268707275390625
2342.45676008587	0.2684326171875
2342.46676008584	0.2681884765625
2342.47676008581	0.267913818359375
2342.48676008579	0.267669677734375
2342.49676008576	0.26739501953125
2342.50676008574	0.26715087890625
2342.51676008571	0.266876220703125
2342.52676008569	0.266632080078125
2342.53676008566	0.266387939453125
2342.54676008564	0.26611328125
2342.55676008561	0.265869140625
2342.56676008559	0.265625
2342.57676008556	0.265380859375
2342.58676008554	0.265106201171875
2342.59676008551	0.264862060546875
2342.60676008549	0.26458740234375
2342.61676008546	0.264312744140625
2342.62676008544	0.264068603515625
2342.63676008541	0.2637939453125
2342.64676008539	0.2635498046875
2342.65676008536	0.263275146484375
2342.66676008534	0.26300048828125
2342.67676008531	0.26275634765625
2342.68676008528	0.262481689453125
2342.69676008526	0.26220703125
2342.70676008523	0.261962890625
2342.71676008521	0.261688232421875
2342.72676008518	0.26141357421875
2342.73676008516	0.26116943359375
2342.74676008513	0.260894775390625
2342.75676008511	0.2606201171875
2342.76676008508	0.260345458984375
2342.77676008506	0.260101318359375
2342.78676008503	0.25982666015625
2342.79676008501	0.259552001953125
2342.80676008498	0.25927734375
2342.81676008496	0.259002685546875
2342.82676008493	0.258758544921875
2342.83676008491	0.25848388671875
2342.84676008488	0.258209228515625
2342.85676008486	0.2579345703125
2342.86676008483	0.2576904296875
2342.87676008481	0.257415771484375
2342.88676008478	0.25714111328125
2342.89676008475	0.256866455078125
2342.90676008473	0.256591796875
2342.9167600847	0.256317138671875
2342.92676008468	0.25604248046875
2342.93676008465	0.255767822265625
2342.94676008463	0.2554931640625
2342.9567600846	0.255218505859375
2342.96676008458	0.25494384765625
2342.97676008455	0.254669189453125
2342.98676008453	0.25439453125
2342.9967600845	0.254150390625
2343.00676008448	0.25384521484375
2343.01676008445	0.253570556640625
2343.02676008443	0.2532958984375
2343.0367600844	0.253021240234375
2343.04676008438	0.25274658203125
2343.05676008435	0.252471923828125
2343.06676008433	0.252197265625
2343.0767600843	0.251922607421875
2343.08676008427	0.25164794921875
2343.09676008425	0.251373291015625
2343.10676008422	0.2510986328125
2343.1167600842	0.250823974609375
2343.12676008417	0.250518798828125
2343.13676008415	0.250244140625
2343.14676008412	0.25
2343.1567600841	0.249725341796875
2343.16676008407	0.24945068359375
2343.17676008405	0.249176025390625
2343.18676008402	0.2489013671875
2343.196760084	0.24859619140625
2343.20676008397	0.248321533203125
2343.21676008395	0.248046875
2343.22676008392	0.247772216796875
2343.2367600839	0.247467041015625
2343.24676008387	0.2471923828125
2343.25676008385	0.246917724609375
2343.26676008382	0.24664306640625
2343.2767600838	0.246337890625
2343.28676008377	0.246063232421875
2343.29676008374	0.24578857421875
2343.30676008372	0.2454833984375
2343.31676008369	0.245208740234375
2343.32676008367	0.24493408203125
2343.33676008364	0.244659423828125
2343.34676008362	0.244354248046875
2343.35676008359	0.24407958984375
2343.36676008357	0.243804931640625
2343.37676008354	0.243499755859375
2343.38676008352	0.24322509765625
2343.39676008349	0.242950439453125
2343.40676008347	0.242645263671875
2343.41676008344	0.24237060546875
2343.42676008342	0.242095947265625
2343.43676008339	0.241790771484375
2343.44676008337	0.24151611328125
2343.45676008334	0.241241455078125
2343.46676008332	0.240936279296875
2343.47676008329	0.24066162109375
2343.48676008326	0.2403564453125
2343.49676008324	0.240081787109375
2343.50676008321	0.23980712890625
2343.51676008319	0.239501953125
2343.52676008316	0.239227294921875
2343.53676008314	0.238922119140625
2343.54676008311	0.2386474609375
2343.55676008309	0.23834228515625
2343.56676008306	0.238067626953125
2343.57676008304	0.23779296875
2343.58676008301	0.23748779296875
2343.59676008299	0.237213134765625
2343.60676008296	0.236907958984375
2343.61676008294	0.23663330078125
2343.62676008291	0.236328125
2343.63676008289	0.236053466796875
2343.64676008286	0.235748291015625
2343.65676008284	0.2354736328125
2343.66676008281	0.23516845703125
2343.67676008279	0.234893798828125
2343.68676008276	0.234588623046875
2343.69676008273	0.234344482421875
2343.70676008271	0.234039306640625
2343.71676008268	0.2337646484375
2343.72676008266	0.23345947265625
2343.73676008263	0.233184814453125
2343.74676008261	0.232879638671875
2343.75676008258	0.23260498046875
2343.76676008256	0.2322998046875
2343.77676008253	0.232025146484375
2343.78676008251	0.231719970703125
2343.79676008248	0.2314453125
2343.80676008246	0.23114013671875
2343.81676008243	0.230865478515625
2343.82676008241	0.230560302734375
2343.83676008238	0.230255126953125
2343.84676008236	0.22998046875
2343.85676008233	0.22967529296875
2343.86676008231	0.229400634765625
2343.87676008228	0.229095458984375
2343.88676008226	0.228790283203125
2343.89676008223	0.228515625
2343.9067600822	0.22821044921875
2343.91676008218	0.227935791015625
2343.92676008215	0.227630615234375
2343.93676008213	0.22735595703125
2343.9467600821	0.22705078125
2343.95676008208	0.22674560546875
2343.96676008205	0.226470947265625
2343.97676008203	0.2261962890625
2343.986760082	0.22589111328125
2343.99676008198	0.2255859375
2344.00676008195	0.225311279296875
2344.01676008193	0.225006103515625
2344.0267600819	0.224700927734375
2344.03676008188	0.22442626953125
2344.04676008185	0.22412109375
2344.05676008183	0.223846435546875
2344.0667600818	0.223541259765625
2344.07676008178	0.223236083984375
2344.08676008175	0.22296142578125
2344.09676008172	0.22265625
2344.1067600817	0.22235107421875
2344.11676008167	0.222076416015625
2344.12676008165	0.221771240234375
2344.13676008162	0.22149658203125
2344.1467600816	0.22119140625
2344.15676008157	0.22088623046875
2344.16676008155	0.2205810546875
2344.17676008152	0.220306396484375
2344.1867600815	0.220001220703125
2344.19676008147	0.2197265625
2344.20676008145	0.21942138671875
2344.21676008142	0.2191162109375
2344.2267600814	0.218841552734375
2344.23676008137	0.21856689453125
2344.24676008135	0.21826171875
2344.25676008132	0.217987060546875
2344.2667600813	0.217681884765625
2344.27676008127	0.217376708984375
2344.28676008125	0.21710205078125
2344.29676008122	0.216796875
2344.30676008119	0.21649169921875
2344.31676008117	0.216217041015625
2344.32676008114	0.215911865234375
2344.33676008112	0.215606689453125
2344.34676008109	0.21533203125
2344.35676008107	0.21502685546875
2344.36676008104	0.2147216796875
2344.37676008102	0.21441650390625
2344.38676008099	0.214141845703125
2344.39676008097	0.213836669921875
2344.40676008094	0.213531494140625
2344.41676008092	0.2132568359375
2344.42676008089	0.21295166015625
2344.43676008087	0.212646484375
2344.44676008084	0.212371826171875
2344.45676008082	0.212066650390625
2344.46676008079	0.211761474609375
2344.47676008077	0.21148681640625
2344.48676008074	0.211181640625
2344.49676008071	0.210906982421875
2344.50676008069	0.210601806640625
2344.51676008066	0.210296630859375
2344.52676008064	0.21002197265625
2344.53676008061	0.209716796875
2344.54676008059	0.20941162109375
2344.55676008056	0.2091064453125
2344.56676008054	0.208831787109375
2344.57676008051	0.208526611328125
2344.58676008049	0.208221435546875
2344.59676008046	0.20794677734375
2344.60676008044	0.2076416015625
2344.61676008041	0.20733642578125
2344.62676008039	0.20703125
2344.63676008036	0.206756591796875
2344.64676008034	0.206451416015625
2344.65676008031	0.206146240234375
2344.66676008029	0.205841064453125
2344.67676008026	0.20556640625
2344.68676008024	0.20526123046875
2344.69676008021	0.2049560546875
2344.70676008018	0.20465087890625
2344.71676008016	0.204376220703125
2344.72676008013	0.204071044921875
2344.73676008011	0.203765869140625
2344.74676008008	0.2034912109375
2344.75676008006	0.20318603515625
2344.76676008003	0.202911376953125
2344.77676008001	0.20263671875
2344.78676007998	0.20233154296875
2344.79676007996	0.2020263671875
2344.80676007993	0.201751708984375
2344.81676007991	0.201446533203125
2344.82676007988	0.201141357421875
2344.83676007986	0.200836181640625
2344.84676007983	0.200531005859375
2344.85676007981	0.20025634765625
2344.86676007978	0.199951171875
2344.87676007976	0.19964599609375
2344.88676007973	0.1993408203125
2344.89676007971	0.199066162109375
2344.90676007968	0.198760986328125
2344.91676007965	0.198455810546875
2344.92676007963	0.198150634765625
2344.9367600796	0.1978759765625
2344.94676007958	0.19757080078125
2344.95676007955	0.197265625
2344.96676007953	0.19696044921875
2344.9767600795	0.196685791015625
2344.98676007948	0.196380615234375
2344.99676007945	0.196075439453125
2345.00676007943	0.195770263671875
2345.0167600794	0.195465087890625
2345.02676007938	0.1951904296875
2345.03676007935	0.19488525390625
2345.04676007933	0.194580078125
2345.0567600793	0.194305419921875
2345.06676007928	0.194000244140625
2345.07676007925	0.193695068359375
2345.08676007923	0.193389892578125
2345.0967600792	0.193084716796875
2345.10676007917	0.19281005859375
2345.11676007915	0.1925048828125
2345.12676007912	0.19219970703125
2345.1367600791	0.19189453125
2345.14676007907	0.19158935546875
2345.15676007905	0.1912841796875
2345.16676007902	0.191009521484375
2345.176760079	0.190704345703125
2345.18676007897	0.190399169921875
2345.19676007895	0.190093994140625
2345.20676007892	0.189788818359375
2345.2167600789	0.18951416015625
2345.22676007887	0.189208984375
2345.23676007885	0.18890380859375
2345.24676007882	0.1885986328125
2345.2567600788	0.18829345703125
2345.26676007877	0.18798828125
2345.27676007875	0.187713623046875
2345.28676007872	0.187408447265625
2345.2967600787	0.187103271484375
2345.30676007867	0.18682861328125
2345.31676007864	0.1865234375
2345.32676007862	0.18621826171875
2345.33676007859	0.1859130859375
2345.34676007857	0.18560791015625
2345.35676007854	0.185302734375
2345.36676007852	0.18499755859375
2345.37676007849	0.1846923828125
2345.38676007847	0.184417724609375
2345.39676007844	0.184112548828125
2345.40676007842	0.183807373046875
2345.41676007839	0.183502197265625
2345.42676007837	0.183197021484375
2345.43676007834	0.182891845703125
2345.44676007832	0.182586669921875
2345.45676007829	0.182281494140625
2345.46676007827	0.181976318359375
2345.47676007824	0.181671142578125
2345.48676007822	0.181365966796875
2345.49676007819	0.181060791015625
2345.50676007816	0.180755615234375
2345.51676007814	0.180450439453125
2345.52676007811	0.18017578125
2345.53676007809	0.17987060546875
2345.54676007806	0.1795654296875
2345.55676007804	0.17926025390625
2345.56676007801	0.178955078125
2345.57676007799	0.17864990234375
2345.58676007796	0.1783447265625
2345.59676007794	0.17803955078125
2345.60676007791	0.177734375
2345.61676007789	0.17742919921875
2345.62676007786	0.1771240234375
2345.63676007784	0.17681884765625
2345.64676007781	0.176513671875
2345.65676007779	0.17620849609375
2345.66676007776	0.1759033203125
2345.67676007774	0.17559814453125
2345.68676007771	0.17529296875
2345.69676007769	0.17498779296875
2345.70676007766	0.1746826171875
2345.71676007763	0.17437744140625
2345.72676007761	0.174072265625
2345.73676007758	0.17376708984375
2345.74676007756	0.1734619140625
2345.75676007753	0.17315673828125
2345.76676007751	0.1728515625
2345.77676007748	0.17254638671875
2345.78676007746	0.1722412109375
2345.79676007743	0.17193603515625
2345.80676007741	0.171661376953125
2345.81676007738	0.171356201171875
2345.82676007736	0.171051025390625
2345.83676007733	0.170745849609375
2345.84676007731	0.170440673828125
2345.85676007728	0.170135498046875
2345.86676007726	0.169830322265625
2345.87676007723	0.169525146484375
2345.88676007721	0.169219970703125
2345.89676007718	0.168914794921875
2345.90676007716	0.168609619140625
2345.91676007713	0.16827392578125
2345.9267600771	0.16796875
2345.93676007708	0.16766357421875
2345.94676007705	0.1673583984375
2345.95676007703	0.16705322265625
2345.966760077	0.166748046875
2345.97676007698	0.16644287109375
2345.98676007695	0.166107177734375
2345.99676007693	0.165802001953125
2346.0067600769	0.165496826171875
2346.01676007688	0.165191650390625
2346.02676007685	0.164886474609375
2346.03676007683	0.164581298828125
2346.0467600768	0.164276123046875
2346.05676007678	0.163970947265625
2346.06676007675	0.163665771484375
2346.07676007673	0.163360595703125
2346.0867600767	0.16302490234375
2346.09676007668	0.1627197265625
2346.10676007665	0.16241455078125
2346.11676007662	0.162109375
2346.1267600766	0.16180419921875
2346.13676007657	0.161468505859375
2346.14676007655	0.161163330078125
2346.15676007652	0.160858154296875
2346.1667600765	0.160552978515625
2346.17676007647	0.160247802734375
2346.18676007645	0.159912109375
2346.19676007642	0.15960693359375
2346.2067600764	0.1593017578125
2346.21676007637	0.15899658203125
2346.22676007635	0.158660888671875
2346.23676007632	0.158355712890625
2346.2467600763	0.158050537109375
2346.25676007627	0.157745361328125
2346.26676007625	0.15740966796875
2346.27676007622	0.1571044921875
2346.2867600762	0.15679931640625
2346.29676007617	0.156494140625
2346.30676007615	0.15618896484375
2346.31676007612	0.1558837890625
2346.32676007609	0.15557861328125
2346.33676007607	0.1552734375
2346.34676007604	0.154937744140625
2346.35676007602	0.154632568359375
2346.36676007599	0.154327392578125
2346.37676007597	0.15399169921875
2346.38676007594	0.1536865234375
2346.39676007592	0.15338134765625
2346.40676007589	0.153045654296875
2346.41676007587	0.152740478515625
2346.42676007584	0.152435302734375
2346.43676007582	0.152099609375
2346.44676007579	0.15179443359375
2346.45676007577	0.1514892578125
2346.46676007574	0.15118408203125
2346.47676007572	0.150848388671875
2346.48676007569	0.150543212890625
2346.49676007567	0.15020751953125
2346.50676007564	0.14990234375
2346.51676007561	0.14959716796875
2346.52676007559	0.149261474609375
2346.53676007556	0.148956298828125
2346.54676007554	0.148651123046875
2346.55676007551	0.148345947265625
2346.56676007549	0.14801025390625
2346.57676007546	0.147705078125
2346.58676007544	0.14739990234375
2346.59676007541	0.147064208984375
2346.60676007539	0.146759033203125
2346.61676007536	0.146453857421875
2346.62676007534	0.1461181640625
2346.63676007531	0.14581298828125
2346.64676007529	0.145477294921875
2346.65676007526	0.145172119140625
2346.66676007524	0.144866943359375
2346.67676007521	0.14453125
2346.68676007519	0.14422607421875
2346.69676007516	0.143890380859375
2346.70676007514	0.143585205078125
2346.71676007511	0.14324951171875
2346.72676007508	0.1429443359375
2346.73676007506	0.14263916015625
2346.74676007503	0.142303466796875
2346.75676007501	0.141998291015625
2346.76676007498	0.14166259765625
2346.77676007496	0.141357421875
2346.78676007493	0.14105224609375
2346.79676007491	0.1407470703125
2346.80676007488	0.14044189453125
2346.81676007486	0.14013671875
2346.82676007483	0.139801025390625
2346.83676007481	0.139495849609375
2346.84676007478	0.13916015625
2346.85676007476	0.13885498046875
2346.86676007473	0.138519287109375
2346.87676007471	0.138214111328125
2346.88676007468	0.137908935546875
2346.89676007466	0.1375732421875
2346.90676007463	0.13726806640625
2346.91676007461	0.136932373046875
2346.92676007458	0.136627197265625
2346.93676007455	0.13629150390625
2346.94676007453	0.135986328125
2346.9567600745	0.135650634765625
2346.96676007448	0.135345458984375
2346.97676007445	0.135009765625
2346.98676007443	0.13470458984375
2346.9967600744	0.1343994140625
2347.00676007438	0.134063720703125
2347.01676007435	0.133758544921875
2347.02676007433	0.1334228515625
2347.0367600743	0.13311767578125
2347.04676007428	0.132781982421875
2347.05676007425	0.132476806640625
2347.06676007423	0.132171630859375
2347.0767600742	0.1318359375
2347.08676007418	0.13153076171875
2347.09676007415	0.131195068359375
2347.10676007413	0.130889892578125
2347.1167600741	0.13055419921875
2347.12676007407	0.1302490234375
2347.13676007405	0.129913330078125
2347.14676007402	0.129608154296875
2347.156760074	0.1292724609375
2347.16676007397	0.128936767578125
2347.17676007395	0.128631591796875
2347.18676007392	0.1282958984375
2347.1967600739	0.12799072265625
2347.20676007387	0.127685546875
2347.21676007385	0.127349853515625
2347.22676007382	0.12701416015625
2347.2367600738	0.126708984375
2347.24676007377	0.126373291015625
2347.25676007375	0.126068115234375
2347.26676007372	0.125732421875
2347.2767600737	0.12542724609375
2347.28676007367	0.125091552734375
2347.29676007365	0.12481689453125
2347.30676007362	0.124481201171875
2347.3167600736	0.1241455078125
2347.32676007357	0.12384033203125
2347.33676007354	0.123504638671875
2347.34676007352	0.123199462890625
2347.35676007349	0.12286376953125
2347.36676007347	0.12255859375
2347.37676007344	0.122222900390625
2347.38676007342	0.121917724609375
2347.39676007339	0.12158203125
2347.40676007337	0.12127685546875
2347.41676007334	0.120941162109375
2347.42676007332	0.120635986328125
2347.43676007329	0.12030029296875
2347.44676007327	0.119964599609375
2347.45676007324	0.119659423828125
2347.46676007322	0.11932373046875
2347.47676007319	0.1190185546875
2347.48676007317	0.118682861328125
2347.49676007314	0.118377685546875
2347.50676007312	0.1180419921875
2347.51676007309	0.11773681640625
2347.52676007306	0.117401123046875
2347.53676007304	0.117095947265625
2347.54676007301	0.11676025390625
2347.55676007299	0.116455078125
2347.56676007296	0.116119384765625
2347.57676007294	0.115814208984375
2347.58676007291	0.115478515625
2347.59676007289	0.11517333984375
2347.60676007286	0.114837646484375
2347.61676007284	0.114532470703125
2347.62676007281	0.11419677734375
2347.63676007279	0.1138916015625
2347.64676007276	0.113555908203125
2347.65676007274	0.11322021484375
2347.66676007271	0.1129150390625
2347.67676007269	0.112579345703125
2347.68676007266	0.112274169921875
2347.69676007264	0.1119384765625
2347.70676007261	0.11163330078125
2347.71676007259	0.111297607421875
2347.72676007256	0.110992431640625
2347.73676007253	0.11065673828125
2347.74676007251	0.110321044921875
2347.75676007248	0.110015869140625
2347.76676007246	0.10968017578125
2347.77676007243	0.109405517578125
2347.78676007241	0.10906982421875
2347.79676007238	0.1087646484375
2347.80676007236	0.10845947265625
2347.81676007233	0.108123779296875
2347.82676007231	0.1077880859375
2347.83676007228	0.10748291015625
2347.84676007226	0.107147216796875
2347.85676007223	0.106842041015625
2347.86676007221	0.10650634765625
2347.87676007218	0.106201171875
2347.88676007216	0.105865478515625
2347.89676007213	0.10552978515625
2347.90676007211	0.105224609375
2347.91676007208	0.104888916015625
2347.92676007206	0.104583740234375
2347.93676007203	0.104248046875
2347.946760072	0.10394287109375
2347.95676007198	0.103607177734375
2347.96676007195	0.103302001953125
2347.97676007193	0.10296630859375
2347.9867600719	0.1026611328125
2347.99676007188	0.102325439453125
2348.00676007185	0.102020263671875
2348.01676007183	0.1016845703125
2348.0267600718	0.10137939453125
2348.03676007178	0.10107421875
2348.04676007175	0.100738525390625
2348.05676007173	0.100433349609375
2348.0667600717	0.10009765625
2348.07676007168	0.09979248046875
2348.08676007165	0.099456787109375
2348.09676007163	0.099151611328125
2348.1067600716	0.09881591796875
2348.11676007158	0.0985107421875
2348.12676007155	0.098175048828125
2348.13676007152	0.097869873046875
2348.1467600715	0.0975341796875
2348.15676007147	0.09722900390625
2348.16676007145	0.096893310546875
2348.17676007142	0.096588134765625
2348.1867600714	0.09625244140625
2348.19676007137	0.095947265625
2348.20676007135	0.095611572265625
2348.21676007132	0.095306396484375
2348.2267600713	0.095001220703125
2348.23676007127	0.09466552734375
2348.24676007125	0.0943603515625
2348.25676007122	0.094024658203125
2348.2667600712	0.093719482421875
2348.27676007117	0.093414306640625
2348.28676007115	0.093109130859375
2348.29676007112	0.0927734375
2348.3067600711	0.09246826171875
2348.31676007107	0.0921630859375
2348.32676007105	0.091827392578125
2348.33676007102	0.091522216796875
2348.34676007099	0.0911865234375
2348.35676007097	0.09088134765625
2348.36676007094	0.090576171875
2348.37676007092	0.090240478515625
2348.38676007089	0.089935302734375
2348.39676007087	0.089599609375
2348.40676007084	0.08929443359375
2348.41676007082	0.0889892578125
2348.42676007079	0.088653564453125
2348.43676007077	0.088348388671875
2348.44676007074	0.0880126953125
2348.45676007072	0.08770751953125
2348.46676007069	0.08740234375
2348.47676007067	0.087066650390625
2348.48676007064	0.086761474609375
2348.49676007062	0.086456298828125
2348.50676007059	0.08612060546875
2348.51676007057	0.0858154296875
2348.52676007054	0.08551025390625
2348.53676007051	0.085205078125
2348.54676007049	0.084869384765625
2348.55676007046	0.084564208984375
2348.56676007044	0.084259033203125
2348.57676007041	0.08392333984375
2348.58676007039	0.0836181640625
2348.59676007036	0.08331298828125
2348.60676007034	0.082977294921875
2348.61676007031	0.082672119140625
2348.62676007029	0.082366943359375
2348.63676007026	0.08203125
2348.64676007024	0.08172607421875
2348.65676007021	0.0814208984375
2348.66676007019	0.08111572265625
2348.67676007016	0.080780029296875
2348.68676007014	0.080474853515625
2348.69676007011	0.080169677734375
2348.70676007009	0.079864501953125
2348.71676007006	0.07952880859375
2348.72676007004	0.0792236328125
2348.73676007001	0.07891845703125
2348.74676006998	0.07861328125
2348.75676006996	0.07830810546875
2348.76676006993	0.078033447265625
2348.77676006991	0.07769775390625
2348.78676006988	0.077392578125
2348.79676006986	0.07708740234375
2348.80676006983	0.0767822265625
2348.81676006981	0.07647705078125
2348.82676006978	0.076171875
2348.83676006976	0.075836181640625
2348.84676006973	0.075531005859375
2348.85676006971	0.075225830078125
2348.86676006968	0.074920654296875
2348.87676006966	0.074615478515625
2348.88676006963	0.074310302734375
2348.89676006961	0.073974609375
2348.90676006958	0.073699951171875
2348.91676006956	0.0733642578125
2348.92676006953	0.07305908203125
2348.9367600695	0.07275390625
2348.94676006948	0.07244873046875
2348.95676006945	0.0721435546875
2348.96676006943	0.07183837890625
2348.9767600694	0.071533203125
2348.98676006938	0.07122802734375
2348.99676006935	0.0709228515625
2349.00676006933	0.07061767578125
2349.0167600693	0.0703125
2349.02676006928	0.07000732421875
2349.03676006925	0.0697021484375
2349.04676006923	0.06939697265625
2349.0567600692	0.069091796875
2349.06676006918	0.06878662109375
2349.07676006915	0.0684814453125
2349.08676006913	0.06817626953125
2349.0967600691	0.06787109375
2349.10676006908	0.06756591796875
2349.11676006905	0.0672607421875
2349.12676006903	0.06695556640625
2349.136760069	0.066650390625
2349.14676006897	0.06634521484375
2349.15676006895	0.0660400390625
2349.16676006892	0.06573486328125
2349.1767600689	0.0654296875
2349.18676006887	0.06512451171875
2349.19676006885	0.0648193359375
2349.20676006882	0.06451416015625
2349.2167600688	0.064208984375
2349.22676006877	0.06390380859375
2349.23676006875	0.0635986328125
2349.24676006872	0.06329345703125
2349.2567600687	0.063018798828125
2349.26676006867	0.062713623046875
2349.27676006865	0.062408447265625
2349.28676006862	0.0621337890625
2349.2967600686	0.06182861328125
2349.30676006857	0.0615234375
2349.31676006855	0.06121826171875
2349.32676006852	0.0609130859375
2349.3367600685	0.06060791015625
2349.34676006847	0.060302734375
2349.35676006844	0.05999755859375
2349.36676006842	0.059722900390625
2349.37676006839	0.059417724609375
2349.38676006837	0.059112548828125
2349.39676006834	0.058807373046875
2349.40676006832	0.058502197265625
2349.41676006829	0.0582275390625
2349.42676006827	0.05792236328125
2349.43676006824	0.0576171875
2349.44676006822	0.05731201171875
2349.45676006819	0.0570068359375
2349.46676006817	0.056732177734375
2349.47676006814	0.056427001953125
2349.48676006812	0.056121826171875
2349.49676006809	0.055816650390625
2349.50676006807	0.0555419921875
2349.51676006804	0.05523681640625
2349.52676006802	0.054931640625
2349.53676006799	0.054656982421875
2349.54676006796	0.054351806640625
2349.55676006794	0.0540771484375
2349.56676006791	0.05377197265625
2349.57676006789	0.053466796875
2349.58676006786	0.05316162109375
2349.59676006784	0.052886962890625
2349.60676006781	0.052581787109375
2349.61676006779	0.05230712890625
2349.62676006776	0.052001953125
2349.63676006774	0.05169677734375
2349.64676006771	0.051422119140625
2349.65676006769	0.051116943359375
2349.66676006766	0.050811767578125
2349.67676006764	0.050537109375
2349.68676006761	0.05023193359375
2349.69676006759	0.0499267578125
2349.70676006756	0.0496429443359375
2349.71676006754	0.0493499755859375
2349.72676006751	0.04906005859375
2349.73676006749	0.04876708984375
2349.74676006746	0.0484771728515625
2349.75676006743	0.048187255859375
2349.76676006741	0.047894287109375
2349.77676006738	0.0476043701171875
2349.78676006736	0.047314453125
2349.79676006733	0.0470184326171875
2349.80676006731	0.0467315673828125
2349.81676006728	0.046441650390625
2349.82676006726	0.0461517333984375
2349.83676006723	0.04586181640625
2349.84676006721	0.0455718994140625
2349.85676006718	0.045281982421875
2349.86676006716	0.0449951171875
2349.87676006713	0.0447052001953125
2349.88676006711	0.044415283203125
2349.89676006708	0.0441253662109375
2349.90676006706	0.04383544921875
2349.91676006703	0.0435516357421875
2349.92676006701	0.04326171875
2349.93676006698	0.0429718017578125
2349.94676006695	0.0426849365234375
2349.95676006693	0.0423980712890625
2349.9667600669	0.0421142578125
2349.97676006688	0.041827392578125
2349.98676006685	0.04154052734375
2349.99676006683	0.0412506103515625
2350.0067600668	0.040966796875
2350.01676006678	0.040679931640625
2350.02676006675	0.0403961181640625
2350.03676006673	0.0401092529296875
2350.0467600667	0.039825439453125
2350.05676006668	0.0395416259765625
2350.06676006665	0.0392547607421875
2350.07676006663	0.0389739990234375
2350.0867600666	0.0386871337890625
2350.09676006658	0.0384033203125
2350.10676006655	0.0381195068359375
2350.11676006653	0.037835693359375
2350.1267600665	0.0375518798828125
2350.13676006648	0.0372711181640625
2350.14676006645	0.0369873046875
2350.15676006642	0.0367034912109375
2350.1667600664	0.0364227294921875
2350.17676006637	0.0361358642578125
2350.18676006635	0.0358551025390625
2350.19676006632	0.0355743408203125
2350.2067600663	0.0352935791015625
2350.21676006627	0.0350128173828125
2350.22676006625	0.03472900390625
2350.23676006622	0.0344482421875
2350.2467600662	0.03416748046875
2350.25676006617	0.03388671875
2350.26676006615	0.03360595703125
2350.27676006612	0.0333282470703125
2350.2867600661	0.0330474853515625
2350.29676006607	0.032769775390625
2350.30676006605	0.0324920654296875
2350.31676006602	0.0322113037109375
2350.326760066	0.0319305419921875
2350.33676006597	0.03165283203125
2350.34676006595	0.0313751220703125
2350.35676006592	0.031097412109375
2350.36676006589	0.0308197021484375
2350.37676006587	0.0305419921875
2350.38676006584	0.0302642822265625
2350.39676006582	0.0299896240234375
2350.40676006579	0.0297119140625
2350.41676006577	0.029437255859375
2350.42676006574	0.0291595458984375
2350.43676006572	0.0288848876953125
2350.44676006569	0.0286102294921875
2350.45676006567	0.0283355712890625
2350.46676006564	0.0280609130859375
2350.47676006562	0.0277862548828125
2350.48676006559	0.027508544921875
2350.49676006557	0.0272369384765625
2350.50676006554	0.0269622802734375
2350.51676006552	0.026690673828125
2350.52676006549	0.0264190673828125
2350.53676006547	0.0261444091796875
2350.54676006544	0.0258697509765625
2350.55676006541	0.02559814453125
2350.56676006539	0.0253265380859375
2350.57676006536	0.025054931640625
2350.58676006534	0.0247802734375
2350.59676006531	0.0245086669921875
2350.60676006529	0.024237060546875
2350.61676006526	0.0239654541015625
2350.62676006524	0.02369384765625
2350.63676006521	0.0234222412109375
2350.64676006519	0.0231536865234375
2350.65676006516	0.022882080078125
2350.66676006514	0.022613525390625
2350.67676006511	0.0223419189453125
2350.68676006509	0.0220703125
2350.69676006506	0.0218048095703125
2350.70676006504	0.021533203125
2350.71676006501	0.0212646484375
2350.72676006499	0.0209991455078125
2350.73676006496	0.0207275390625
2350.74676006494	0.020458984375
2350.75676006491	0.020196533203125
2350.76676006488	0.019927978515625
2350.77676006486	0.019659423828125
2350.78676006483	0.0193939208984375
2350.79676006481	0.01912841796875
2350.80676006478	0.0188629150390625
2350.81676006476	0.0185943603515625
2350.82676006473	0.018328857421875
2350.83676006471	0.0180633544921875
2350.84676006468	0.0177978515625
2350.85676006466	0.0175323486328125
2350.86676006463	0.017266845703125
2350.87676006461	0.0170074462890625
2350.88676006458	0.016741943359375
2350.89676006456	0.0164794921875
2350.90676006453	0.0162139892578125
2350.91676006451	0.0159515380859375
2350.92676006448	0.01568603515625
2350.93676006446	0.0154296875
2350.94676006443	0.015167236328125
2350.9567600644	0.01490478515625
2350.96676006438	0.014642333984375
2350.97676006435	0.0143798828125
2350.98676006433	0.0141204833984375
2350.9967600643	0.013861083984375
2351.00676006428	0.0136016845703125
2351.01676006425	0.0133392333984375
2351.02676006423	0.0130828857421875
2351.0367600642	0.012823486328125
2351.04676006418	0.0125640869140625
2351.05676006415	0.0123046875
2351.06676006413	0.01204833984375
2351.0767600641	0.011785888671875
2351.08676006408	0.011529541015625
2351.09676006405	0.011273193359375
2351.10676006403	0.011016845703125
2351.116760064	0.0107635498046875
2351.12676006398	0.0105010986328125
2351.13676006395	0.0102447509765625
2351.14676006393	0.009991455078125
2351.1567600639	0.009735107421875
2351.16676006387	0.009478759765625
2351.17676006385	0.00922546386718751
2351.18676006382	0.0089691162109375
2351.1967600638	0.0087158203125
2351.20676006377	0.00845947265624999
2351.21676006375	0.0082061767578125
2351.22676006372	0.0079498291015625
2351.2367600637	0.00770263671875
2351.24676006367	0.0074493408203125
2351.25676006365	0.00719604492187501
2351.26676006362	0.00694580078125
2351.2767600636	0.00669250488281251
2351.28676006357	0.006439208984375
2351.29676006355	0.00618896484375001
2351.30676006352	0.005938720703125
2351.3167600635	0.0056884765625
2351.32676006347	0.00543823242187499
2351.33676006345	0.0051849365234375
2351.34676006342	0.00493774414062501
2351.3567600634	0.00469055175781249
2351.36676006337	0.0044403076171875
2351.37676006334	0.00419006347656251
2351.38676006332	0.00394287109374999
2351.39676006329	0.0036956787109375
2351.40676006327	0.0034454345703125
2351.41676006324	0.0032012939453125
2351.42676006322	0.00295410156250001
2351.43676006319	0.00270690917968749
2351.44676006317	0.002459716796875
2351.45676006314	0.002215576171875
2351.46676006312	0.0019683837890625
2351.47676006309	0.00172119140625
2351.48676006307	0.001483154296875
2351.49676006304	0.001239013671875
2351.50676006302	0.000994873046874997
2351.51676006299	0.0007476806640625
2351.52676006297	0.000506591796874997
2351.53676006294	0.0002593994140625
2351.54676006292	1.83105468749972E-05
2351.55676006289	-0.000222778320312506
2351.56676006286	-0.000469970703125003
2351.57676006284	-0.000711059570312506
2351.58676006281	-0.000949096679687497
