Time (s)	WE(1).Potential (V)
2428.53683286853	0.7366943359375
2428.54683286851	0.73577880859375
2428.55683286848	0.73516845703125
2428.56683286846	0.7342529296875
2428.57683286843	0.733642578125
2428.58683286841	0.73272705078125
2428.59683286838	0.73211669921875
2428.60683286836	0.731201171875
2428.61683286833	0.7305908203125
2428.62683286831	0.72967529296875
2428.63683286828	0.72906494140625
2428.64683286826	0.72845458984375
2428.65683286823	0.7275390625
2428.66683286821	0.7269287109375
2428.67683286818	0.72601318359375
2428.68683286816	0.72540283203125
2428.69683286813	0.7244873046875
2428.7068328681	0.723876953125
2428.71683286808	0.72296142578125
2428.72683286805	0.72235107421875
2428.73683286803	0.721435546875
2428.746832868	0.7208251953125
2428.75683286798	0.71990966796875
2428.76683286795	0.71929931640625
2428.77683286793	0.71868896484375
2428.7868328679	0.7177734375
2428.79683286788	0.7171630859375
2428.80683286785	0.71624755859375
2428.81683286783	0.71563720703125
2428.8268328678	0.7147216796875
2428.83683286778	0.714111328125
2428.84683286775	0.71319580078125
2428.85683286773	0.71258544921875
2428.8668328677	0.71197509765625
2428.87683286768	0.7110595703125
2428.88683286765	0.71044921875
2428.89683286763	0.70953369140625
2428.9068328676	0.70892333984375
2428.91683286757	0.7080078125
2428.92683286755	0.7073974609375
2428.93683286752	0.706787109375
2428.9468328675	0.70587158203125
2428.95683286747	0.70526123046875
2428.96683286745	0.704345703125
2428.97683286742	0.7037353515625
2428.9868328674	0.703125
2428.99683286737	0.7025146484375
2429.00683286735	0.70159912109375
2429.01683286732	0.70098876953125
2429.0268328673	0.7000732421875
2429.03683286727	0.699462890625
2429.04683286725	0.69854736328125
2429.05683286722	0.69793701171875
2429.0668328672	0.69732666015625
2429.07683286717	0.6964111328125
2429.08683286715	0.69580078125
2429.09683286712	0.69488525390625
2429.10683286709	0.69427490234375
2429.11683286707	0.693359375
2429.12683286704	0.6927490234375
2429.13683286702	0.692138671875
2429.14683286699	0.69122314453125
2429.15683286697	0.69061279296875
2429.16683286694	0.69000244140625
2429.17683286692	0.6890869140625
2429.18683286689	0.6884765625
2429.19683286687	0.68756103515625
2429.20683286684	0.68695068359375
2429.21683286682	0.68603515625
2429.22683286679	0.6854248046875
2429.23683286677	0.684814453125
2429.24683286674	0.68389892578125
2429.25683286672	0.68328857421875
2429.26683286669	0.682373046875
2429.27683286667	0.6817626953125
2429.28683286664	0.68115234375
2429.29683286662	0.68023681640625
2429.30683286659	0.67962646484375
2429.31683286656	0.6787109375
2429.32683286654	0.6781005859375
2429.33683286651	0.677490234375
2429.34683286649	0.67657470703125
2429.35683286646	0.67596435546875
2429.36683286644	0.67535400390625
2429.37683286641	0.6744384765625
2429.38683286639	0.673828125
2429.39683286636	0.6732177734375
2429.40683286634	0.67230224609375
2429.41683286631	0.67169189453125
2429.42683286629	0.6707763671875
2429.43683286626	0.670166015625
2429.44683286624	0.6695556640625
2429.45683286621	0.66864013671875
2429.46683286619	0.66802978515625
2429.47683286616	0.66741943359375
2429.48683286614	0.66650390625
2429.49683286611	0.6658935546875
2429.50683286609	0.665283203125
2429.51683286606	0.66436767578125
2429.52683286603	0.66375732421875
2429.53683286601	0.662841796875
2429.54683286598	0.6622314453125
2429.55683286596	0.66162109375
2429.56683286593	0.66070556640625
2429.57683286591	0.66009521484375
2429.58683286588	0.65948486328125
2429.59683286586	0.6585693359375
2429.60683286583	0.657958984375
2429.61683286581	0.65704345703125
2429.62683286578	0.65643310546875
2429.63683286576	0.65582275390625
2429.64683286573	0.6549072265625
2429.65683286571	0.654296875
2429.66683286568	0.6536865234375
2429.67683286566	0.65277099609375
2429.68683286563	0.65216064453125
2429.69683286561	0.65155029296875
2429.70683286558	0.650634765625
2429.71683286555	0.6500244140625
2429.72683286553	0.6494140625
2429.7368328655	0.64849853515625
2429.74683286548	0.64788818359375
2429.75683286545	0.64727783203125
2429.76683286543	0.6463623046875
2429.7768328654	0.645751953125
2429.78683286538	0.6451416015625
2429.79683286535	0.64422607421875
2429.80683286533	0.64361572265625
2429.8168328653	0.64300537109375
2429.82683286528	0.64208984375
2429.83683286525	0.6414794921875
2429.84683286523	0.640869140625
2429.8568328652	0.63995361328125
2429.86683286518	0.63934326171875
2429.87683286515	0.63873291015625
2429.88683286513	0.6378173828125
2429.8968328651	0.63720703125
2429.90683286508	0.6365966796875
2429.91683286505	0.63568115234375
2429.92683286502	0.63507080078125
2429.936832865	0.63446044921875
2429.94683286497	0.633544921875
2429.95683286495	0.6329345703125
2429.96683286492	0.63232421875
2429.9768328649	0.6317138671875
2429.98683286487	0.63079833984375
2429.99683286485	0.63018798828125
2430.00683286482	0.62957763671875
2430.0168328648	0.628662109375
2430.02683286477	0.6280517578125
2430.03683286475	0.62744140625
2430.04683286472	0.62652587890625
2430.0568328647	0.62591552734375
2430.06683286467	0.62530517578125
2430.07683286465	0.62469482421875
2430.08683286462	0.62408447265625
2430.0968328646	0.6231689453125
2430.10683286457	0.62255859375
2430.11683286454	0.6219482421875
2430.12683286452	0.621337890625
2430.13683286449	0.62042236328125
2430.14683286447	0.61981201171875
2430.15683286444	0.61920166015625
2430.16683286442	0.6182861328125
2430.17683286439	0.61767578125
2430.18683286437	0.6170654296875
2430.19683286434	0.61614990234375
2430.20683286432	0.61553955078125
2430.21683286429	0.61492919921875
2430.22683286427	0.61431884765625
2430.23683286424	0.6134033203125
2430.24683286422	0.61279296875
2430.25683286419	0.6121826171875
2430.26683286417	0.61126708984375
2430.27683286414	0.61065673828125
2430.28683286412	0.61004638671875
2430.29683286409	0.60943603515625
2430.30683286407	0.6085205078125
2430.31683286404	0.60791015625
2430.32683286401	0.6072998046875
2430.33683286399	0.60638427734375
2430.34683286396	0.60577392578125
2430.35683286394	0.60516357421875
2430.36683286391	0.604248046875
2430.37683286389	0.6036376953125
2430.38683286386	0.60302734375
2430.39683286384	0.6024169921875
2430.40683286381	0.60150146484375
2430.41683286379	0.60089111328125
2430.42683286376	0.60028076171875
2430.43683286374	0.59967041015625
2430.44683286371	0.5987548828125
2430.45683286369	0.59814453125
2430.46683286366	0.5975341796875
2430.47683286364	0.596923828125
2430.48683286361	0.59600830078125
2430.49683286359	0.59539794921875
2430.50683286356	0.59478759765625
2430.51683286354	0.5938720703125
2430.52683286351	0.59326171875
2430.53683286348	0.5926513671875
2430.54683286346	0.592041015625
2430.55683286343	0.59112548828125
2430.56683286341	0.59051513671875
2430.57683286338	0.58990478515625
2430.58683286336	0.58929443359375
2430.59683286333	0.58837890625
2430.60683286331	0.5877685546875
2430.61683286328	0.587158203125
2430.62683286326	0.5865478515625
2430.63683286323	0.58563232421875
2430.64683286321	0.58502197265625
2430.65683286318	0.58441162109375
2430.66683286316	0.58349609375
2430.67683286313	0.5828857421875
2430.68683286311	0.582275390625
2430.69683286308	0.5816650390625
2430.70683286306	0.58074951171875
2430.71683286303	0.58013916015625
2430.726832863	0.57952880859375
2430.73683286298	0.57891845703125
2430.74683286295	0.57830810546875
2430.75683286293	0.577392578125
2430.7668328629	0.5767822265625
2430.77683286288	0.576171875
2430.78683286285	0.5755615234375
2430.79683286283	0.57464599609375
2430.8068328628	0.57403564453125
2430.81683286278	0.57342529296875
2430.82683286275	0.57281494140625
2430.83683286273	0.57220458984375
2430.8468328627	0.5712890625
2430.85683286268	0.5706787109375
2430.86683286265	0.570068359375
2430.87683286263	0.5694580078125
2430.8868328626	0.56854248046875
2430.89683286258	0.56793212890625
2430.90683286255	0.56732177734375
2430.91683286253	0.56671142578125
2430.9268328625	0.56610107421875
2430.93683286247	0.565185546875
2430.94683286245	0.5645751953125
2430.95683286242	0.56396484375
2430.9668328624	0.5633544921875
2430.97683286237	0.562744140625
2430.98683286235	0.56182861328125
2430.99683286232	0.56121826171875
2431.0068328623	0.56060791015625
2431.01683286227	0.55999755859375
2431.02683286225	0.55908203125
2431.03683286222	0.5584716796875
2431.0468328622	0.557861328125
2431.05683286217	0.5572509765625
2431.06683286215	0.556640625
2431.07683286212	0.55572509765625
2431.0868328621	0.55511474609375
2431.09683286207	0.55450439453125
2431.10683286205	0.55389404296875
2431.11683286202	0.55328369140625
2431.12683286199	0.55267333984375
2431.13683286197	0.5517578125
2431.14683286194	0.5511474609375
2431.15683286192	0.550537109375
2431.16683286189	0.5499267578125
2431.17683286187	0.54931640625
2431.18683286184	0.54840087890625
2431.19683286182	0.54779052734375
2431.20683286179	0.54718017578125
2431.21683286177	0.54656982421875
2431.22683286174	0.54595947265625
2431.23683286172	0.54534912109375
2431.24683286169	0.54473876953125
2431.25683286167	0.54412841796875
2431.26683286164	0.54351806640625
2431.27683286162	0.5426025390625
2431.28683286159	0.5419921875
2431.29683286157	0.5413818359375
2431.30683286154	0.540771484375
2431.31683286152	0.5401611328125
2431.32683286149	0.53924560546875
2431.33683286146	0.53863525390625
2431.34683286144	0.53802490234375
2431.35683286141	0.53741455078125
2431.36683286139	0.53680419921875
2431.37683286136	0.53619384765625
2431.38683286134	0.5352783203125
2431.39683286131	0.53466796875
2431.40683286129	0.5340576171875
2431.41683286126	0.533447265625
2431.42683286124	0.5328369140625
2431.43683286121	0.5322265625
2431.44683286119	0.53131103515625
2431.45683286116	0.53070068359375
2431.46683286114	0.53009033203125
2431.47683286111	0.52947998046875
2431.48683286109	0.52886962890625
2431.49683286106	0.52825927734375
2431.50683286104	0.52764892578125
2431.51683286101	0.5267333984375
2431.52683286098	0.526123046875
2431.53683286096	0.5255126953125
2431.54683286093	0.52490234375
2431.55683286091	0.5242919921875
2431.56683286088	0.523681640625
2431.57683286086	0.52276611328125
2431.58683286083	0.52215576171875
2431.59683286081	0.52154541015625
2431.60683286078	0.52093505859375
2431.61683286076	0.52032470703125
2431.62683286073	0.51971435546875
2431.63683286071	0.51910400390625
2431.64683286068	0.5181884765625
2431.65683286066	0.517578125
2431.66683286063	0.5169677734375
2431.67683286061	0.516357421875
2431.68683286058	0.5157470703125
2431.69683286056	0.51513671875
2431.70683286053	0.5145263671875
2431.71683286051	0.51361083984375
2431.72683286048	0.51300048828125
2431.73683286045	0.51239013671875
2431.74683286043	0.51177978515625
2431.7568328604	0.51116943359375
2431.76683286038	0.51055908203125
2431.77683286035	0.50994873046875
2431.78683286033	0.509033203125
2431.7968328603	0.5084228515625
2431.80683286028	0.5078125
2431.81683286025	0.5072021484375
2431.82683286023	0.506591796875
2431.8368328602	0.5059814453125
2431.84683286018	0.50537109375
2431.85683286015	0.5047607421875
2431.86683286013	0.50384521484375
2431.8768328601	0.50323486328125
2431.88683286008	0.50262451171875
2431.89683286005	0.50201416015625
2431.90683286003	0.50140380859375
2431.91683286	0.50079345703125
2431.92683285998	0.50018310546875
2431.93683285995	0.49951171875
2431.94683285992	0.498870849609375
2431.9568328599	0.49822998046875
2431.96683285987	0.497589111328125
2431.97683285985	0.4969482421875
2431.98683285982	0.496307373046875
2431.9968328598	0.495635986328125
2432.00683285977	0.4949951171875
2432.01683285975	0.494354248046875
2432.02683285972	0.49371337890625
2432.0368328597	0.493072509765625
2432.04683285967	0.492431640625
2432.05683285965	0.4918212890625
2432.06683285962	0.491180419921875
2432.0768328596	0.49053955078125
2432.08683285957	0.489898681640625
2432.09683285955	0.4892578125
2432.10683285952	0.488616943359375
2432.1168328595	0.48797607421875
2432.12683285947	0.487335205078125
2432.13683285944	0.4866943359375
2432.14683285942	0.486053466796875
2432.15683285939	0.48541259765625
2432.16683285937	0.48480224609375
2432.17683285934	0.48419189453125
2432.18683285932	0.483551025390625
2432.19683285929	0.482940673828125
2432.20683285927	0.4822998046875
2432.21683285924	0.481658935546875
2432.22683285922	0.48101806640625
2432.23683285919	0.48040771484375
2432.24683285917	0.479766845703125
2432.25683285914	0.4791259765625
2432.26683285912	0.478515625
2432.27683285909	0.477874755859375
2432.28683285907	0.47723388671875
2432.29683285904	0.47662353515625
2432.30683285902	0.47601318359375
2432.31683285899	0.475372314453125
2432.32683285897	0.4747314453125
2432.33683285894	0.47412109375
2432.34683285891	0.473480224609375
2432.35683285889	0.472869873046875
2432.36683285886	0.47222900390625
2432.37683285884	0.47161865234375
2432.38683285881	0.470977783203125
2432.39683285879	0.470367431640625
2432.40683285876	0.469757080078125
2432.41683285874	0.4691162109375
2432.42683285871	0.468536376953125
2432.43683285869	0.467926025390625
2432.44683285866	0.46728515625
2432.45683285864	0.4666748046875
2432.46683285861	0.466064453125
2432.47683285859	0.465423583984375
2432.48683285856	0.464813232421875
2432.49683285854	0.464202880859375
2432.50683285851	0.463592529296875
2432.51683285849	0.462982177734375
2432.52683285846	0.46234130859375
2432.53683285843	0.46173095703125
2432.54683285841	0.46112060546875
2432.55683285838	0.46051025390625
2432.56683285836	0.45989990234375
2432.57683285833	0.45928955078125
2432.58683285831	0.45867919921875
2432.59683285828	0.45806884765625
2432.60683285826	0.45745849609375
2432.61683285823	0.45684814453125
2432.62683285821	0.45623779296875
2432.63683285818	0.455657958984375
2432.64683285816	0.455047607421875
2432.65683285813	0.454437255859375
2432.66683285811	0.453826904296875
2432.67683285808	0.453216552734375
2432.68683285806	0.452667236328125
2432.69683285803	0.452056884765625
2432.70683285801	0.451446533203125
2432.71683285798	0.450836181640625
2432.72683285796	0.45025634765625
2432.73683285793	0.44964599609375
2432.7468328579	0.44903564453125
2432.75683285788	0.448455810546875
2432.76683285785	0.447845458984375
2432.77683285783	0.447235107421875
2432.7868328578	0.4466552734375
2432.79683285778	0.446044921875
2432.80683285775	0.445465087890625
2432.81683285773	0.44488525390625
2432.8268328577	0.44427490234375
2432.83683285768	0.443695068359375
2432.84683285765	0.443084716796875
2432.85683285763	0.4425048828125
2432.8668328576	0.441925048828125
2432.87683285758	0.441314697265625
2432.88683285755	0.44073486328125
2432.89683285753	0.440155029296875
2432.9068328575	0.439544677734375
2432.91683285748	0.43896484375
2432.92683285745	0.438385009765625
2432.93683285743	0.43780517578125
2432.9468328574	0.437225341796875
2432.95683285737	0.4366455078125
2432.96683285735	0.436065673828125
2432.97683285732	0.43548583984375
2432.9868328573	0.434906005859375
2432.99683285727	0.434326171875
2433.00683285725	0.433746337890625
2433.01683285722	0.43316650390625
2433.0268328572	0.432586669921875
2433.03683285717	0.4320068359375
2433.04683285715	0.431427001953125
2433.05683285712	0.43084716796875
2433.0668328571	0.430267333984375
2433.07683285707	0.429718017578125
2433.08683285705	0.42913818359375
2433.09683285702	0.428558349609375
2433.106832857	0.428009033203125
2433.11683285697	0.42742919921875
2433.12683285695	0.426849365234375
2433.13683285692	0.426300048828125
2433.14683285689	0.42572021484375
2433.15683285687	0.4251708984375
2433.16683285684	0.424591064453125
2433.17683285682	0.424041748046875
2433.18683285679	0.4234619140625
2433.19683285677	0.42291259765625
2433.20683285674	0.422332763671875
2433.21683285672	0.42181396484375
2433.22683285669	0.4212646484375
2433.23683285667	0.420684814453125
2433.24683285664	0.420135498046875
2433.25683285662	0.419586181640625
2433.26683285659	0.41900634765625
2433.27683285657	0.41845703125
2433.28683285654	0.41790771484375
2433.29683285652	0.4173583984375
2433.30683285649	0.41680908203125
2433.31683285647	0.416229248046875
2433.32683285644	0.415679931640625
2433.33683285642	0.415130615234375
2433.34683285639	0.414581298828125
2433.35683285636	0.414031982421875
2433.36683285634	0.41351318359375
2433.37683285631	0.4129638671875
2433.38683285629	0.41241455078125
2433.39683285626	0.411865234375
2433.40683285624	0.41131591796875
2433.41683285621	0.4107666015625
2433.42683285619	0.41021728515625
2433.43683285616	0.40966796875
2433.44683285614	0.40911865234375
2433.45683285611	0.4085693359375
2433.46683285609	0.408050537109375
2433.47683285606	0.407501220703125
2433.48683285604	0.406951904296875
2433.49683285601	0.40643310546875
2433.50683285599	0.405914306640625
2433.51683285596	0.405364990234375
2433.52683285594	0.404815673828125
2433.53683285591	0.404296875
2433.54683285588	0.40374755859375
2433.55683285586	0.403228759765625
2433.56683285583	0.402679443359375
2433.57683285581	0.40216064453125
2433.58683285578	0.401611328125
2433.59683285576	0.401092529296875
2433.60683285573	0.400543212890625
2433.61683285571	0.4000244140625
2433.62683285568	0.39947509765625
2433.63683285566	0.398956298828125
2433.64683285563	0.3984375
2433.65683285561	0.397918701171875
2433.66683285558	0.397369384765625
2433.67683285556	0.3968505859375
2433.68683285553	0.396331787109375
2433.69683285551	0.395782470703125
2433.70683285548	0.395263671875
2433.71683285546	0.394744873046875
2433.72683285543	0.39422607421875
2433.73683285541	0.3936767578125
2433.74683285538	0.393157958984375
2433.75683285535	0.39263916015625
2433.76683285533	0.392120361328125
2433.7768328553	0.3916015625
2433.78683285528	0.391082763671875
2433.79683285525	0.390594482421875
2433.80683285523	0.39007568359375
2433.8168328552	0.389556884765625
2433.82683285518	0.3890380859375
2433.83683285515	0.388519287109375
2433.84683285513	0.38800048828125
2433.8568328551	0.387481689453125
2433.86683285508	0.386962890625
2433.87683285505	0.386444091796875
2433.88683285503	0.38592529296875
2433.896832855	0.385406494140625
2433.90683285498	0.3848876953125
2433.91683285495	0.384368896484375
2433.92683285493	0.38385009765625
2433.9368328549	0.38336181640625
2433.94683285488	0.382843017578125
2433.95683285485	0.382354736328125
2433.96683285482	0.3818359375
2433.9768328548	0.381317138671875
2433.98683285477	0.38079833984375
2433.99683285475	0.380279541015625
2434.00683285472	0.379791259765625
2434.0168328547	0.3792724609375
2434.02683285467	0.378753662109375
2434.03683285465	0.378265380859375
2434.04683285462	0.37774658203125
2434.0568328546	0.37725830078125
2434.06683285457	0.376739501953125
2434.07683285455	0.376220703125
2434.08683285452	0.375732421875
2434.0968328545	0.375213623046875
2434.10683285447	0.374755859375
2434.11683285445	0.374237060546875
2434.12683285442	0.373748779296875
2434.1368328544	0.37322998046875
2434.14683285437	0.37274169921875
2434.15683285434	0.372222900390625
2434.16683285432	0.371734619140625
2434.17683285429	0.3712158203125
2434.18683285427	0.3707275390625
2434.19683285424	0.370208740234375
2434.20683285422	0.369720458984375
2434.21683285419	0.369232177734375
2434.22683285417	0.36871337890625
2434.23683285414	0.36822509765625
2434.24683285412	0.36773681640625
2434.25683285409	0.36724853515625
2434.26683285407	0.36676025390625
2434.27683285404	0.366241455078125
2434.28683285402	0.365753173828125
2434.29683285399	0.365264892578125
2434.30683285397	0.364776611328125
2434.31683285394	0.3642578125
2434.32683285392	0.36376953125
2434.33683285389	0.36328125
