Time (s)	WE(1).Potential (V)
2308.64653717123	0.06201171875
2308.6565371712	0.062774658203125
2308.66653717118	0.06353759765625
2308.67653717115	0.064300537109375
2308.68653717113	0.0650634765625
2308.6965371711	0.065826416015625
2308.70653717108	0.06658935546875
2308.71653717105	0.06732177734375
2308.72653717103	0.068084716796875
2308.736537171	0.06884765625
2308.74653717098	0.069580078125
2308.75653717095	0.070343017578125
2308.76653717092	0.071075439453125
2308.7765371709	0.07183837890625
2308.78653717087	0.07257080078125
2308.79653717085	0.07330322265625
2308.80653717082	0.074066162109375
2308.8165371708	0.074798583984375
2308.82653717077	0.075531005859375
2308.83653717075	0.0762939453125
2308.84653717072	0.0770263671875
2308.8565371707	0.0777587890625
2308.86653717067	0.078460693359375
2308.87653717065	0.079193115234375
2308.88653717062	0.079925537109375
2308.8965371706	0.080657958984375
2308.90653717057	0.081390380859375
2308.91653717055	0.082122802734375
2308.92653717052	0.08282470703125
2308.9365371705	0.08355712890625
2308.94653717047	0.08428955078125
2308.95653717045	0.08502197265625
2308.96653717042	0.085723876953125
2308.97653717039	0.086456298828125
2308.98653717037	0.087158203125
2308.99653717034	0.087890625
2309.00653717032	0.088592529296875
2309.01653717029	0.089324951171875
2309.02653717027	0.09002685546875
2309.03653717024	0.09075927734375
2309.04653717022	0.091461181640625
2309.05653717019	0.0921630859375
2309.06653717017	0.0928955078125
2309.07653717014	0.093597412109375
2309.08653717012	0.094268798828125
2309.09653717009	0.094970703125
2309.10653717007	0.095672607421875
2309.11653717004	0.09637451171875
2309.12653717002	0.097076416015625
2309.13653716999	0.097808837890625
2309.14653716997	0.098480224609375
2309.15653716994	0.09918212890625
2309.16653716992	0.099884033203125
2309.17653716989	0.1005859375
2309.18653716986	0.101287841796875
2309.19653716984	0.101959228515625
2309.20653716981	0.1026611328125
2309.21653716979	0.103363037109375
2309.22653716976	0.10406494140625
2309.23653716974	0.104736328125
2309.24653716971	0.105438232421875
2309.25653716969	0.106109619140625
2309.26653716966	0.1068115234375
2309.27653716964	0.10748291015625
2309.28653716961	0.108184814453125
2309.29653716959	0.108856201171875
2309.30653716956	0.109527587890625
2309.31653716954	0.11016845703125
2309.32653716951	0.110870361328125
2309.33653716949	0.111541748046875
2309.34653716946	0.112213134765625
2309.35653716944	0.112884521484375
2309.36653716941	0.113555908203125
2309.37653716938	0.1142578125
2309.38653716936	0.11492919921875
2309.39653716933	0.1156005859375
2309.40653716931	0.11627197265625
2309.41653716928	0.116943359375
2309.42653716926	0.117584228515625
2309.43653716923	0.118255615234375
2309.44653716921	0.118927001953125
2309.45653716918	0.119598388671875
2309.46653716916	0.1202392578125
2309.47653716913	0.12091064453125
2309.48653716911	0.12158203125
2309.49653716908	0.12225341796875
2309.50653716906	0.122894287109375
2309.51653716903	0.123565673828125
2309.52653716901	0.12420654296875
2309.53653716898	0.1248779296875
2309.54653716896	0.12548828125
2309.55653716893	0.12615966796875
2309.56653716891	0.126800537109375
2309.57653716888	0.127471923828125
2309.58653716885	0.12811279296875
2309.59653716883	0.128753662109375
2309.6065371688	0.12939453125
2309.61653716878	0.13006591796875
2309.62653716875	0.130706787109375
2309.63653716873	0.13134765625
2309.6465371687	0.131988525390625
2309.65653716868	0.13262939453125
2309.66653716865	0.133270263671875
2309.67653716863	0.1339111328125
2309.6865371686	0.134552001953125
2309.69653716858	0.13519287109375
2309.70653716855	0.13580322265625
2309.71653716853	0.136444091796875
2309.7265371685	0.1370849609375
2309.73653716848	0.137725830078125
2309.74653716845	0.13836669921875
2309.75653716843	0.13897705078125
2309.7665371684	0.139617919921875
2309.77653716837	0.1402587890625
2309.78653716835	0.140838623046875
2309.79653716832	0.1414794921875
2309.8065371683	0.14208984375
2309.81653716827	0.142730712890625
2309.82653716825	0.143341064453125
2309.83653716822	0.14398193359375
2309.8465371682	0.14459228515625
2309.85653716817	0.145233154296875
2309.86653716815	0.145843505859375
2309.87653716812	0.146453857421875
2309.8865371681	0.147064208984375
2309.89653716807	0.147705078125
2309.90653716805	0.1483154296875
2309.91653716802	0.14892578125
2309.926537168	0.1495361328125
2309.93653716797	0.150146484375
2309.94653716795	0.1507568359375
2309.95653716792	0.1513671875
2309.9665371679	0.1519775390625
2309.97653716787	0.152587890625
2309.98653716784	0.1531982421875
2309.99653716782	0.15380859375
2310.00653716779	0.1544189453125
2310.01653716777	0.155029296875
2310.02653716774	0.155609130859375
2310.03653716772	0.156219482421875
2310.04653716769	0.15679931640625
2310.05653716767	0.15740966796875
2310.06653716764	0.15802001953125
2310.07653716762	0.158599853515625
2310.08653716759	0.159210205078125
2310.09653716757	0.159820556640625
2310.10653716754	0.160400390625
2310.11653716752	0.1610107421875
2310.12653716749	0.161590576171875
2310.13653716747	0.162200927734375
2310.14653716744	0.16278076171875
2310.15653716742	0.163360595703125
2310.16653716739	0.163970947265625
2310.17653716737	0.16455078125
2310.18653716734	0.165130615234375
2310.19653716731	0.16571044921875
2310.20653716729	0.16632080078125
2310.21653716726	0.166900634765625
2310.22653716724	0.16748046875
2310.23653716721	0.168060302734375
2310.24653716719	0.16864013671875
2310.25653716716	0.169219970703125
2310.26653716714	0.1697998046875
2310.27653716711	0.170379638671875
2310.28653716709	0.17095947265625
2310.29653716706	0.171539306640625
2310.30653716704	0.172088623046875
2310.31653716701	0.17266845703125
2310.32653716699	0.1732177734375
2310.33653716696	0.173797607421875
2310.34653716694	0.17437744140625
2310.35653716691	0.174957275390625
2310.36653716689	0.175506591796875
2310.37653716686	0.17608642578125
2310.38653716683	0.176666259765625
2310.39653716681	0.177215576171875
2310.40653716678	0.17779541015625
2310.41653716676	0.1783447265625
2310.42653716673	0.178924560546875
2310.43653716671	0.179473876953125
2310.44653716668	0.180023193359375
2310.45653716666	0.18060302734375
2310.46653716663	0.18115234375
2310.47653716661	0.18170166015625
2310.48653716658	0.1822509765625
2310.49653716656	0.182830810546875
2310.50653716653	0.183380126953125
2310.51653716651	0.183929443359375
2310.52653716648	0.184478759765625
2310.53653716646	0.185028076171875
2310.54653716643	0.18560791015625
2310.55653716641	0.1861572265625
2310.56653716638	0.186676025390625
2310.57653716636	0.187225341796875
2310.58653716633	0.187774658203125
2310.5965371663	0.188323974609375
2310.60653716628	0.188873291015625
2310.61653716625	0.18939208984375
2310.62653716623	0.18994140625
2310.6365371662	0.19049072265625
2310.64653716618	0.191009521484375
2310.65653716615	0.191558837890625
2310.66653716613	0.192108154296875
2310.6765371661	0.192626953125
2310.68653716608	0.19317626953125
2310.69653716605	0.193695068359375
2310.70653716603	0.194244384765625
2310.716537166	0.19476318359375
2310.72653716598	0.195281982421875
2310.73653716595	0.195831298828125
2310.74653716593	0.19635009765625
2310.7565371659	0.196868896484375
2310.76653716588	0.1973876953125
2310.77653716585	0.197906494140625
2310.78653716582	0.198455810546875
2310.7965371658	0.198974609375
2310.80653716577	0.199493408203125
2310.81653716575	0.20001220703125
2310.82653716572	0.200531005859375
2310.8365371657	0.2010498046875
2310.84653716567	0.201568603515625
2310.85653716565	0.20208740234375
2310.86653716562	0.202606201171875
2310.8765371656	0.203094482421875
2310.88653716557	0.203582763671875
2310.89653716555	0.204071044921875
2310.90653716552	0.20458984375
2310.9165371655	0.205108642578125
2310.92653716547	0.205596923828125
2310.93653716545	0.20611572265625
2310.94653716542	0.20660400390625
2310.9565371654	0.207122802734375
2310.96653716537	0.207611083984375
2310.97653716535	0.2081298828125
2310.98653716532	0.2086181640625
2310.99653716529	0.209136962890625
2311.00653716527	0.209625244140625
2311.01653716524	0.210113525390625
2311.02653716522	0.210601806640625
2311.03653716519	0.211090087890625
2311.04653716517	0.211578369140625
2311.05653716514	0.21209716796875
2311.06653716512	0.21258544921875
2311.07653716509	0.21307373046875
2311.08653716507	0.21356201171875
2311.09653716504	0.21405029296875
2311.10653716502	0.21453857421875
2311.11653716499	0.21502685546875
2311.12653716497	0.21551513671875
2311.13653716494	0.21600341796875
2311.14653716492	0.216461181640625
2311.15653716489	0.216949462890625
2311.16653716487	0.217437744140625
2311.17653716484	0.217926025390625
2311.18653716482	0.2183837890625
2311.19653716479	0.218841552734375
2311.20653716476	0.219329833984375
2311.21653716474	0.21978759765625
2311.22653716471	0.22027587890625
2311.23653716469	0.22076416015625
2311.24653716466	0.221221923828125
2311.25653716464	0.2216796875
2311.26653716461	0.22216796875
2311.27653716459	0.222625732421875
2311.28653716456	0.223114013671875
2311.29653716454	0.22357177734375
2311.30653716451	0.224029541015625
2311.31653716449	0.224517822265625
2311.32653716446	0.2249755859375
2311.33653716444	0.225433349609375
2311.34653716441	0.22589111328125
2311.35653716439	0.22637939453125
2311.36653716436	0.226806640625
2311.37653716434	0.227264404296875
2311.38653716431	0.22772216796875
2311.39653716428	0.228179931640625
2311.40653716426	0.2286376953125
2311.41653716423	0.229095458984375
2311.42653716421	0.22955322265625
2311.43653716418	0.230010986328125
2311.44653716416	0.23046875
2311.45653716413	0.230926513671875
2311.46653716411	0.23138427734375
2311.47653716408	0.2318115234375
2311.48653716406	0.232269287109375
2311.49653716403	0.23272705078125
2311.50653716401	0.233154296875
2311.51653716398	0.233612060546875
2311.52653716396	0.23406982421875
2311.53653716393	0.234466552734375
2311.54653716391	0.234893798828125
2311.55653716388	0.2353515625
2311.56653716386	0.23577880859375
2311.57653716383	0.236236572265625
2311.58653716381	0.236663818359375
2311.59653716378	0.237091064453125
2311.60653716375	0.237548828125
2311.61653716373	0.23797607421875
2311.6265371637	0.2384033203125
2311.63653716368	0.238861083984375
2311.64653716365	0.239288330078125
2311.65653716363	0.239715576171875
2311.6665371636	0.240142822265625
2311.67653716358	0.240570068359375
2311.68653716355	0.240997314453125
2311.69653716353	0.241424560546875
2311.7065371635	0.241851806640625
2311.71653716348	0.242279052734375
2311.72653716345	0.24267578125
2311.73653716343	0.24310302734375
2311.7465371634	0.2435302734375
2311.75653716338	0.24395751953125
2311.76653716335	0.244384765625
2311.77653716333	0.24481201171875
2311.7865371633	0.245208740234375
2311.79653716327	0.245635986328125
2311.80653716325	0.246063232421875
2311.81653716322	0.2464599609375
2311.8265371632	0.24688720703125
2311.83653716317	0.247283935546875
2311.84653716315	0.247711181640625
2311.85653716312	0.248138427734375
2311.8665371631	0.24853515625
2311.87653716307	0.248931884765625
2311.88653716305	0.249359130859375
2311.89653716302	0.249755859375
2311.906537163	0.2501220703125
2311.91653716297	0.25054931640625
2311.92653716295	0.250946044921875
2311.93653716292	0.2513427734375
2311.9465371629	0.251739501953125
2311.95653716287	0.252166748046875
2311.96653716285	0.2525634765625
2311.97653716282	0.252960205078125
2311.9865371628	0.25335693359375
2311.99653716277	0.253753662109375
2312.00653716274	0.254180908203125
2312.01653716272	0.25457763671875
2312.02653716269	0.254974365234375
2312.03653716267	0.25537109375
2312.04653716264	0.255767822265625
2312.05653716262	0.25616455078125
2312.06653716259	0.256561279296875
2312.07653716257	0.256927490234375
2312.08653716254	0.25732421875
2312.09653716252	0.257720947265625
2312.10653716249	0.25811767578125
2312.11653716247	0.258514404296875
2312.12653716244	0.258880615234375
2312.13653716242	0.25927734375
2312.14653716239	0.259674072265625
2312.15653716237	0.26007080078125
2312.16653716234	0.26043701171875
2312.17653716232	0.260833740234375
2312.18653716229	0.26123046875
2312.19653716227	0.261627197265625
2312.20653716224	0.261993408203125
2312.21653716221	0.26239013671875
2312.22653716219	0.26275634765625
2312.23653716216	0.263153076171875
2312.24653716214	0.2635498046875
2312.25653716211	0.263916015625
2312.26653716209	0.264312744140625
2312.27653716206	0.264678955078125
2312.28653716204	0.26507568359375
2312.29653716201	0.26544189453125
2312.30653716199	0.265777587890625
2312.31653716196	0.26617431640625
2312.32653716194	0.26654052734375
2312.33653716191	0.266937255859375
2312.34653716189	0.267303466796875
2312.35653716186	0.267669677734375
2312.36653716184	0.268035888671875
2312.37653716181	0.2684326171875
2312.38653716179	0.268798828125
2312.39653716176	0.2691650390625
2312.40653716173	0.26953125
2312.41653716171	0.269927978515625
2312.42653716168	0.270294189453125
2312.43653716166	0.270660400390625
2312.44653716163	0.271026611328125
2312.45653716161	0.27142333984375
2312.46653716158	0.27178955078125
2312.47653716156	0.27215576171875
2312.48653716153	0.27252197265625
2312.49653716151	0.27288818359375
2312.50653716148	0.27325439453125
2312.51653716146	0.27362060546875
2312.52653716143	0.27398681640625
2312.53653716141	0.27435302734375
2312.54653716138	0.274688720703125
2312.55653716136	0.275054931640625
2312.56653716133	0.275421142578125
2312.57653716131	0.275787353515625
2312.58653716128	0.276153564453125
2312.59653716126	0.276519775390625
2312.60653716123	0.276885986328125
2312.6165371612	0.277252197265625
2312.62653716118	0.277618408203125
2312.63653716115	0.277984619140625
2312.64653716113	0.2783203125
2312.6565371611	0.2786865234375
2312.66653716108	0.279052734375
2312.67653716105	0.2794189453125
2312.68653716103	0.27978515625
2312.696537161	0.280120849609375
2312.70653716098	0.280487060546875
2312.71653716095	0.280853271484375
2312.72653716093	0.28118896484375
2312.7365371609	0.281524658203125
2312.74653716088	0.281890869140625
2312.75653716085	0.282257080078125
2312.76653716083	0.2825927734375
2312.7765371608	0.282958984375
2312.78653716078	0.2833251953125
2312.79653716075	0.283660888671875
2312.80653716072	0.284027099609375
2312.8165371607	0.284393310546875
2312.82653716067	0.28472900390625
2312.83653716065	0.28509521484375
2312.84653716062	0.28546142578125
2312.8565371606	0.285797119140625
2312.86653716057	0.286163330078125
2312.87653716055	0.2864990234375
2312.88653716052	0.286865234375
2312.8965371605	0.2872314453125
2312.90653716047	0.287567138671875
2312.91653716045	0.287933349609375
2312.92653716042	0.288299560546875
2312.9365371604	0.28863525390625
2312.94653716037	0.28900146484375
2312.95653716035	0.289337158203125
2312.96653716032	0.2896728515625
2312.9765371603	0.2900390625
2312.98653716027	0.2904052734375
2312.99653716025	0.290740966796875
2313.00653716022	0.291107177734375
2313.01653716019	0.29144287109375
2313.02653716017	0.29180908203125
2313.03653716014	0.29217529296875
2313.04653716012	0.292510986328125
2313.05653716009	0.292877197265625
2313.06653716007	0.293212890625
2313.07653716004	0.2935791015625
2313.08653716002	0.2939453125
2313.09653715999	0.294281005859375
2313.10653715997	0.294647216796875
2313.11653715994	0.295013427734375
2313.12653715992	0.29534912109375
2313.13653715989	0.29571533203125
2313.14653715987	0.296051025390625
2313.15653715984	0.296417236328125
2313.16653715982	0.296783447265625
2313.17653715979	0.297088623046875
2313.18653715977	0.297454833984375
2313.19653715974	0.297821044921875
2313.20653715972	0.29815673828125
2313.21653715969	0.29852294921875
2313.22653715966	0.29888916015625
2313.23653715964	0.299224853515625
2313.24653715961	0.299591064453125
2313.25653715959	0.299957275390625
2313.26653715956	0.30029296875
2313.27653715954	0.3006591796875
2313.28653715951	0.301025390625
2313.29653715949	0.3013916015625
2313.30653715946	0.3017578125
2313.31653715944	0.302093505859375
2313.32653715941	0.302459716796875
2313.33653715939	0.302825927734375
2313.34653715936	0.303192138671875
2313.35653715934	0.303558349609375
2313.36653715931	0.30389404296875
2313.37653715929	0.30426025390625
2313.38653715926	0.30462646484375
2313.39653715924	0.30499267578125
2313.40653715921	0.30535888671875
2313.41653715918	0.305694580078125
2313.42653715916	0.306060791015625
2313.43653715913	0.306427001953125
2313.44653715911	0.306793212890625
2313.45653715908	0.307159423828125
2313.46653715906	0.307525634765625
2313.47653715903	0.307891845703125
2313.48653715901	0.308258056640625
2313.49653715898	0.308624267578125
2313.50653715896	0.308990478515625
2313.51653715893	0.309356689453125
2313.52653715891	0.309722900390625
2313.53653715888	0.310089111328125
2313.54653715886	0.310455322265625
2313.55653715883	0.310821533203125
2313.56653715881	0.311187744140625
2313.57653715878	0.311553955078125
2313.58653715876	0.311920166015625
2313.59653715873	0.312286376953125
2313.60653715871	0.312652587890625
2313.61653715868	0.313018798828125
2313.62653715865	0.313385009765625
2313.63653715863	0.313751220703125
2313.6465371586	0.314117431640625
2313.65653715858	0.314483642578125
2313.66653715855	0.314849853515625
2313.67653715853	0.315216064453125
2313.6865371585	0.315582275390625
2313.69653715848	0.31597900390625
2313.70653715845	0.31634521484375
2313.71653715843	0.31671142578125
2313.7265371584	0.31707763671875
2313.73653715838	0.31744384765625
2313.74653715835	0.31781005859375
2313.75653715833	0.318206787109375
2313.7665371583	0.318572998046875
2313.77653715828	0.318939208984375
2313.78653715825	0.319305419921875
2313.79653715823	0.319671630859375
2313.8065371582	0.320068359375
2313.81653715817	0.3204345703125
2313.82653715815	0.32080078125
2313.83653715812	0.3211669921875
2313.8465371581	0.321533203125
2313.85653715807	0.3218994140625
2313.86653715805	0.322296142578125
2313.87653715802	0.322662353515625
2313.886537158	0.323028564453125
2313.89653715797	0.323394775390625
2313.90653715795	0.32379150390625
2313.91653715792	0.32415771484375
2313.9265371579	0.32452392578125
2313.93653715787	0.324920654296875
2313.94653715785	0.325286865234375
2313.95653715782	0.325653076171875
2313.9665371578	0.3260498046875
2313.97653715777	0.326416015625
2313.98653715775	0.3267822265625
2313.99653715772	0.3271484375
2314.0065371577	0.327545166015625
2314.01653715767	0.327911376953125
2314.02653715764	0.3282470703125
2314.03653715762	0.32861328125
2314.04653715759	0.329010009765625
2314.05653715757	0.329376220703125
2314.06653715754	0.329742431640625
2314.07653715752	0.33013916015625
2314.08653715749	0.33050537109375
2314.09653715747	0.33087158203125
2314.10653715744	0.331268310546875
2314.11653715742	0.331634521484375
2314.12653715739	0.332000732421875
2314.13653715737	0.3323974609375
2314.14653715734	0.332763671875
2314.15653715732	0.3331298828125
2314.16653715729	0.333526611328125
2314.17653715727	0.333892822265625
2314.18653715724	0.334259033203125
2314.19653715722	0.33465576171875
2314.20653715719	0.33502197265625
2314.21653715717	0.33538818359375
2314.22653715714	0.33575439453125
2314.23653715711	0.33612060546875
2314.24653715709	0.336517333984375
2314.25653715706	0.336883544921875
2314.26653715704	0.337249755859375
2314.27653715701	0.337646484375
2314.28653715699	0.3380126953125
2314.29653715696	0.33837890625
2314.30653715694	0.3387451171875
2314.31653715691	0.339141845703125
2314.32653715689	0.339508056640625
2314.33653715686	0.339874267578125
2314.34653715684	0.34027099609375
2314.35653715681	0.34063720703125
2314.36653715679	0.34100341796875
2314.37653715676	0.34136962890625
2314.38653715674	0.341766357421875
2314.39653715671	0.342132568359375
2314.40653715669	0.342498779296875
2314.41653715666	0.342864990234375
2314.42653715663	0.34326171875
2314.43653715661	0.3436279296875
2314.44653715658	0.343963623046875
2314.45653715656	0.344329833984375
2314.46653715653	0.3447265625
2314.47653715651	0.3450927734375
2314.48653715648	0.345458984375
2314.49653715646	0.3458251953125
2314.50653715643	0.346221923828125
2314.51653715641	0.346588134765625
2314.52653715638	0.346954345703125
2314.53653715636	0.347320556640625
2314.54653715633	0.34771728515625
2314.55653715631	0.34808349609375
2314.56653715628	0.34844970703125
2314.57653715626	0.34881591796875
2314.58653715623	0.34918212890625
2314.59653715621	0.34954833984375
2314.60653715618	0.349945068359375
2314.61653715616	0.350311279296875
2314.62653715613	0.350677490234375
2314.6365371561	0.351043701171875
2314.64653715608	0.351409912109375
2314.65653715605	0.351776123046875
2314.66653715603	0.352142333984375
2314.676537156	0.352508544921875
2314.68653715598	0.3529052734375
2314.69653715595	0.353271484375
2314.70653715593	0.3536376953125
2314.7165371559	0.35400390625
2314.72653715588	0.3543701171875
2314.73653715585	0.354736328125
2314.74653715583	0.3551025390625
2314.7565371558	0.355499267578125
2314.76653715578	0.355865478515625
2314.77653715575	0.356231689453125
2314.78653715573	0.356597900390625
2314.7965371557	0.356964111328125
2314.80653715568	0.357330322265625
2314.81653715565	0.357696533203125
2314.82653715562	0.35809326171875
2314.8365371556	0.35845947265625
2314.84653715557	0.35882568359375
2314.85653715555	0.35919189453125
2314.86653715552	0.359527587890625
2314.8765371555	0.359893798828125
2314.88653715547	0.360260009765625
2314.89653715545	0.360626220703125
2314.90653715542	0.360992431640625
2314.9165371554	0.361358642578125
2314.92653715537	0.361724853515625
2314.93653715535	0.362091064453125
2314.94653715532	0.36248779296875
2314.9565371553	0.36285400390625
2314.96653715527	0.36322021484375
2314.97653715525	0.36358642578125
2314.98653715522	0.36395263671875
2314.9965371552	0.36431884765625
2315.00653715517	0.36468505859375
2315.01653715515	0.36505126953125
2315.02653715512	0.36541748046875
2315.03653715509	0.36578369140625
2315.04653715507	0.366180419921875
2315.05653715504	0.366546630859375
2315.06653715502	0.366912841796875
2315.07653715499	0.367279052734375
2315.08653715497	0.367645263671875
2315.09653715494	0.368011474609375
2315.10653715492	0.368377685546875
2315.11653715489	0.368743896484375
2315.12653715487	0.369110107421875
2315.13653715484	0.369476318359375
2315.14653715482	0.369842529296875
2315.15653715479	0.370208740234375
2315.16653715477	0.370574951171875
2315.17653715474	0.370941162109375
2315.18653715472	0.371307373046875
2315.19653715469	0.3717041015625
2315.20653715467	0.3720703125
2315.21653715464	0.3724365234375
2315.22653715462	0.372802734375
2315.23653715459	0.3731689453125
2315.24653715456	0.37353515625
2315.25653715454	0.3739013671875
2315.26653715451	0.374267578125
2315.27653715449	0.3746337890625
2315.28653715446	0.375
2315.29653715444	0.3753662109375
2315.30653715441	0.375732421875
2315.31653715439	0.3760986328125
2315.32653715436	0.37646484375
2315.33653715434	0.3768310546875
2315.34653715431	0.377197265625
2315.35653715429	0.3775634765625
2315.36653715426	0.3779296875
2315.37653715424	0.3782958984375
2315.38653715421	0.378692626953125
2315.39653715419	0.379058837890625
2315.40653715416	0.379425048828125
2315.41653715414	0.379791259765625
2315.42653715411	0.380157470703125
2315.43653715408	0.380523681640625
2315.44653715406	0.380889892578125
2315.45653715403	0.381256103515625
2315.46653715401	0.38165283203125
2315.47653715398	0.38201904296875
2315.48653715396	0.38238525390625
2315.49653715393	0.38275146484375
2315.50653715391	0.38311767578125
2315.51653715388	0.38348388671875
2315.52653715386	0.38385009765625
2315.53653715383	0.38421630859375
2315.54653715381	0.38458251953125
2315.55653715378	0.38494873046875
2315.56653715376	0.38531494140625
2315.57653715373	0.38568115234375
2315.58653715371	0.386077880859375
2315.59653715368	0.386444091796875
2315.60653715366	0.386810302734375
2315.61653715363	0.387176513671875
2315.62653715361	0.387542724609375
2315.63653715358	0.387939453125
2315.64653715355	0.3883056640625
2315.65653715353	0.388671875
2315.6665371535	0.3890380859375
2315.67653715348	0.389404296875
2315.68653715345	0.3897705078125
2315.69653715343	0.39013671875
2315.7065371534	0.390533447265625
2315.71653715338	0.390838623046875
2315.72653715335	0.3912353515625
2315.73653715333	0.3916015625
2315.7465371533	0.3919677734375
2315.75653715328	0.392333984375
2315.76653715325	0.3927001953125
2315.77653715323	0.39306640625
2315.7865371532	0.3934326171875
2315.79653715318	0.393829345703125
2315.80653715315	0.394195556640625
2315.81653715313	0.394561767578125
2315.8265371531	0.394927978515625
2315.83653715307	0.395294189453125
2315.84653715305	0.395660400390625
2315.85653715302	0.39605712890625
2315.866537153	0.39642333984375
2315.87653715297	0.39678955078125
2315.88653715295	0.39715576171875
2315.89653715292	0.39752197265625
2315.9065371529	0.397918701171875
2315.91653715287	0.398284912109375
2315.92653715285	0.39862060546875
2315.93653715282	0.399017333984375
2315.9465371528	0.399383544921875
2315.95653715277	0.399749755859375
2315.96653715275	0.400115966796875
2315.97653715272	0.400482177734375
2315.9865371527	0.400848388671875
2315.99653715267	0.4012451171875
2316.00653715265	0.401611328125
2316.01653715262	0.4019775390625
2316.0265371526	0.40234375
2316.03653715257	0.4027099609375
2316.04653715254	0.403076171875
2316.05653715252	0.4034423828125
2316.06653715249	0.403839111328125
2316.07653715247	0.404205322265625
2316.08653715244	0.404571533203125
2316.09653715242	0.404937744140625
2316.10653715239	0.405303955078125
2316.11653715237	0.405670166015625
2316.12653715234	0.406036376953125
2316.13653715232	0.406402587890625
2316.14653715229	0.406768798828125
2316.15653715227	0.407135009765625
2316.16653715224	0.407501220703125
2316.17653715222	0.407867431640625
2316.18653715219	0.408233642578125
2316.19653715217	0.408599853515625
2316.20653715214	0.408966064453125
2316.21653715212	0.40936279296875
2316.22653715209	0.40972900390625
2316.23653715207	0.41009521484375
2316.24653715204	0.41046142578125
2316.25653715201	0.41082763671875
2316.26653715199	0.41119384765625
2316.27653715196	0.41156005859375
2316.28653715194	0.41192626953125
2316.29653715191	0.41229248046875
2316.30653715189	0.412689208984375
2316.31653715186	0.41302490234375
2316.32653715184	0.413421630859375
2316.33653715181	0.413787841796875
2316.34653715179	0.41412353515625
2316.35653715176	0.41448974609375
2316.36653715174	0.414886474609375
2316.37653715171	0.415252685546875
2316.38653715169	0.415618896484375
2316.39653715166	0.415985107421875
2316.40653715164	0.416351318359375
2316.41653715161	0.416717529296875
2316.42653715159	0.417083740234375
2316.43653715156	0.417449951171875
2316.44653715153	0.417816162109375
2316.45653715151	0.418182373046875
2316.46653715148	0.418548583984375
2316.47653715146	0.418914794921875
2316.48653715143	0.419281005859375
2316.49653715141	0.419647216796875
2316.50653715138	0.420013427734375
2316.51653715136	0.420379638671875
2316.52653715133	0.420745849609375
2316.53653715131	0.421112060546875
2316.54653715128	0.4215087890625
2316.55653715126	0.421844482421875
2316.56653715123	0.42218017578125
2316.57653715121	0.42254638671875
2316.58653715118	0.42291259765625
2316.59653715116	0.42327880859375
2316.60653715113	0.42364501953125
2316.61653715111	0.42401123046875
2316.62653715108	0.42437744140625
2316.63653715106	0.42474365234375
2316.64653715103	0.42510986328125
2316.656537151	0.42547607421875
2316.66653715098	0.42584228515625
2316.67653715095	0.42620849609375
2316.68653715093	0.42657470703125
2316.6965371509	0.42694091796875
2316.70653715088	0.42730712890625
2316.71653715085	0.42767333984375
2316.72653715083	0.42803955078125
2316.7365371508	0.42840576171875
2316.74653715078	0.42877197265625
2316.75653715075	0.42913818359375
2316.76653715073	0.42950439453125
2316.7765371507	0.42987060546875
2316.78653715068	0.43023681640625
2316.79653715065	0.43060302734375
2316.80653715063	0.43096923828125
2316.8165371506	0.43133544921875
2316.82653715058	0.43170166015625
2316.83653715055	0.43206787109375
2316.84653715052	0.43243408203125
2316.8565371505	0.43280029296875
2316.86653715047	0.43316650390625
2316.87653715045	0.43353271484375
2316.88653715042	0.43389892578125
2316.8965371504	0.43426513671875
2316.90653715037	0.43463134765625
2316.91653715035	0.43499755859375
2316.92653715032	0.43536376953125
2316.9365371503	0.43572998046875
2316.94653715027	0.43609619140625
2316.95653715025	0.43646240234375
2316.96653715022	0.43682861328125
2316.9765371502	0.43719482421875
2316.98653715017	0.43756103515625
2316.99653715015	0.43792724609375
2317.00653715012	0.43829345703125
2317.0165371501	0.43865966796875
2317.02653715007	0.43902587890625
2317.03653715005	0.43939208984375
2317.04653715002	0.43975830078125
2317.05653714999	0.44012451171875
2317.06653714997	0.44049072265625
2317.07653714994	0.44085693359375
2317.08653714992	0.44122314453125
2317.09653714989	0.44158935546875
2317.10653714987	0.44195556640625
2317.11653714984	0.44232177734375
2317.12653714982	0.44268798828125
2317.13653714979	0.44305419921875
2317.14653714977	0.44342041015625
2317.15653714974	0.44378662109375
2317.16653714972	0.44415283203125
2317.17653714969	0.44451904296875
2317.18653714967	0.444915771484375
2317.19653714964	0.44525146484375
2317.20653714962	0.44561767578125
2317.21653714959	0.44598388671875
2317.22653714957	0.44635009765625
2317.23653714954	0.44671630859375
2317.24653714952	0.44708251953125
2317.25653714949	0.44744873046875
2317.26653714946	0.447845458984375
2317.27653714944	0.448211669921875
2317.28653714941	0.448577880859375
2317.29653714939	0.448944091796875
2317.30653714936	0.449310302734375
2317.31653714934	0.449676513671875
2317.32653714931	0.450042724609375
2317.33653714929	0.450408935546875
2317.34653714926	0.450775146484375
2317.35653714924	0.451141357421875
2317.36653714921	0.451507568359375
2317.37653714919	0.451904296875
2317.38653714916	0.4522705078125
2317.39653714914	0.45263671875
2317.40653714911	0.4530029296875
2317.41653714909	0.453338623046875
2317.42653714906	0.453704833984375
2317.43653714904	0.454071044921875
2317.44653714901	0.454437255859375
2317.45653714898	0.454803466796875
2317.46653714896	0.455169677734375
2317.47653714893	0.455535888671875
2317.48653714891	0.455902099609375
2317.49653714888	0.456298828125
2317.50653714886	0.4566650390625
2317.51653714883	0.45703125
2317.52653714881	0.4573974609375
2317.53653714878	0.457763671875
2317.54653714876	0.4581298828125
2317.55653714873	0.458526611328125
2317.56653714871	0.458892822265625
2317.57653714868	0.459259033203125
2317.58653714866	0.459625244140625
2317.59653714863	0.459991455078125
2317.60653714861	0.460357666015625
2317.61653714858	0.46075439453125
2317.62653714856	0.461090087890625
2317.63653714853	0.461456298828125
2317.64653714851	0.46185302734375
2317.65653714848	0.46221923828125
2317.66653714845	0.46258544921875
2317.67653714843	0.46295166015625
2317.6865371484	0.46331787109375
2317.69653714838	0.46368408203125
2317.70653714835	0.464080810546875
2317.71653714833	0.464447021484375
2317.7265371483	0.464813232421875
2317.73653714828	0.465179443359375
2317.74653714825	0.465545654296875
2317.75653714823	0.4659423828125
2317.7665371482	0.46630859375
2317.77653714818	0.4666748046875
2317.78653714815	0.467041015625
2317.79653714813	0.467437744140625
2317.8065371481	0.467803955078125
2317.81653714808	0.468170166015625
2317.82653714805	0.468536376953125
2317.83653714803	0.468902587890625
2317.846537148	0.469268798828125
2317.85653714797	0.469635009765625
2317.86653714795	0.470001220703125
2317.87653714792	0.47039794921875
2317.8865371479	0.47076416015625
2317.89653714787	0.47113037109375
2317.90653714785	0.47149658203125
2317.91653714782	0.47186279296875
2317.9265371478	0.472259521484375
2317.93653714777	0.472625732421875
2317.94653714775	0.472991943359375
2317.95653714772	0.473388671875
2317.9665371477	0.4737548828125
2317.97653714767	0.47412109375
2317.98653714765	0.4744873046875
2317.99653714762	0.474884033203125
2318.0065371476	0.475250244140625
2318.01653714757	0.475616455078125
2318.02653714755	0.475982666015625
2318.03653714752	0.47637939453125
2318.0465371475	0.47674560546875
2318.05653714747	0.47711181640625
2318.06653714744	0.47747802734375
2318.07653714742	0.477874755859375
2318.08653714739	0.478240966796875
2318.09653714737	0.478607177734375
2318.10653714734	0.478973388671875
2318.11653714732	0.4793701171875
2318.12653714729	0.479736328125
2318.13653714727	0.4801025390625
2318.14653714724	0.480499267578125
2318.15653714722	0.480865478515625
2318.16653714719	0.48126220703125
2318.17653714717	0.48162841796875
2318.18653714714	0.48199462890625
2318.19653714712	0.482391357421875
2318.20653714709	0.482757568359375
2318.21653714707	0.483123779296875
2318.22653714704	0.4835205078125
2318.23653714702	0.48388671875
2318.24653714699	0.4842529296875
2318.25653714697	0.484588623046875
2318.26653714694	0.4849853515625
2318.27653714691	0.4853515625
2318.28653714689	0.485748291015625
2318.29653714686	0.486114501953125
2318.30653714684	0.486480712890625
2318.31653714681	0.48687744140625
2318.32653714679	0.48724365234375
2318.33653714676	0.48760986328125
2318.34653714674	0.488006591796875
2318.35653714671	0.488372802734375
2318.36653714669	0.48876953125
2318.37653714666	0.4891357421875
2318.38653714664	0.489532470703125
2318.39653714661	0.489898681640625
2318.40653714659	0.49029541015625
2318.41653714656	0.49066162109375
2318.42653714654	0.49102783203125
2318.43653714651	0.491424560546875
2318.44653714649	0.491790771484375
2318.45653714646	0.4921875
2318.46653714643	0.4925537109375
2318.47653714641	0.492919921875
2318.48653714638	0.493316650390625
2318.49653714636	0.493682861328125
2318.50653714633	0.49407958984375
2318.51653714631	0.49444580078125
2318.52653714628	0.494842529296875
2318.53653714626	0.495208740234375
2318.54653714623	0.49560546875
2318.55653714621	0.4959716796875
2318.56653714618	0.496368408203125
2318.57653714616	0.496734619140625
2318.58653714613	0.49713134765625
2318.59653714611	0.497528076171875
2318.60653714608	0.497894287109375
2318.61653714606	0.498260498046875
2318.62653714603	0.4986572265625
2318.63653714601	0.499053955078125
2318.64653714598	0.499420166015625
2318.65653714596	0.49981689453125
2318.66653714593	0.50018310546875
2318.6765371459	0.50048828125
2318.68653714588	0.50079345703125
2318.69653714585	0.5010986328125
2318.70653714583	0.501708984375
2318.7165371458	0.50201416015625
2318.72653714578	0.5023193359375
2318.73653714575	0.50262451171875
2318.74653714573	0.50323486328125
2318.7565371457	0.5035400390625
2318.76653714568	0.50384521484375
2318.77653714565	0.50445556640625
2318.78653714563	0.5047607421875
2318.7965371456	0.50506591796875
2318.80653714558	0.50537109375
2318.81653714555	0.5059814453125
2318.82653714553	0.50628662109375
2318.8365371455	0.506591796875
2318.84653714548	0.50689697265625
2318.85653714545	0.50750732421875
2318.86653714542	0.5078125
2318.8765371454	0.50811767578125
2318.88653714537	0.5084228515625
2318.89653714535	0.509033203125
2318.90653714532	0.50933837890625
2318.9165371453	0.5096435546875
2318.92653714527	0.51025390625
2318.93653714525	0.51055908203125
2318.94653714522	0.5108642578125
2318.9565371452	0.51116943359375
2318.96653714517	0.51177978515625
2318.97653714515	0.5120849609375
2318.98653714512	0.51239013671875
2318.9965371451	0.5126953125
2319.00653714507	0.5133056640625
2319.01653714505	0.51361083984375
2319.02653714502	0.513916015625
2319.036537145	0.5145263671875
2319.04653714497	0.51483154296875
2319.05653714495	0.51513671875
2319.06653714492	0.51544189453125
2319.07653714489	0.5157470703125
2319.08653714487	0.516357421875
2319.09653714484	0.51666259765625
2319.10653714482	0.5169677734375
2319.11653714479	0.517578125
2319.12653714477	0.51788330078125
2319.13653714474	0.5181884765625
2319.14653714472	0.51849365234375
2319.15653714469	0.51910400390625
2319.16653714467	0.5194091796875
2319.17653714464	0.51971435546875
2319.18653714462	0.52001953125
2319.19653714459	0.5206298828125
2319.20653714457	0.52093505859375
2319.21653714454	0.521240234375
2319.22653714452	0.5218505859375
2319.23653714449	0.52215576171875
2319.24653714447	0.5224609375
2319.25653714444	0.52276611328125
2319.26653714441	0.52337646484375
2319.27653714439	0.523681640625
2319.28653714436	0.52398681640625
2319.29653714434	0.5242919921875
2319.30653714431	0.52490234375
2319.31653714429	0.52520751953125
2319.32653714426	0.5255126953125
2319.33653714424	0.526123046875
2319.34653714421	0.52642822265625
2319.35653714419	0.5267333984375
2319.36653714416	0.52703857421875
2319.37653714414	0.52764892578125
2319.38653714411	0.5279541015625
2319.39653714409	0.52825927734375
2319.40653714406	0.528564453125
2319.41653714404	0.5291748046875
2319.42653714401	0.52947998046875
2319.43653714399	0.52978515625
2319.44653714396	0.53009033203125
2319.45653714394	0.53070068359375
2319.46653714391	0.531005859375
2319.47653714388	0.53131103515625
2319.48653714386	0.53192138671875
2319.49653714383	0.5322265625
2319.50653714381	0.53253173828125
2319.51653714378	0.5328369140625
2319.52653714376	0.533447265625
2319.53653714373	0.53375244140625
2319.54653714371	0.5340576171875
2319.55653714368	0.53436279296875
2319.56653714366	0.53497314453125
2319.57653714363	0.5352783203125
2319.58653714361	0.53558349609375
2319.59653714358	0.53619384765625
2319.60653714356	0.5364990234375
2319.61653714353	0.53680419921875
2319.62653714351	0.537109375
2319.63653714348	0.5377197265625
2319.64653714346	0.53802490234375
2319.65653714343	0.538330078125
2319.66653714341	0.5389404296875
2319.67653714338	0.53924560546875
2319.68653714335	0.53955078125
2319.69653714333	0.53985595703125
2319.7065371433	0.54046630859375
2319.71653714328	0.540771484375
2319.72653714325	0.54107666015625
2319.73653714323	0.5413818359375
2319.7465371432	0.5419921875
2319.75653714318	0.54229736328125
2319.76653714315	0.5426025390625
2319.77653714313	0.54290771484375
2319.7865371431	0.54351806640625
2319.79653714308	0.5438232421875
2319.80653714305	0.54412841796875
2319.81653714303	0.54473876953125
2319.826537143	0.5450439453125
2319.83653714298	0.54534912109375
2319.84653714295	0.545654296875
2319.85653714293	0.5462646484375
2319.8665371429	0.54656982421875
2319.87653714287	0.546875
2319.88653714285	0.54718017578125
2319.89653714282	0.5474853515625
2319.9065371428	0.548095703125
2319.91653714277	0.54840087890625
2319.92653714275	0.5487060546875
2319.93653714272	0.54901123046875
2319.9465371427	0.54962158203125
2319.95653714267	0.5499267578125
2319.96653714265	0.55023193359375
2319.97653714262	0.550537109375
2319.9865371426	0.5511474609375
2319.99653714257	0.55145263671875
2320.00653714255	0.5517578125
2320.01653714252	0.55206298828125
2320.0265371425	0.55267333984375
2320.03653714247	0.552978515625
2320.04653714245	0.55328369140625
2320.05653714242	0.55389404296875
2320.0665371424	0.55419921875
2320.07653714237	0.55450439453125
2320.08653714234	0.5548095703125
2320.09653714232	0.555419921875
2320.10653714229	0.55572509765625
2320.11653714227	0.5560302734375
2320.12653714224	0.55633544921875
2320.13653714222	0.55694580078125
2320.14653714219	0.5572509765625
2320.15653714217	0.55755615234375
2320.16653714214	0.55816650390625
2320.17653714212	0.5584716796875
2320.18653714209	0.55877685546875
2320.19653714207	0.55908203125
2320.20653714204	0.5596923828125
2320.21653714202	0.55999755859375
2320.22653714199	0.560302734375
2320.23653714197	0.56060791015625
2320.24653714194	0.56121826171875
2320.25653714192	0.5615234375
2320.26653714189	0.56182861328125
2320.27653714186	0.5621337890625
2320.28653714184	0.562744140625
2320.29653714181	0.56304931640625
2320.30653714179	0.5633544921875
2320.31653714176	0.56396484375
2320.32653714174	0.56427001953125
2320.33653714171	0.5645751953125
2320.34653714169	0.56488037109375
2320.35653714166	0.56549072265625
2320.36653714164	0.5657958984375
2320.37653714161	0.56610107421875
2320.38653714159	0.56671142578125
2320.39653714156	0.5670166015625
2320.40653714154	0.56732177734375
2320.41653714151	0.567626953125
2320.42653714149	0.5682373046875
2320.43653714146	0.56854248046875
2320.44653714144	0.56884765625
2320.45653714141	0.56915283203125
2320.46653714139	0.56976318359375
2320.47653714136	0.570068359375
2320.48653714133	0.57037353515625
2320.49653714131	0.5706787109375
2320.50653714128	0.5712890625
2320.51653714126	0.57159423828125
2320.52653714123	0.5718994140625
2320.53653714121	0.57220458984375
2320.54653714118	0.57281494140625
2320.55653714116	0.5731201171875
2320.56653714113	0.57342529296875
2320.57653714111	0.57403564453125
2320.58653714108	0.5743408203125
2320.59653714106	0.57464599609375
2320.60653714103	0.574951171875
2320.61653714101	0.5755615234375
2320.62653714098	0.57586669921875
2320.63653714096	0.576171875
2320.64653714093	0.57647705078125
2320.65653714091	0.57708740234375
2320.66653714088	0.577392578125
2320.67653714086	0.57769775390625
2320.68653714083	0.5780029296875
2320.6965371408	0.57861328125
2320.70653714078	0.57891845703125
2320.71653714075	0.5792236328125
2320.72653714073	0.57952880859375
2320.7365371407	0.58013916015625
2320.74653714068	0.5804443359375
2320.75653714065	0.58074951171875
2320.76653714063	0.58135986328125
2320.7765371406	0.5816650390625
2320.78653714058	0.58197021484375
2320.79653714055	0.582275390625
2320.80653714053	0.5828857421875
2320.8165371405	0.58319091796875
2320.82653714048	0.58349609375
2320.83653714045	0.58380126953125
2320.84653714043	0.58441162109375
2320.8565371404	0.584716796875
2320.86653714038	0.58502197265625
2320.87653714035	0.58563232421875
2320.88653714032	0.5859375
2320.8965371403	0.58624267578125
2320.90653714027	0.5865478515625
2320.91653714025	0.587158203125
2320.92653714022	0.58746337890625
2320.9365371402	0.5877685546875
2320.94653714017	0.58807373046875
2320.95653714015	0.58868408203125
2320.96653714012	0.5889892578125
2320.9765371401	0.58929443359375
2320.98653714007	0.589599609375
2320.99653714005	0.5902099609375
2321.00653714002	0.59051513671875
2321.01653714	0.5908203125
2321.02653713997	0.59112548828125
2321.03653713995	0.59173583984375
2321.04653713992	0.592041015625
2321.0565371399	0.59234619140625
2321.06653713987	0.5926513671875
2321.07653713985	0.59326171875
2321.08653713982	0.59356689453125
2321.09653713979	0.5938720703125
2321.10653713977	0.59417724609375
2321.11653713974	0.59478759765625
2321.12653713972	0.5950927734375
2321.13653713969	0.59539794921875
2321.14653713967	0.595703125
2321.15653713964	0.5963134765625
2321.16653713962	0.59661865234375
2321.17653713959	0.596923828125
2321.18653713957	0.59722900390625
2321.19653713954	0.59783935546875
2321.20653713952	0.59814453125
2321.21653713949	0.59844970703125
2321.22653713947	0.5987548828125
2321.23653713944	0.599365234375
2321.24653713942	0.59967041015625
2321.25653713939	0.5999755859375
2321.26653713937	0.60028076171875
2321.27653713934	0.60089111328125
2321.28653713931	0.6011962890625
2321.29653713929	0.60150146484375
2321.30653713926	0.601806640625
2321.31653713924	0.6024169921875
2321.32653713921	0.60272216796875
2321.33653713919	0.60302734375
2321.34653713916	0.60333251953125
2321.35653713914	0.60394287109375
2321.36653713911	0.604248046875
2321.37653713909	0.60455322265625
2321.38653713906	0.6048583984375
2321.39653713904	0.60546875
2321.40653713901	0.60577392578125
2321.41653713899	0.6060791015625
2321.42653713896	0.60638427734375
2321.43653713894	0.60699462890625
2321.44653713891	0.6072998046875
2321.45653713889	0.60760498046875
2321.46653713886	0.60791015625
2321.47653713884	0.6085205078125
2321.48653713881	0.60882568359375
2321.49653713878	0.609130859375
2321.50653713876	0.60943603515625
2321.51653713873	0.61004638671875
2321.52653713871	0.6103515625
2321.53653713868	0.61065673828125
2321.54653713866	0.6109619140625
2321.55653713863	0.61126708984375
2321.56653713861	0.61187744140625
2321.57653713858	0.6121826171875
2321.58653713856	0.61248779296875
2321.59653713853	0.61279296875
2321.60653713851	0.6134033203125
2321.61653713848	0.61370849609375
2321.62653713846	0.614013671875
2321.63653713843	0.61431884765625
2321.64653713841	0.61492919921875
2321.65653713838	0.615234375
2321.66653713836	0.61553955078125
2321.67653713833	0.6158447265625
2321.68653713831	0.61614990234375
2321.69653713828	0.61676025390625
2321.70653713825	0.6170654296875
2321.71653713823	0.61737060546875
2321.7265371382	0.61767578125
2321.73653713818	0.6182861328125
2321.74653713815	0.61859130859375
2321.75653713813	0.618896484375
2321.7665371381	0.61920166015625
2321.77653713808	0.6195068359375
2321.78653713805	0.61981201171875
2321.79653713803	0.62042236328125
2321.806537138	0.6207275390625
2321.81653713798	0.62103271484375
2321.82653713795	0.621337890625
2321.83653713793	0.6219482421875
2321.8465371379	0.62225341796875
2321.85653713788	0.62255859375
2321.86653713785	0.62286376953125
2321.87653713783	0.6231689453125
2321.8865371378	0.623779296875
2321.89653713777	0.62408447265625
2321.90653713775	0.6243896484375
2321.91653713772	0.62469482421875
2321.9265371377	0.625
2321.93653713767	0.62530517578125
2321.94653713765	0.6256103515625
2321.95653713762	0.626220703125
2321.9665371376	0.62652587890625
2321.97653713757	0.6268310546875
2321.98653713755	0.62713623046875
2321.99653713752	0.62744140625
2322.0065371375	0.6280517578125
2322.01653713747	0.62835693359375
2322.02653713745	0.628662109375
2322.03653713742	0.62896728515625
2322.0465371374	0.6292724609375
2322.05653713737	0.6298828125
2322.06653713735	0.63018798828125
2322.07653713732	0.6304931640625
2322.0865371373	0.63079833984375
2322.09653713727	0.631103515625
2322.10653713724	0.6317138671875
2322.11653713722	0.63201904296875
2322.12653713719	0.63232421875
2322.13653713717	0.63262939453125
2322.14653713714	0.6329345703125
2322.15653713712	0.633544921875
2322.16653713709	0.63385009765625
2322.17653713707	0.6341552734375
2322.18653713704	0.63446044921875
2322.19653713702	0.634765625
2322.20653713699	0.6353759765625
2322.21653713697	0.63568115234375
2322.22653713694	0.635986328125
2322.23653713692	0.63629150390625
2322.24653713689	0.6365966796875
2322.25653713687	0.63690185546875
2322.26653713684	0.63751220703125
2322.27653713682	0.6378173828125
2322.28653713679	0.63812255859375
2322.29653713676	0.638427734375
2322.30653713674	0.63873291015625
2322.31653713671	0.6390380859375
2322.32653713669	0.6396484375
2322.33653713666	0.63995361328125
2322.34653713664	0.6402587890625
2322.35653713661	0.64056396484375
2322.36653713659	0.640869140625
2322.37653713656	0.6414794921875
2322.38653713654	0.64178466796875
2322.39653713651	0.64208984375
2322.40653713649	0.64239501953125
2322.41653713646	0.6427001953125
2322.42653713644	0.64300537109375
2322.43653713641	0.64361572265625
2322.44653713639	0.6439208984375
2322.45653713636	0.64422607421875
2322.46653713634	0.64453125
2322.47653713631	0.64483642578125
2322.48653713629	0.6451416015625
2322.49653713626	0.645751953125
2322.50653713623	0.64605712890625
2322.51653713621	0.6463623046875
2322.52653713618	0.64666748046875
2322.53653713616	0.64697265625
2322.54653713613	0.64727783203125
2322.55653713611	0.6475830078125
2322.56653713608	0.648193359375
2322.57653713606	0.64849853515625
2322.58653713603	0.6488037109375
2322.59653713601	0.64910888671875
2322.60653713598	0.6494140625
2322.61653713596	0.64971923828125
2322.62653713593	0.65032958984375
2322.63653713591	0.650634765625
2322.64653713588	0.65093994140625
2322.65653713586	0.6512451171875
2322.66653713583	0.65155029296875
2322.67653713581	0.65185546875
2322.68653713578	0.65216064453125
2322.69653713576	0.65277099609375
2322.70653713573	0.653076171875
2322.7165371357	0.65338134765625
2322.72653713568	0.6536865234375
2322.73653713565	0.65399169921875
2322.74653713563	0.654296875
2322.7565371356	0.6549072265625
2322.76653713558	0.65521240234375
2322.77653713555	0.655517578125
2322.78653713553	0.65582275390625
2322.7965371355	0.6561279296875
2322.80653713548	0.65643310546875
2322.81653713545	0.65673828125
2322.82653713543	0.65704345703125
2322.8365371354	0.65765380859375
2322.84653713538	0.657958984375
2322.85653713535	0.65826416015625
2322.86653713533	0.6585693359375
2322.8765371353	0.65887451171875
2322.88653713528	0.6591796875
2322.89653713525	0.6597900390625
2322.90653713522	0.66009521484375
2322.9165371352	0.660400390625
2322.92653713517	0.66070556640625
2322.93653713515	0.6610107421875
2322.94653713512	0.66131591796875
2322.9565371351	0.66162109375
2322.96653713507	0.66192626953125
2322.97653713505	0.66253662109375
2322.98653713502	0.662841796875
2322.996537135	0.66314697265625
2323.00653713497	0.6634521484375
2323.01653713495	0.66375732421875
2323.02653713492	0.6640625
2323.0365371349	0.66436767578125
2323.04653713487	0.66497802734375
2323.05653713485	0.665283203125
2323.06653713482	0.66558837890625
2323.0765371348	0.6658935546875
2323.08653713477	0.66619873046875
2323.09653713475	0.66650390625
2323.10653713472	0.66680908203125
2323.11653713469	0.6671142578125
2323.12653713467	0.667724609375
2323.13653713464	0.66802978515625
2323.14653713462	0.6683349609375
2323.15653713459	0.66864013671875
2323.16653713457	0.6689453125
2323.17653713454	0.66925048828125
2323.18653713452	0.6695556640625
2323.19653713449	0.66986083984375
2323.20653713447	0.670166015625
2323.21653713444	0.6707763671875
2323.22653713442	0.67108154296875
2323.23653713439	0.67138671875
2323.24653713437	0.67169189453125
2323.25653713434	0.6719970703125
2323.26653713432	0.67230224609375
2323.27653713429	0.672607421875
2323.28653713427	0.67291259765625
2323.29653713424	0.67352294921875
2323.30653713421	0.673828125
2323.31653713419	0.67413330078125
2323.32653713416	0.6744384765625
2323.33653713414	0.67474365234375
2323.34653713411	0.675048828125
2323.35653713409	0.67535400390625
2323.36653713406	0.6756591796875
2323.37653713404	0.67596435546875
2323.38653713401	0.67626953125
2323.39653713399	0.6768798828125
2323.40653713396	0.67718505859375
2323.41653713394	0.677490234375
2323.42653713391	0.67779541015625
2323.43653713389	0.6781005859375
2323.44653713386	0.67840576171875
2323.45653713384	0.6787109375
2323.46653713381	0.67901611328125
2323.47653713379	0.6793212890625
2323.48653713376	0.679931640625
2323.49653713374	0.68023681640625
2323.50653713371	0.6805419921875
2323.51653713368	0.68084716796875
2323.52653713366	0.68115234375
2323.53653713363	0.68145751953125
2323.54653713361	0.6817626953125
2323.55653713358	0.68206787109375
2323.56653713356	0.682373046875
2323.57653713353	0.68267822265625
2323.58653713351	0.68328857421875
2323.59653713348	0.68359375
2323.60653713346	0.68389892578125
2323.61653713343	0.6842041015625
2323.62653713341	0.68450927734375
2323.63653713338	0.684814453125
2323.64653713336	0.68511962890625
2323.65653713333	0.6854248046875
2323.66653713331	0.68572998046875
2323.67653713328	0.68603515625
2323.68653713326	0.68634033203125
2323.69653713323	0.68695068359375
2323.70653713321	0.687255859375
2323.71653713318	0.68756103515625
2323.72653713315	0.6878662109375
2323.73653713313	0.68817138671875
2323.7465371331	0.6884765625
2323.75653713308	0.68878173828125
2323.76653713305	0.6890869140625
2323.77653713303	0.68939208984375
2323.786537133	0.689697265625
2323.79653713298	0.69000244140625
2323.80653713295	0.6903076171875
2323.81653713293	0.69061279296875
2323.8265371329	0.69122314453125
2323.83653713288	0.6915283203125
2323.84653713285	0.69183349609375
2323.85653713283	0.692138671875
2323.8665371328	0.69244384765625
2323.87653713278	0.6927490234375
2323.88653713275	0.69305419921875
2323.89653713273	0.693359375
2323.9065371327	0.69366455078125
2323.91653713267	0.6939697265625
2323.92653713265	0.69427490234375
2323.93653713262	0.694580078125
2323.9465371326	0.6951904296875
2323.95653713257	0.69549560546875
2323.96653713255	0.69580078125
2323.97653713252	0.69610595703125
2323.9865371325	0.6964111328125
2323.99653713247	0.69671630859375
2324.00653713245	0.697021484375
2324.01653713242	0.69732666015625
2324.0265371324	0.6976318359375
2324.03653713237	0.69793701171875
2324.04653713235	0.6982421875
2324.05653713232	0.69854736328125
2324.0665371323	0.6988525390625
2324.07653713227	0.69915771484375
2324.08653713225	0.699462890625
2324.09653713222	0.7000732421875
2324.1065371322	0.70037841796875
2324.11653713217	0.70068359375
2324.12653713214	0.70098876953125
2324.13653713212	0.7012939453125
2324.14653713209	0.70159912109375
2324.15653713207	0.701904296875
2324.16653713204	0.70220947265625
2324.17653713202	0.7025146484375
2324.18653713199	0.70281982421875
2324.19653713197	0.703125
2324.20653713194	0.70343017578125
2324.21653713192	0.7037353515625
2324.22653713189	0.70404052734375
2324.23653713187	0.704345703125
2324.24653713184	0.70465087890625
2324.25653713182	0.7049560546875
2324.26653713179	0.70526123046875
2324.27653713177	0.70556640625
2324.28653713174	0.70587158203125
2324.29653713172	0.7061767578125
2324.30653713169	0.70648193359375
2324.31653713166	0.706787109375
2324.32653713164	0.70709228515625
2324.33653713161	0.7073974609375
2324.34653713159	0.70770263671875
2324.35653713156	0.7080078125
2324.36653713154	0.70831298828125
2324.37653713151	0.70892333984375
2324.38653713149	0.709228515625
2324.39653713146	0.70953369140625
2324.40653713144	0.7098388671875
2324.41653713141	0.71014404296875
2324.42653713139	0.71044921875
2324.43653713136	0.71075439453125
2324.44653713134	0.7110595703125
2324.45653713131	0.71136474609375
2324.46653713129	0.711669921875
2324.47653713126	0.71197509765625
2324.48653713124	0.7122802734375
2324.49653713121	0.71258544921875
2324.50653713119	0.712890625
2324.51653713116	0.71319580078125
2324.52653713113	0.7135009765625
2324.53653713111	0.71380615234375
2324.54653713108	0.714111328125
2324.55653713106	0.71441650390625
2324.56653713103	0.7147216796875
2324.57653713101	0.71502685546875
2324.58653713098	0.71533203125
2324.59653713096	0.71563720703125
2324.60653713093	0.7159423828125
2324.61653713091	0.71624755859375
2324.62653713088	0.716552734375
2324.63653713086	0.71685791015625
2324.64653713083	0.7171630859375
2324.65653713081	0.71746826171875
2324.66653713078	0.71807861328125
2324.67653713076	0.7183837890625
2324.68653713073	0.71868896484375
2324.69653713071	0.718994140625
2324.70653713068	0.71929931640625
2324.71653713066	0.7196044921875
2324.72653713063	0.71990966796875
2324.7365371306	0.72021484375
2324.74653713058	0.72052001953125
2324.75653713055	0.7208251953125
2324.76653713053	0.72113037109375
2324.7765371305	0.721435546875
2324.78653713048	0.72174072265625
2324.79653713045	0.7220458984375
2324.80653713043	0.72235107421875
2324.8165371304	0.72265625
2324.82653713038	0.72296142578125
2324.83653713035	0.7232666015625
2324.84653713033	0.72357177734375
2324.8565371303	0.723876953125
2324.86653713028	0.72418212890625
2324.87653713025	0.7244873046875
2324.88653713023	0.72479248046875
2324.8965371302	0.72509765625
2324.90653713018	0.72540283203125
2324.91653713015	0.7257080078125
2324.92653713012	0.72601318359375
2324.9365371301	0.726318359375
2324.94653713007	0.72662353515625
2324.95653713005	0.7269287109375
2324.96653713002	0.72723388671875
2324.97653713	0.7275390625
2324.98653712997	0.72784423828125
2324.99653712995	0.7281494140625
2325.00653712992	0.72845458984375
2325.0165371299	0.728759765625
2325.02653712987	0.72906494140625
2325.03653712985	0.7293701171875
2325.04653712982	0.72967529296875
2325.0565371298	0.72998046875
2325.06653712977	0.73028564453125
2325.07653712975	0.7305908203125
2325.08653712972	0.73089599609375
2325.0965371297	0.731201171875
2325.10653712967	0.73150634765625
2325.11653712965	0.7318115234375
2325.12653712962	0.73211669921875
2325.13653712959	0.732421875
2325.14653712957	0.73272705078125
2325.15653712954	0.7330322265625
2325.16653712952	0.73333740234375
2325.17653712949	0.733642578125
2325.18653712947	0.73394775390625
2325.19653712944	0.7342529296875
2325.20653712942	0.73455810546875
2325.21653712939	0.73486328125
2325.22653712937	0.73516845703125
2325.23653712934	0.7354736328125
2325.24653712932	0.73577880859375
2325.25653712929	0.736083984375
2325.26653712927	0.73638916015625
2325.27653712924	0.7366943359375
2325.28653712922	0.73699951171875
2325.29653712919	0.7373046875
2325.30653712917	0.73760986328125
2325.31653712914	0.7379150390625
2325.32653712911	0.73822021484375
2325.33653712909	0.738525390625
2325.34653712906	0.73883056640625
2325.35653712904	0.7391357421875
2325.36653712901	0.73944091796875
2325.37653712899	0.73974609375
2325.38653712896	0.74005126953125
2325.39653712894	0.7403564453125
2325.40653712891	0.74066162109375
2325.41653712889	0.740966796875
2325.42653712886	0.74127197265625
2325.43653712884	0.7415771484375
2325.44653712881	0.74188232421875
2325.45653712879	0.7421875
2325.46653712876	0.74249267578125
2325.47653712874	0.7427978515625
2325.48653712871	0.74310302734375
2325.49653712869	0.743408203125
2325.50653712866	0.74371337890625
2325.51653712864	0.7440185546875
2325.52653712861	0.7440185546875
2325.53653712858	0.74432373046875
2325.54653712856	0.74462890625
2325.55653712853	0.74493408203125
2325.56653712851	0.7452392578125
2325.57653712848	0.74554443359375
2325.58653712846	0.745849609375
2325.59653712843	0.74615478515625
2325.60653712841	0.7464599609375
2325.61653712838	0.74676513671875
2325.62653712836	0.7470703125
2325.63653712833	0.74737548828125
2325.64653712831	0.7476806640625
2325.65653712828	0.74798583984375
2325.66653712826	0.748291015625
2325.67653712823	0.74859619140625
2325.68653712821	0.7489013671875
2325.69653712818	0.74920654296875
2325.70653712816	0.74951171875
2325.71653712813	0.74981689453125
2325.72653712811	0.7501220703125
2325.73653712808	0.75042724609375
2325.74653712805	0.750732421875
2325.75653712803	0.75103759765625
2325.766537128	0.7513427734375
2325.77653712798	0.7513427734375
2325.78653712795	0.75164794921875
2325.79653712793	0.751953125
2325.8065371279	0.75225830078125
2325.81653712788	0.7525634765625
2325.82653712785	0.75286865234375
2325.83653712783	0.753173828125
2325.8465371278	0.75347900390625
2325.85653712778	0.7537841796875
2325.86653712775	0.75408935546875
2325.87653712773	0.75439453125
2325.8865371277	0.75469970703125
2325.89653712768	0.7550048828125
2325.90653712765	0.75531005859375
2325.91653712763	0.755615234375
2325.9265371276	0.75592041015625
2325.93653712757	0.75592041015625
2325.94653712755	0.7562255859375
2325.95653712752	0.75653076171875
2325.9665371275	0.7568359375
2325.97653712747	0.75714111328125
2325.98653712745	0.7574462890625
2325.99653712742	0.75775146484375
2326.0065371274	0.758056640625
2326.01653712737	0.75836181640625
2326.02653712735	0.7586669921875
2326.03653712732	0.75897216796875
2326.0465371273	0.75927734375
2326.05653712727	0.75958251953125
2326.06653712725	0.7598876953125
2326.07653712722	0.7598876953125
2326.0865371272	0.76019287109375
2326.09653712717	0.760498046875
2326.10653712715	0.76080322265625
2326.11653712712	0.7611083984375
2326.1265371271	0.76141357421875
2326.13653712707	0.76171875
2326.14653712704	0.76202392578125
2326.15653712702	0.7623291015625
2326.16653712699	0.76263427734375
2326.17653712697	0.762939453125
2326.18653712694	0.76324462890625
2326.19653712692	0.7635498046875
2326.20653712689	0.7635498046875
2326.21653712687	0.76385498046875
2326.22653712684	0.76416015625
2326.23653712682	0.76446533203125
2326.24653712679	0.7647705078125
2326.25653712677	0.76507568359375
2326.26653712674	0.765380859375
2326.27653712672	0.76568603515625
2326.28653712669	0.7659912109375
2326.29653712667	0.76629638671875
2326.30653712664	0.7666015625
2326.31653712662	0.7666015625
2326.32653712659	0.76690673828125
2326.33653712656	0.7672119140625
2326.34653712654	0.76751708984375
2326.35653712651	0.767822265625
2326.36653712649	0.76812744140625
2326.37653712646	0.7684326171875
2326.38653712644	0.76873779296875
2326.39653712641	0.76904296875
2326.40653712639	0.76934814453125
2326.41653712636	0.7696533203125
2326.42653712634	0.7696533203125
2326.43653712631	0.76995849609375
2326.44653712629	0.770263671875
2326.45653712626	0.77056884765625
2326.46653712624	0.7708740234375
2326.47653712621	0.77117919921875
2326.48653712619	0.771484375
2326.49653712616	0.77178955078125
2326.50653712614	0.77178955078125
2326.51653712611	0.7720947265625
2326.52653712609	0.77239990234375
2326.53653712606	0.772705078125
2326.54653712603	0.77301025390625
2326.55653712601	0.7733154296875
2326.56653712598	0.77362060546875
2326.57653712596	0.77392578125
2326.58653712593	0.77423095703125
2326.59653712591	0.7745361328125
2326.60653712588	0.7745361328125
2326.61653712586	0.77484130859375
2326.62653712583	0.775146484375
2326.63653712581	0.77545166015625
2326.64653712578	0.7757568359375
2326.65653712576	0.77606201171875
2326.66653712573	0.7763671875
2326.67653712571	0.77667236328125
2326.68653712568	0.77667236328125
2326.69653712566	0.7769775390625
2326.70653712563	0.77728271484375
2326.71653712561	0.777587890625
2326.72653712558	0.77789306640625
2326.73653712556	0.7781982421875
2326.74653712553	0.77850341796875
2326.7565371255	0.77880859375
2326.76653712548	0.77880859375
2326.77653712545	0.77911376953125
2326.78653712543	0.7794189453125
2326.7965371254	0.77972412109375
2326.80653712538	0.780029296875
2326.81653712535	0.78033447265625
2326.82653712533	0.7806396484375
2326.8365371253	0.78094482421875
2326.84653712528	0.78094482421875
2326.85653712525	0.78125
2326.86653712523	0.78125
2326.8765371252	0.78155517578125
2326.88653712518	0.78155517578125
2326.89653712515	0.7818603515625
2326.90653712513	0.78216552734375
2326.9165371251	0.782470703125
2326.92653712508	0.78277587890625
2326.93653712505	0.7830810546875
2326.94653712502	0.7830810546875
2326.956537125	0.78338623046875
2326.96653712497	0.78369140625
2326.97653712495	0.78399658203125
2326.98653712492	0.7843017578125
2326.9965371249	0.78460693359375
2327.00653712487	0.784912109375
2327.01653712485	0.784912109375
2327.02653712482	0.78521728515625
2327.0365371248	0.7855224609375
2327.04653712477	0.78582763671875
2327.05653712475	0.7861328125
2327.06653712472	0.78643798828125
2327.0765371247	0.78643798828125
2327.08653712467	0.7867431640625
2327.09653712465	0.78704833984375
2327.10653712462	0.787353515625
2327.1165371246	0.78765869140625
2327.12653712457	0.78765869140625
2327.13653712455	0.7879638671875
2327.14653712452	0.78826904296875
2327.15653712449	0.78857421875
2327.16653712447	0.78887939453125
2327.17653712444	0.7891845703125
2327.18653712442	0.7891845703125
2327.19653712439	0.78948974609375
2327.20653712437	0.789794921875
2327.21653712434	0.79010009765625
2327.22653712432	0.7904052734375
2327.23653712429	0.79071044921875
2327.24653712427	0.79071044921875
2327.25653712424	0.791015625
2327.26653712422	0.79132080078125
2327.27653712419	0.7916259765625
2327.28653712417	0.79193115234375
2327.29653712414	0.792236328125
2327.30653712412	0.792236328125
2327.31653712409	0.79254150390625
2327.32653712407	0.7928466796875
2327.33653712404	0.79315185546875
2327.34653712401	0.79345703125
2327.35653712399	0.79345703125
2327.36653712396	0.79376220703125
2327.37653712394	0.7940673828125
2327.38653712391	0.79437255859375
2327.39653712389	0.794677734375
2327.40653712386	0.794677734375
2327.41653712384	0.79498291015625
2327.42653712381	0.7952880859375
2327.43653712379	0.79559326171875
2327.44653712376	0.7958984375
2327.45653712374	0.7958984375
2327.46653712371	0.79620361328125
2327.47653712369	0.7965087890625
2327.48653712366	0.79681396484375
2327.49653712364	0.797119140625
2327.50653712361	0.79742431640625
2327.51653712359	0.79742431640625
2327.52653712356	0.7977294921875
2327.53653712354	0.79803466796875
2327.54653712351	0.79833984375
2327.55653712348	0.79833984375
2327.56653712346	0.79864501953125
2327.57653712343	0.7989501953125
2327.58653712341	0.79925537109375
2327.59653712338	0.799560546875
2327.60653712336	0.799560546875
2327.61653712333	0.79986572265625
2327.62653712331	0.8001708984375
2327.63653712328	0.80047607421875
2327.64653712326	0.80078125
2327.65653712323	0.80078125
