Time (s)	WE(1).Potential (V)
2477.8996447439	0.71746826171875
2477.90964474388	0.716552734375
2477.91964474385	0.71563720703125
2477.92964474383	0.71441650390625
2477.9396447438	0.7135009765625
2477.94964474378	0.71258544921875
2477.95964474375	0.71136474609375
2477.96964474373	0.71044921875
2477.9796447437	0.70953369140625
2477.98964474368	0.7086181640625
2477.99964474365	0.7073974609375
2478.00964474363	0.70648193359375
2478.0196447436	0.70556640625
2478.02964474358	0.70465087890625
2478.03964474355	0.70343017578125
2478.04964474353	0.70281982421875
2478.0596447435	0.70159912109375
2478.06964474348	0.70068359375
2478.07964474345	0.69976806640625
2478.08964474343	0.6988525390625
2478.0996447434	0.6976318359375
2478.10964474337	0.69671630859375
2478.11964474335	0.69580078125
2478.12964474332	0.69488525390625
2478.1396447433	0.69366455078125
2478.14964474327	0.6927490234375
2478.15964474325	0.69183349609375
2478.16964474322	0.69091796875
2478.1796447432	0.689697265625
2478.18964474317	0.68878173828125
2478.19964474315	0.6878662109375
2478.20964474312	0.68695068359375
2478.2196447431	0.68572998046875
2478.22964474307	0.684814453125
2478.23964474305	0.68389892578125
2478.24964474302	0.6829833984375
2478.259644743	0.68206787109375
2478.26964474297	0.68084716796875
2478.27964474295	0.679931640625
2478.28964474292	0.67901611328125
2478.29964474289	0.6781005859375
2478.30964474287	0.6768798828125
2478.31964474284	0.67596435546875
2478.32964474282	0.675048828125
2478.33964474279	0.67413330078125
2478.34964474277	0.6732177734375
2478.35964474274	0.6719970703125
2478.36964474272	0.67108154296875
2478.37964474269	0.670166015625
2478.38964474267	0.66925048828125
2478.39964474264	0.6683349609375
2478.40964474262	0.6671142578125
2478.41964474259	0.66619873046875
2478.42964474257	0.665283203125
2478.43964474254	0.66436767578125
2478.44964474252	0.6634521484375
2478.45964474249	0.6622314453125
2478.46964474247	0.66131591796875
2478.47964474244	0.660400390625
2478.48964474242	0.65948486328125
2478.49964474239	0.6585693359375
2478.50964474236	0.6573486328125
2478.51964474234	0.65643310546875
2478.52964474231	0.655517578125
2478.53964474229	0.65460205078125
2478.54964474226	0.6536865234375
2478.55964474224	0.65277099609375
2478.56964474221	0.65155029296875
2478.57964474219	0.650634765625
2478.58964474216	0.64971923828125
2478.59964474214	0.6488037109375
2478.60964474211	0.64788818359375
2478.61964474209	0.64697265625
2478.62964474206	0.645751953125
2478.63964474204	0.64483642578125
2478.64964474201	0.6439208984375
2478.65964474199	0.64300537109375
2478.66964474196	0.64208984375
2478.67964474194	0.64117431640625
2478.68964474191	0.63995361328125
2478.69964474189	0.6390380859375
2478.70964474186	0.63812255859375
2478.71964474183	0.63720703125
2478.72964474181	0.63629150390625
2478.73964474178	0.6353759765625
2478.74964474176	0.63446044921875
2478.75964474173	0.633544921875
2478.76964474171	0.63232421875
2478.77964474168	0.63140869140625
2478.78964474166	0.6304931640625
2478.79964474163	0.62957763671875
2478.80964474161	0.628662109375
2478.81964474158	0.62774658203125
2478.82964474156	0.6268310546875
2478.83964474153	0.6256103515625
2478.84964474151	0.625
2478.85964474148	0.62408447265625
2478.86964474146	0.6231689453125
2478.87964474143	0.6219482421875
2478.88964474141	0.62103271484375
2478.89964474138	0.6201171875
2478.90964474135	0.61920166015625
2478.91964474133	0.6182861328125
2478.9296447413	0.61737060546875
2478.93964474128	0.616455078125
2478.94964474125	0.61553955078125
2478.95964474123	0.6146240234375
2478.9696447412	0.6134033203125
2478.97964474118	0.61248779296875
2478.98964474115	0.611572265625
2478.99964474113	0.61065673828125
2479.0096447411	0.6097412109375
2479.01964474108	0.60882568359375
2479.02964474105	0.60791015625
2479.03964474103	0.60699462890625
2479.049644741	0.6060791015625
2479.05964474098	0.6048583984375
2479.06964474095	0.60394287109375
2479.07964474093	0.60302734375
2479.0896447409	0.60211181640625
2479.09964474088	0.6011962890625
2479.10964474085	0.60028076171875
2479.11964474082	0.599365234375
2479.1296447408	0.59844970703125
2479.13964474077	0.5975341796875
2479.14964474075	0.59661865234375
2479.15964474072	0.595703125
2479.1696447407	0.59478759765625
2479.17964474067	0.5938720703125
2479.18964474065	0.5926513671875
2479.19964474062	0.59173583984375
2479.2096447406	0.5908203125
2479.21964474057	0.58990478515625
2479.22964474055	0.5889892578125
2479.23964474052	0.58807373046875
2479.2496447405	0.587158203125
2479.25964474047	0.58624267578125
2479.26964474045	0.5853271484375
2479.27964474042	0.58441162109375
2479.2896447404	0.58349609375
2479.29964474037	0.58258056640625
2479.30964474034	0.5816650390625
2479.31964474032	0.58074951171875
2479.32964474029	0.579833984375
2479.33964474027	0.57891845703125
2479.34964474024	0.5780029296875
2479.35964474022	0.57708740234375
2479.36964474019	0.576171875
2479.37964474017	0.57525634765625
2479.38964474014	0.57403564453125
2479.39964474012	0.57342529296875
2479.40964474009	0.57220458984375
2479.41964474007	0.5712890625
2479.42964474004	0.57037353515625
2479.43964474002	0.5694580078125
2479.44964473999	0.56854248046875
2479.45964473997	0.567626953125
2479.46964473994	0.56671142578125
2479.47964473992	0.5657958984375
2479.48964473989	0.56488037109375
2479.49964473987	0.56396484375
2479.50964473984	0.56304931640625
2479.51964473981	0.5621337890625
2479.52964473979	0.56121826171875
2479.53964473976	0.560302734375
2479.54964473974	0.55938720703125
2479.55964473971	0.5584716796875
2479.56964473969	0.55755615234375
2479.57964473966	0.55694580078125
2479.58964473964	0.55572509765625
2479.59964473961	0.55511474609375
2479.60964473959	0.55419921875
2479.61964473956	0.55328369140625
2479.62964473954	0.5523681640625
2479.63964473951	0.55145263671875
2479.64964473949	0.550537109375
2479.65964473946	0.54962158203125
2479.66964473944	0.5487060546875
2479.67964473941	0.54779052734375
2479.68964473939	0.546875
2479.69964473936	0.54595947265625
2479.70964473934	0.5450439453125
2479.71964473931	0.54412841796875
2479.72964473928	0.54351806640625
2479.73964473926	0.54229736328125
2479.74964473923	0.54168701171875
2479.75964473921	0.540771484375
2479.76964473918	0.53985595703125
2479.77964473916	0.5389404296875
2479.78964473913	0.53802490234375
2479.79964473911	0.537109375
2479.80964473908	0.53619384765625
2479.81964473906	0.5352783203125
2479.82964473903	0.53436279296875
2479.83964473901	0.533447265625
2479.84964473898	0.53253173828125
2479.85964473896	0.5316162109375
2479.86964473893	0.53070068359375
2479.87964473891	0.52978515625
2479.88964473888	0.5291748046875
2479.89964473886	0.52825927734375
2479.90964473883	0.52734375
2479.9196447388	0.52642822265625
2479.92964473878	0.5255126953125
2479.93964473875	0.52459716796875
2479.94964473873	0.523681640625
2479.9596447387	0.52276611328125
2479.96964473868	0.5218505859375
2479.97964473865	0.52093505859375
2479.98964473863	0.52001953125
2479.9996447386	0.5194091796875
2480.00964473858	0.5181884765625
2480.01964473855	0.517578125
2480.02964473853	0.51666259765625
2480.0396447385	0.5157470703125
2480.04964473848	0.51483154296875
2480.05964473845	0.513916015625
2480.06964473843	0.51300048828125
2480.0796447384	0.5120849609375
2480.08964473838	0.51116943359375
2480.09964473835	0.51025390625
2480.10964473833	0.50933837890625
2480.1196447383	0.50872802734375
2480.12964473827	0.5078125
2480.13964473825	0.50689697265625
2480.14964473822	0.5059814453125
2480.1596447382	0.50506591796875
2480.16964473817	0.504150390625
2480.17964473815	0.50323486328125
2480.18964473812	0.5023193359375
2480.1996447381	0.50140380859375
2480.20964473807	0.50048828125
2480.21964473805	0.4998779296875
2480.22964473802	0.498992919921875
2480.239644738	0.49810791015625
2480.24964473797	0.49725341796875
2480.25964473795	0.496368408203125
2480.26964473792	0.4954833984375
2480.2796447379	0.494598388671875
2480.28964473787	0.493743896484375
2480.29964473785	0.49285888671875
2480.30964473782	0.49200439453125
2480.31964473779	0.49114990234375
2480.32964473777	0.490264892578125
2480.33964473774	0.489410400390625
2480.34964473772	0.488525390625
2480.35964473769	0.4876708984375
2480.36964473767	0.486785888671875
2480.37964473764	0.485931396484375
2480.38964473762	0.485076904296875
2480.39964473759	0.4842529296875
2480.40964473757	0.4833984375
2480.41964473754	0.482513427734375
2480.42964473752	0.481658935546875
2480.43964473749	0.480804443359375
2480.44964473747	0.479949951171875
2480.45964473744	0.479095458984375
2480.46964473742	0.478240966796875
2480.47964473739	0.477386474609375
2480.48964473737	0.476531982421875
2480.49964473734	0.475677490234375
2480.50964473732	0.474822998046875
2480.51964473729	0.473968505859375
2480.52964473726	0.473114013671875
2480.53964473724	0.472259521484375
2480.54964473721	0.471435546875
2480.55964473719	0.4705810546875
2480.56964473716	0.4697265625
2480.57964473714	0.468902587890625
2480.58964473711	0.46807861328125
2480.59964473709	0.46722412109375
2480.60964473706	0.46636962890625
2480.61964473704	0.465545654296875
2480.62964473701	0.464691162109375
2480.63964473699	0.4638671875
2480.64964473696	0.4630126953125
2480.65964473694	0.462188720703125
2480.66964473691	0.46136474609375
2480.67964473689	0.460540771484375
2480.68964473686	0.459686279296875
2480.69964473684	0.4588623046875
2480.70964473681	0.458038330078125
2480.71964473679	0.457183837890625
2480.72964473676	0.45635986328125
2480.73964473673	0.455535888671875
2480.74964473671	0.4547119140625
2480.75964473668	0.453887939453125
2480.76964473666	0.453094482421875
2480.77964473663	0.4522705078125
2480.78964473661	0.451446533203125
2480.79964473658	0.45062255859375
2480.80964473656	0.4498291015625
2480.81964473653	0.449005126953125
2480.82964473651	0.44818115234375
2480.83964473648	0.447357177734375
2480.84964473646	0.446563720703125
2480.85964473643	0.44573974609375
2480.86964473641	0.4449462890625
2480.87964473638	0.444122314453125
2480.88964473636	0.443328857421875
2480.89964473633	0.4425048828125
2480.90964473631	0.44171142578125
2480.91964473628	0.44091796875
2480.92964473625	0.440093994140625
2480.93964473623	0.439300537109375
2480.9496447362	0.438507080078125
2480.95964473618	0.437713623046875
2480.96964473615	0.436920166015625
2480.97964473613	0.436126708984375
2480.9896447361	0.435333251953125
2480.99964473608	0.434539794921875
2481.00964473605	0.433746337890625
2481.01964473603	0.432952880859375
2481.029644736	0.432159423828125
2481.03964473598	0.431365966796875
2481.04964473595	0.430572509765625
2481.05964473593	0.4298095703125
2481.0696447359	0.42901611328125
2481.07964473588	0.428253173828125
2481.08964473585	0.427459716796875
2481.09964473583	0.42669677734375
2481.1096447358	0.4259033203125
2481.11964473578	0.425140380859375
2481.12964473575	0.424346923828125
2481.13964473572	0.423583984375
2481.1496447357	0.422821044921875
2481.15964473567	0.42205810546875
2481.16964473565	0.42132568359375
2481.17964473562	0.420562744140625
2481.1896447356	0.419769287109375
2481.19964473557	0.41900634765625
2481.20964473555	0.418243408203125
2481.21964473552	0.41748046875
2481.2296447355	0.416717529296875
2481.23964473547	0.415985107421875
2481.24964473545	0.41522216796875
2481.25964473542	0.414459228515625
2481.2696447354	0.413726806640625
2481.27964473537	0.4129638671875
2481.28964473535	0.4122314453125
2481.29964473532	0.411468505859375
2481.3096447353	0.41070556640625
2481.31964473527	0.40997314453125
2481.32964473524	0.409210205078125
2481.33964473522	0.408477783203125
2481.34964473519	0.407745361328125
2481.35964473517	0.406982421875
2481.36964473514	0.40625
2481.37964473512	0.405548095703125
2481.38964473509	0.40478515625
2481.39964473507	0.404052734375
2481.40964473504	0.4033203125
2481.41964473502	0.402587890625
2481.42964473499	0.40185546875
2481.43964473497	0.401123046875
2481.44964473494	0.400390625
2481.45964473492	0.399658203125
2481.46964473489	0.39892578125
2481.47964473487	0.398223876953125
2481.48964473484	0.397491455078125
2481.49964473482	0.396759033203125
2481.50964473479	0.39605712890625
2481.51964473477	0.39532470703125
2481.52964473474	0.39459228515625
2481.53964473471	0.393890380859375
2481.54964473469	0.393157958984375
2481.55964473466	0.392425537109375
2481.56964473464	0.3917236328125
2481.57964473461	0.3909912109375
2481.58964473459	0.39031982421875
2481.59964473456	0.389617919921875
2481.60964473454	0.388885498046875
2481.61964473451	0.38818359375
2481.62964473449	0.387481689453125
2481.63964473446	0.38677978515625
2481.64964473444	0.38604736328125
2481.65964473441	0.385345458984375
2481.66964473439	0.3846435546875
2481.67964473436	0.383941650390625
2481.68964473434	0.38323974609375
2481.69964473431	0.382537841796875
2481.70964473429	0.3818359375
2481.71964473426	0.381134033203125
2481.72964473424	0.38043212890625
2481.73964473421	0.379730224609375
2481.74964473418	0.3790283203125
2481.75964473416	0.37835693359375
2481.76964473413	0.377655029296875
2481.77964473411	0.376953125
2481.78964473408	0.376251220703125
2481.79964473406	0.375579833984375
2481.80964473403	0.3748779296875
2481.81964473401	0.37420654296875
2481.82964473398	0.373504638671875
2481.83964473396	0.372833251953125
2481.84964473393	0.37213134765625
2481.85964473391	0.3714599609375
2481.86964473388	0.370758056640625
2481.87964473386	0.370086669921875
2481.88964473383	0.369384765625
2481.89964473381	0.36871337890625
2481.90964473378	0.3680419921875
2481.91964473376	0.367340087890625
2481.92964473373	0.36669921875
2481.9396447337	0.365997314453125
2481.94964473368	0.365325927734375
2481.95964473365	0.364654541015625
2481.96964473363	0.363983154296875
2481.9796447336	0.363311767578125
2481.98964473358	0.36260986328125
2481.99964473355	0.3619384765625
2482.00964473353	0.36126708984375
2482.0196447335	0.360595703125
2482.02964473348	0.35992431640625
2482.03964473345	0.359283447265625
2482.04964473343	0.358642578125
2482.0596447334	0.35797119140625
2482.06964473338	0.3572998046875
2482.07964473335	0.35662841796875
2482.08964473333	0.35595703125
2482.0996447333	0.35528564453125
2482.10964473328	0.3546142578125
2482.11964473325	0.353973388671875
2482.12964473323	0.353302001953125
2482.1396447332	0.352630615234375
2482.14964473317	0.35198974609375
2482.15964473315	0.351348876953125
2482.16964473312	0.350677490234375
2482.1796447331	0.350006103515625
2482.18964473307	0.349365234375
2482.19964473305	0.34869384765625
2482.20964473302	0.348052978515625
2482.219644733	0.347381591796875
2482.22964473297	0.34674072265625
2482.23964473295	0.3460693359375
2482.24964473292	0.345428466796875
2482.2596447329	0.34478759765625
2482.26964473287	0.3441162109375
2482.27964473285	0.343505859375
2482.28964473282	0.342864990234375
2482.2996447328	0.342193603515625
2482.30964473277	0.341552734375
2482.31964473275	0.340911865234375
2482.32964473272	0.34027099609375
2482.33964473269	0.339630126953125
2482.34964473267	0.3389892578125
2482.35964473264	0.338348388671875
2482.36964473262	0.33770751953125
2482.37964473259	0.337066650390625
2482.38964473257	0.33642578125
2482.39964473254	0.335784912109375
2482.40964473252	0.33514404296875
2482.41964473249	0.334503173828125
2482.42964473247	0.333892822265625
2482.43964473244	0.333251953125
2482.44964473242	0.332611083984375
2482.45964473239	0.332000732421875
2482.46964473237	0.33135986328125
2482.47964473234	0.330718994140625
2482.48964473232	0.330108642578125
2482.49964473229	0.3294677734375
2482.50964473227	0.328857421875
2482.51964473224	0.328216552734375
2482.52964473222	0.32763671875
2482.53964473219	0.326995849609375
2482.54964473216	0.326385498046875
2482.55964473214	0.325775146484375
2482.56964473211	0.32513427734375
2482.57964473209	0.32452392578125
2482.58964473206	0.32391357421875
2482.59964473204	0.32330322265625
2482.60964473201	0.32269287109375
2482.61964473199	0.32208251953125
2482.62964473196	0.32147216796875
2482.63964473194	0.32086181640625
2482.64964473191	0.32025146484375
2482.65964473189	0.31964111328125
2482.66964473186	0.319061279296875
2482.67964473184	0.318450927734375
2482.68964473181	0.317840576171875
2482.69964473179	0.317230224609375
2482.70964473176	0.316650390625
2482.71964473174	0.3160400390625
2482.72964473171	0.3154296875
2482.73964473169	0.314849853515625
2482.74964473166	0.314239501953125
2482.75964473163	0.31365966796875
2482.76964473161	0.313079833984375
2482.77964473158	0.3125
2482.78964473156	0.311920166015625
2482.79964473153	0.31134033203125
2482.80964473151	0.31072998046875
2482.81964473148	0.310150146484375
2482.82964473146	0.3095703125
2482.83964473143	0.308990478515625
2482.84964473141	0.30841064453125
2482.85964473138	0.307830810546875
2482.86964473136	0.3072509765625
2482.87964473133	0.30670166015625
2482.88964473131	0.306121826171875
2482.89964473128	0.3055419921875
2482.90964473126	0.30499267578125
2482.91964473123	0.304412841796875
2482.92964473121	0.303863525390625
2482.93964473118	0.30328369140625
2482.94964473115	0.302734375
2482.95964473113	0.30218505859375
2482.9696447311	0.301605224609375
2482.97964473108	0.301055908203125
2482.98964473105	0.300506591796875
2482.99964473103	0.2999267578125
2483.009644731	0.29937744140625
2483.01964473098	0.298828125
2483.02964473095	0.29827880859375
2483.03964473093	0.2977294921875
2483.0496447309	0.29718017578125
2483.05964473088	0.29669189453125
2483.06964473085	0.296142578125
2483.07964473083	0.29559326171875
2483.0896447308	0.2950439453125
2483.09964473078	0.29449462890625
2483.10964473075	0.293975830078125
2483.11964473073	0.293426513671875
2483.1296447307	0.292877197265625
2483.13964473068	0.2923583984375
2483.14964473065	0.29180908203125
2483.15964473062	0.291259765625
2483.1696447306	0.290740966796875
2483.17964473057	0.29022216796875
2483.18964473055	0.2896728515625
2483.19964473052	0.289154052734375
2483.2096447305	0.28863525390625
2483.21964473047	0.2880859375
2483.22964473045	0.287567138671875
2483.23964473042	0.28704833984375
2483.2496447304	0.2864990234375
2483.25964473037	0.285980224609375
2483.26964473035	0.28546142578125
2483.27964473032	0.284912109375
2483.2896447303	0.284393310546875
2483.29964473027	0.28387451171875
2483.30964473025	0.2833251953125
2483.31964473022	0.282806396484375
2483.3296447302	0.28228759765625
2483.33964473017	0.281768798828125
2483.34964473014	0.28125
2483.35964473012	0.280731201171875
2483.36964473009	0.28021240234375
2483.37964473007	0.2796630859375
2483.38964473004	0.279144287109375
2483.39964473002	0.27862548828125
2483.40964472999	0.278076171875
2483.41964472997	0.277557373046875
2483.42964472994	0.27703857421875
2483.43964472992	0.2764892578125
2483.44964472989	0.275970458984375
2483.45964472987	0.275421142578125
2483.46964472984	0.27490234375
2483.47964472982	0.27435302734375
2483.48964472979	0.2738037109375
2483.49964472977	0.273284912109375
2483.50964472974	0.27276611328125
2483.51964472972	0.272216796875
2483.52964472969	0.27166748046875
2483.53964472967	0.2711181640625
2483.54964472964	0.270599365234375
2483.55964472961	0.270050048828125
2483.56964472959	0.269500732421875
2483.57964472956	0.268951416015625
2483.58964472954	0.268402099609375
2483.59964472951	0.267852783203125
2483.60964472949	0.267303466796875
2483.61964472946	0.266754150390625
2483.62964472944	0.26617431640625
2483.63964472941	0.265655517578125
2483.64964472939	0.265106201171875
2483.65964472936	0.264556884765625
2483.66964472934	0.26397705078125
2483.67964472931	0.263427734375
2483.68964472929	0.262847900390625
2483.69964472926	0.262298583984375
2483.70964472924	0.26171875
2483.71964472921	0.261138916015625
2483.72964472919	0.260589599609375
2483.73964472916	0.260009765625
2483.74964472914	0.259429931640625
2483.75964472911	0.25885009765625
2483.76964472908	0.258270263671875
2483.77964472906	0.2576904296875
2483.78964472903	0.257110595703125
2483.79964472901	0.25653076171875
2483.80964472898	0.255950927734375
2483.81964472896	0.25537109375
2483.82964472893	0.254791259765625
2483.83964472891	0.254180908203125
2483.84964472888	0.25360107421875
2483.85964472886	0.25299072265625
2483.86964472883	0.252410888671875
2483.87964472881	0.251800537109375
2483.88964472878	0.251190185546875
2483.89964472876	0.2506103515625
2483.90964472873	0.250030517578125
2483.91964472871	0.249420166015625
2483.92964472868	0.24884033203125
2483.93964472866	0.24822998046875
2483.94964472863	0.24761962890625
2483.9596447286	0.24700927734375
2483.96964472858	0.24639892578125
2483.97964472855	0.24578857421875
2483.98964472853	0.24517822265625
2483.9996447285	0.244537353515625
2484.00964472848	0.243927001953125
2484.01964472845	0.243316650390625
2484.02964472843	0.242706298828125
2484.0396447284	0.242095947265625
2484.04964472838	0.241485595703125
2484.05964472835	0.240875244140625
2484.06964472833	0.240234375
2484.0796447283	0.2396240234375
2484.08964472828	0.238983154296875
2484.09964472825	0.238372802734375
2484.10964472823	0.23773193359375
2484.1196447282	0.23712158203125
2484.12964472818	0.236480712890625
2484.13964472815	0.235870361328125
2484.14964472813	0.2352294921875
2484.1596447281	0.234588623046875
2484.16964472807	0.2340087890625
2484.17964472805	0.233367919921875
2484.18964472802	0.232757568359375
2484.199644728	0.23211669921875
2484.20964472797	0.231475830078125
2484.21964472795	0.2308349609375
2484.22964472792	0.230224609375
2484.2396447279	0.229583740234375
2484.24964472787	0.22894287109375
2484.25964472785	0.228302001953125
2484.26964472782	0.2276611328125
2484.2796447278	0.227020263671875
2484.28964472777	0.226409912109375
2484.29964472775	0.22576904296875
2484.30964472772	0.225128173828125
2484.3196447277	0.2244873046875
2484.32964472767	0.223846435546875
2484.33964472765	0.22320556640625
2484.34964472762	0.222564697265625
2484.35964472759	0.221923828125
2484.36964472757	0.221282958984375
2484.37964472754	0.22064208984375
2484.38964472752	0.220001220703125
2484.39964472749	0.2193603515625
2484.40964472747	0.218719482421875
2484.41964472744	0.21807861328125
2484.42964472742	0.217437744140625
2484.43964472739	0.216796875
2484.44964472737	0.216156005859375
2484.45964472734	0.215484619140625
2484.46964472732	0.21484375
2484.47964472729	0.214202880859375
2484.48964472727	0.21356201171875
2484.49964472724	0.212921142578125
2484.50964472722	0.2122802734375
2484.51964472719	0.21160888671875
2484.52964472717	0.210968017578125
2484.53964472714	0.2103271484375
2484.54964472712	0.209686279296875
2484.55964472709	0.20904541015625
2484.56964472706	0.2083740234375
2484.57964472704	0.207733154296875
2484.58964472701	0.20709228515625
2484.59964472699	0.2064208984375
2484.60964472696	0.205780029296875
2484.61964472694	0.20513916015625
2484.62964472691	0.2044677734375
2484.63964472689	0.203826904296875
2484.64964472686	0.20318603515625
2484.65964472684	0.202545166015625
2484.66964472681	0.201904296875
2484.67964472679	0.201263427734375
2484.68964472676	0.200592041015625
2484.69964472674	0.199951171875
2484.70964472671	0.19927978515625
2484.71964472669	0.198638916015625
2484.72964472666	0.197967529296875
2484.73964472664	0.19732666015625
2484.74964472661	0.1966552734375
2484.75964472659	0.196014404296875
2484.76964472656	0.19537353515625
2484.77964472653	0.1947021484375
2484.78964472651	0.194061279296875
2484.79964472648	0.193389892578125
2484.80964472646	0.1927490234375
2484.81964472643	0.19207763671875
2484.82964472641	0.191436767578125
2484.83964472638	0.190765380859375
2484.84964472636	0.190093994140625
2484.85964472633	0.189453125
2484.86964472631	0.18878173828125
2484.87964472628	0.188140869140625
2484.88964472626	0.187469482421875
2484.89964472623	0.18682861328125
2484.90964472621	0.1861572265625
2484.91964472618	0.18548583984375
2484.92964472616	0.184844970703125
2484.93964472613	0.184173583984375
2484.94964472611	0.183502197265625
2484.95964472608	0.182830810546875
2484.96964472605	0.18218994140625
2484.97964472603	0.1815185546875
2484.989644726	0.18084716796875
2484.99964472598	0.180206298828125
2485.00964472595	0.179534912109375
2485.01964472593	0.178863525390625
2485.0296447259	0.178192138671875
2485.03964472588	0.17755126953125
2485.04964472585	0.1768798828125
2485.05964472583	0.17620849609375
2485.0696447258	0.175537109375
2485.07964472578	0.17486572265625
2485.08964472575	0.1741943359375
2485.09964472573	0.17352294921875
2485.1096447257	0.1728515625
2485.11964472568	0.17218017578125
2485.12964472565	0.17156982421875
2485.13964472563	0.1708984375
2485.1496447256	0.170196533203125
2485.15964472558	0.169525146484375
2485.16964472555	0.168853759765625
2485.17964472552	0.168182373046875
2485.1896447255	0.167510986328125
2485.19964472547	0.166839599609375
2485.20964472545	0.166168212890625
2485.21964472542	0.165496826171875
2485.2296447254	0.164825439453125
2485.23964472537	0.164154052734375
2485.24964472535	0.163482666015625
2485.25964472532	0.16278076171875
2485.2696447253	0.162109375
2485.27964472527	0.16143798828125
2485.28964472525	0.160736083984375
2485.29964472522	0.160064697265625
2485.3096447252	0.159393310546875
2485.31964472517	0.15869140625
2485.32964472515	0.15802001953125
2485.33964472512	0.1573486328125
2485.3496447251	0.156646728515625
2485.35964472507	0.156005859375
2485.36964472504	0.155303955078125
2485.37964472502	0.154632568359375
2485.38964472499	0.1539306640625
2485.39964472497	0.15325927734375
2485.40964472494	0.152557373046875
2485.41964472492	0.151885986328125
2485.42964472489	0.15118408203125
2485.43964472487	0.150482177734375
2485.44964472484	0.149810791015625
2485.45964472482	0.14910888671875
2485.46964472479	0.1484375
2485.47964472477	0.147735595703125
2485.48964472474	0.147064208984375
2485.49964472472	0.1463623046875
2485.50964472469	0.145660400390625
2485.51964472467	0.144989013671875
2485.52964472464	0.144287109375
2485.53964472462	0.143585205078125
2485.54964472459	0.14288330078125
2485.55964472457	0.142181396484375
2485.56964472454	0.141510009765625
2485.57964472451	0.14080810546875
2485.58964472449	0.14013671875
2485.59964472446	0.139434814453125
2485.60964472444	0.13873291015625
2485.61964472441	0.138031005859375
2485.62964472439	0.137359619140625
2485.63964472436	0.136627197265625
2485.64964472434	0.135955810546875
2485.65964472431	0.135223388671875
2485.66964472429	0.134552001953125
2485.67964472426	0.13385009765625
2485.68964472424	0.133148193359375
2485.69964472421	0.1324462890625
2485.70964472419	0.131744384765625
2485.71964472416	0.13104248046875
2485.72964472414	0.130340576171875
2485.73964472411	0.129638671875
2485.74964472409	0.12890625
2485.75964472406	0.128204345703125
2485.76964472404	0.12750244140625
2485.77964472401	0.126800537109375
2485.78964472398	0.1260986328125
2485.79964472396	0.1253662109375
2485.80964472393	0.12469482421875
2485.81964472391	0.123992919921875
2485.82964472388	0.123260498046875
2485.83964472386	0.12255859375
2485.84964472383	0.121856689453125
2485.85964472381	0.12115478515625
2485.86964472378	0.12042236328125
2485.87964472376	0.119720458984375
2485.88964472373	0.1190185546875
2485.89964472371	0.1182861328125
2485.90964472368	0.117584228515625
2485.91964472366	0.11688232421875
2485.92964472363	0.11614990234375
2485.93964472361	0.115447998046875
2485.94964472358	0.11474609375
2485.95964472356	0.114013671875
2485.96964472353	0.113311767578125
2485.9796447235	0.112579345703125
2485.98964472348	0.11187744140625
2485.99964472345	0.111175537109375
2486.00964472343	0.110443115234375
2486.0196447234	0.1097412109375
2486.02964472338	0.109039306640625
2486.03964472335	0.10833740234375
2486.04964472333	0.107635498046875
2486.0596447233	0.106903076171875
2486.06964472328	0.106201171875
2486.07964472325	0.10546875
2486.08964472323	0.104736328125
2486.0996447232	0.104034423828125
2486.10964472318	0.103302001953125
2486.11964472315	0.10260009765625
2486.12964472313	0.10186767578125
2486.1396447231	0.101165771484375
2486.14964472308	0.1004638671875
2486.15964472305	0.0997314453125
2486.16964472303	0.099029541015625
2486.179644723	0.098297119140625
2486.18964472297	0.09759521484375
2486.19964472295	0.09686279296875
2486.20964472292	0.096160888671875
2486.2196447229	0.095428466796875
2486.22964472287	0.0947265625
2486.23964472285	0.093994140625
2486.24964472282	0.093292236328125
2486.2596447228	0.09259033203125
2486.26964472277	0.09185791015625
2486.27964472275	0.091156005859375
2486.28964472272	0.090423583984375
2486.2996447227	0.0897216796875
2486.30964472267	0.0889892578125
2486.31964472265	0.088287353515625
2486.32964472262	0.087554931640625
2486.3396447226	0.08685302734375
2486.34964472257	0.086151123046875
2486.35964472255	0.085418701171875
2486.36964472252	0.084716796875
2486.37964472249	0.083984375
2486.38964472247	0.083282470703125
2486.39964472244	0.082550048828125
2486.40964472242	0.08184814453125
2486.41964472239	0.08111572265625
2486.42964472237	0.080413818359375
2486.43964472234	0.0797119140625
2486.44964472232	0.0789794921875
2486.45964472229	0.078277587890625
2486.46964472227	0.077606201171875
2486.47964472224	0.076873779296875
2486.48964472222	0.076171875
2486.49964472219	0.075469970703125
2486.50964472217	0.074737548828125
2486.51964472214	0.07403564453125
2486.52964472212	0.073333740234375
2486.53964472209	0.072601318359375
2486.54964472207	0.0718994140625
2486.55964472204	0.0711669921875
2486.56964472202	0.070465087890625
2486.57964472199	0.06976318359375
2486.58964472196	0.069061279296875
2486.59964472194	0.068359375
2486.60964472191	0.067657470703125
2486.61964472189	0.06695556640625
2486.62964472186	0.06622314453125
2486.63964472184	0.065521240234375
2486.64964472181	0.0648193359375
2486.65964472179	0.064117431640625
2486.66964472176	0.06341552734375
2486.67964472174	0.062713623046875
2486.68964472171	0.06201171875
2486.69964472169	0.061309814453125
2486.70964472166	0.06060791015625
2486.71964472164	0.059906005859375
2486.72964472161	0.059173583984375
2486.73964472159	0.0584716796875
2486.74964472156	0.057769775390625
2486.75964472154	0.05706787109375
2486.76964472151	0.056365966796875
2486.77964472149	0.0556640625
2486.78964472146	0.054962158203125
2486.79964472143	0.054290771484375
2486.80964472141	0.0535888671875
2486.81964472138	0.052886962890625
2486.82964472136	0.05218505859375
2486.83964472133	0.051483154296875
2486.84964472131	0.05078125
2486.85964472128	0.050079345703125
2486.86964472126	0.0493743896484375
2486.87964472123	0.048675537109375
2486.88964472121	0.0479827880859375
2486.89964472118	0.047283935546875
2486.90964472116	0.046588134765625
2486.91964472113	0.0458892822265625
2486.92964472111	0.0451995849609375
2486.93964472108	0.044500732421875
2486.94964472106	0.0438079833984375
2486.95964472103	0.043109130859375
2486.96964472101	0.04241943359375
2486.97964472098	0.0417236328125
2486.98964472095	0.0410308837890625
2486.99964472093	0.0403411865234375
2487.0096447209	0.0396453857421875
2487.01964472088	0.0389556884765625
2487.02964472085	0.0382659912109375
2487.03964472083	0.0375732421875
2487.0496447208	0.0368865966796875
2487.05964472078	0.0361907958984375
2487.06964472075	0.0355072021484375
2487.07964472073	0.034814453125
2487.0896447207	0.034130859375
2487.09964472068	0.033441162109375
2487.10964472065	0.0327545166015625
2487.11964472063	0.0320648193359375
2487.1296447206	0.0313812255859375
2487.13964472058	0.0306915283203125
2487.14964472055	0.0300079345703125
2487.15964472053	0.0293212890625
2487.1696447205	0.0286376953125
2487.17964472048	0.0279541015625
2487.18964472045	0.0272705078125
2487.19964472042	0.0265869140625
2487.2096447204	0.025909423828125
2487.21964472037	0.0252227783203125
2487.22964472035	0.0245452880859375
2487.23964472032	0.02386474609375
2487.2496447203	0.0231842041015625
2487.25964472027	0.0225067138671875
2487.26964472025	0.021832275390625
2487.27964472022	0.0211517333984375
2487.2896447202	0.020477294921875
2487.29964472017	0.0197998046875
2487.30964472015	0.0191253662109375
2487.31964472012	0.018450927734375
2487.3296447201	0.0177764892578125
2487.33964472007	0.0171051025390625
2487.34964472005	0.0164337158203125
2487.35964472002	0.01575927734375
2487.36964472	0.0150909423828125
2487.37964471997	0.0144195556640625
2487.38964471994	0.013751220703125
2487.39964471992	0.0130828857421875
2487.40964471989	0.0124176025390625
2487.41964471987	0.011749267578125
2487.42964471984	0.0110809326171875
2487.43964471982	0.010418701171875
2487.44964471979	0.00975341796875
2487.45964471977	0.0090911865234375
2487.46964471974	0.00842895507812499
2487.47964471972	0.0077667236328125
2487.48964471969	0.0071075439453125
2487.49964471967	0.00644531249999999
2487.50964471964	0.0057830810546875
2487.51964471962	0.005126953125
2487.52964471959	0.004473876953125
2487.53964471957	0.003814697265625
2487.54964471954	0.0031585693359375
2487.55964471952	0.00250244140625
2487.56964471949	0.00185241699218749
2487.57964471947	0.001202392578125
2487.58964471944	0.00054931640625
2487.59964471941	-0.000100708007812506
2487.60964471939	-0.000750732421874997
2487.61964471936	-0.0014007568359375
2487.62964471934	-0.0020477294921875
