Time (s)	WE(1).Potential (V)
2467.09110177119	0.108367919921875
2467.10110177117	0.109619140625
2467.11110177114	0.11090087890625
2467.12110177112	0.1121826171875
2467.13110177109	0.11346435546875
2467.14110177107	0.114715576171875
2467.15110177104	0.115997314453125
2467.16110177102	0.11724853515625
2467.17110177099	0.118499755859375
2467.18110177097	0.119781494140625
2467.19110177094	0.12103271484375
2467.20110177092	0.122283935546875
2467.21110177089	0.12353515625
2467.22110177087	0.124786376953125
2467.23110177084	0.126007080078125
2467.24110177082	0.127227783203125
2467.25110177079	0.12847900390625
2467.26110177076	0.12969970703125
2467.27110177074	0.130950927734375
2467.28110177071	0.132171630859375
2467.29110177069	0.13336181640625
2467.30110177066	0.13458251953125
2467.31110177064	0.13580322265625
2467.32110177061	0.13702392578125
2467.33110177059	0.13824462890625
2467.34110177056	0.139434814453125
2467.35110177054	0.140625
2467.36110177051	0.14178466796875
2467.37110177049	0.14300537109375
2467.38110177046	0.144195556640625
2467.39110177044	0.1453857421875
2467.40110177041	0.146575927734375
2467.41110177039	0.147735595703125
2467.42110177036	0.14892578125
2467.43110177034	0.15008544921875
2467.44110177031	0.151275634765625
2467.45110177028	0.152435302734375
2467.46110177026	0.153594970703125
2467.47110177023	0.154754638671875
2467.48110177021	0.155914306640625
2467.49110177018	0.15704345703125
2467.50110177016	0.158203125
2467.51110177013	0.15936279296875
2467.52110177011	0.1605224609375
2467.53110177008	0.161651611328125
2467.54110177006	0.162811279296875
2467.55110177003	0.1639404296875
2467.56110177001	0.165069580078125
2467.57110176998	0.16619873046875
2467.58110176996	0.167327880859375
2467.59110176993	0.16845703125
2467.60110176991	0.169586181640625
2467.61110176988	0.170684814453125
2467.62110176986	0.171783447265625
2467.63110176983	0.172882080078125
2467.64110176981	0.173980712890625
2467.65110176978	0.17510986328125
2467.66110176975	0.17620849609375
2467.67110176973	0.17730712890625
2467.6811017697	0.17840576171875
2467.69110176968	0.17950439453125
2467.70110176965	0.180572509765625
2467.71110176963	0.181671142578125
2467.7211017696	0.1827392578125
2467.73110176958	0.183837890625
2467.74110176955	0.184906005859375
2467.75110176953	0.18597412109375
2467.7611017695	0.187042236328125
2467.77110176948	0.188079833984375
2467.78110176945	0.18914794921875
2467.79110176943	0.190216064453125
2467.8011017694	0.1912841796875
2467.81110176938	0.19232177734375
2467.82110176935	0.193359375
2467.83110176933	0.194427490234375
2467.8411017693	0.1954345703125
2467.85110176927	0.19647216796875
2467.86110176925	0.197509765625
2467.87110176922	0.19854736328125
2467.8811017692	0.199554443359375
2467.89110176917	0.200592041015625
2467.90110176915	0.20159912109375
2467.91110176912	0.202606201171875
2467.9211017691	0.203582763671875
2467.93110176907	0.20458984375
2467.94110176905	0.205596923828125
2467.95110176902	0.206573486328125
2467.961101769	0.20758056640625
2467.97110176897	0.20855712890625
2467.98110176895	0.209564208984375
2467.99110176892	0.210540771484375
2468.0011017689	0.21148681640625
2468.01110176887	0.21246337890625
2468.02110176885	0.21343994140625
2468.03110176882	0.21441650390625
2468.0411017688	0.215362548828125
2468.05110176877	0.216339111328125
2468.06110176874	0.21728515625
2468.07110176872	0.218231201171875
2468.08110176869	0.219146728515625
2468.09110176867	0.2200927734375
2468.10110176864	0.221038818359375
2468.11110176862	0.22198486328125
2468.12110176859	0.222930908203125
2468.13110176857	0.223846435546875
2468.14110176854	0.224761962890625
2468.15110176852	0.2257080078125
2468.16110176849	0.226593017578125
2468.17110176847	0.227508544921875
2468.18110176844	0.228424072265625
2468.19110176842	0.229339599609375
2468.20110176839	0.230224609375
2468.21110176837	0.23114013671875
2468.22110176834	0.232025146484375
2468.23110176832	0.232940673828125
2468.24110176829	0.23382568359375
2468.25110176827	0.234649658203125
2468.26110176824	0.23553466796875
2468.27110176821	0.236419677734375
2468.28110176819	0.2373046875
2468.29110176816	0.2381591796875
2468.30110176814	0.239013671875
2468.31110176811	0.239898681640625
2468.32110176809	0.240753173828125
2468.33110176806	0.241607666015625
2468.34110176804	0.242431640625
2468.35110176801	0.2432861328125
2468.36110176799	0.244110107421875
2468.37110176796	0.244964599609375
2468.38110176794	0.24578857421875
2468.39110176791	0.246612548828125
2468.40110176789	0.2474365234375
2468.41110176786	0.248260498046875
2468.42110176784	0.24908447265625
2468.43110176781	0.2498779296875
2468.44110176779	0.25067138671875
2468.45110176776	0.25146484375
2468.46110176773	0.25225830078125
2468.47110176771	0.2530517578125
2468.48110176768	0.25384521484375
2468.49110176766	0.254638671875
2468.50110176763	0.25543212890625
2468.51110176761	0.256195068359375
2468.52110176758	0.256988525390625
2468.53110176756	0.25775146484375
2468.54110176753	0.258514404296875
2468.55110176751	0.25927734375
2468.56110176748	0.260040283203125
2468.57110176746	0.26080322265625
2468.58110176743	0.261566162109375
2468.59110176741	0.2623291015625
2468.60110176738	0.2630615234375
2468.61110176736	0.263824462890625
2468.62110176733	0.26458740234375
2468.63110176731	0.26531982421875
2468.64110176728	0.266021728515625
2468.65110176726	0.266754150390625
2468.66110176723	0.26751708984375
2468.6711017672	0.26824951171875
2468.68110176718	0.26898193359375
2468.69110176715	0.26971435546875
2468.70110176713	0.27044677734375
2468.7111017671	0.27117919921875
2468.72110176708	0.27191162109375
2468.73110176705	0.272613525390625
2468.74110176703	0.273345947265625
2468.751101767	0.2740478515625
2468.76110176698	0.2747802734375
2468.77110176695	0.2755126953125
2468.78110176693	0.276214599609375
2468.7911017669	0.276947021484375
2468.80110176688	0.27764892578125
2468.81110176685	0.27838134765625
2468.82110176683	0.279083251953125
2468.8311017668	0.27978515625
2468.84110176678	0.280487060546875
2468.85110176675	0.281219482421875
2468.86110176672	0.281890869140625
2468.8711017667	0.2825927734375
2468.88110176667	0.2833251953125
2468.89110176665	0.284027099609375
2468.90110176662	0.28472900390625
2468.9111017666	0.285430908203125
2468.92110176657	0.2861328125
2468.93110176655	0.286865234375
2468.94110176652	0.287567138671875
2468.9511017665	0.28826904296875
2468.96110176647	0.288970947265625
2468.97110176645	0.2896728515625
2468.98110176642	0.290374755859375
2468.9911017664	0.29107666015625
2469.00110176637	0.291778564453125
2469.01110176635	0.29248046875
2469.02110176632	0.293212890625
2469.0311017663	0.293914794921875
2469.04110176627	0.29461669921875
2469.05110176625	0.29534912109375
2469.06110176622	0.296051025390625
2469.07110176619	0.2967529296875
2469.08110176617	0.29742431640625
2469.09110176614	0.29815673828125
2469.10110176612	0.298858642578125
2469.11110176609	0.299591064453125
2469.12110176607	0.30029296875
2469.13110176604	0.301025390625
2469.14110176602	0.301727294921875
2469.15110176599	0.302459716796875
2469.16110176597	0.303192138671875
2469.17110176594	0.30389404296875
2469.18110176592	0.30462646484375
2469.19110176589	0.305328369140625
2469.20110176587	0.306060791015625
2469.21110176584	0.306793212890625
2469.22110176582	0.307525634765625
2469.23110176579	0.308258056640625
2469.24110176577	0.308990478515625
2469.25110176574	0.309722900390625
2469.26110176572	0.310455322265625
2469.27110176569	0.311187744140625
2469.28110176566	0.311920166015625
2469.29110176564	0.312652587890625
2469.30110176561	0.313385009765625
2469.31110176559	0.31414794921875
2469.32110176556	0.31488037109375
2469.33110176554	0.31561279296875
2469.34110176551	0.31634521484375
2469.35110176549	0.317108154296875
2469.36110176546	0.317840576171875
2469.37110176544	0.318603515625
2469.38110176541	0.3193359375
2469.39110176539	0.320098876953125
2469.40110176536	0.320831298828125
2469.41110176534	0.321563720703125
2469.42110176531	0.32232666015625
2469.43110176529	0.323089599609375
2469.44110176526	0.323822021484375
2469.45110176524	0.3245849609375
2469.46110176521	0.325347900390625
2469.47110176518	0.326080322265625
2469.48110176516	0.32684326171875
2469.49110176513	0.327606201171875
2469.50110176511	0.328338623046875
2469.51110176508	0.329071044921875
2469.52110176506	0.329833984375
2469.53110176503	0.330596923828125
2469.54110176501	0.33135986328125
2469.55110176498	0.332122802734375
2469.56110176496	0.332855224609375
2469.57110176493	0.3336181640625
2469.58110176491	0.334381103515625
2469.59110176488	0.33514404296875
2469.60110176486	0.335906982421875
2469.61110176483	0.336639404296875
2469.62110176481	0.33740234375
2469.63110176478	0.338165283203125
2469.64110176476	0.33892822265625
2469.65110176473	0.339691162109375
2469.66110176471	0.3404541015625
2469.67110176468	0.341217041015625
2469.68110176465	0.34197998046875
2469.69110176463	0.342742919921875
2469.7011017646	0.343505859375
2469.71110176458	0.34423828125
2469.72110176455	0.345001220703125
2469.73110176453	0.34576416015625
2469.7411017645	0.34649658203125
2469.75110176448	0.347259521484375
2469.76110176445	0.3480224609375
2469.77110176443	0.348785400390625
2469.7811017644	0.34954833984375
2469.79110176438	0.350311279296875
2469.80110176435	0.351043701171875
2469.81110176433	0.351806640625
2469.8211017643	0.352569580078125
2469.83110176428	0.35333251953125
2469.84110176425	0.35406494140625
2469.85110176423	0.354827880859375
2469.8611017642	0.3555908203125
2469.87110176417	0.356353759765625
2469.88110176415	0.35711669921875
2469.89110176412	0.35784912109375
2469.9011017641	0.358612060546875
2469.91110176407	0.359344482421875
2469.92110176405	0.360076904296875
2469.93110176402	0.36083984375
2469.941101764	0.361602783203125
2469.95110176397	0.362335205078125
2469.96110176395	0.36309814453125
2469.97110176392	0.363861083984375
2469.9811017639	0.3646240234375
2469.99110176387	0.3653564453125
2470.00110176385	0.366119384765625
2470.01110176382	0.36688232421875
2470.0211017638	0.36761474609375
2470.03110176377	0.368377685546875
2470.04110176375	0.369140625
2470.05110176372	0.369873046875
2470.0611017637	0.370635986328125
2470.07110176367	0.37139892578125
2470.08110176364	0.37213134765625
2470.09110176362	0.372894287109375
2470.10110176359	0.3736572265625
2470.11110176357	0.374420166015625
2470.12110176354	0.375152587890625
2470.13110176352	0.375885009765625
2470.14110176349	0.37664794921875
2470.15110176347	0.377410888671875
2470.16110176344	0.378173828125
2470.17110176342	0.37890625
2470.18110176339	0.379669189453125
2470.19110176337	0.38043212890625
2470.20110176334	0.381195068359375
2470.21110176332	0.3819580078125
2470.22110176329	0.382720947265625
2470.23110176327	0.383453369140625
2470.24110176324	0.38421630859375
2470.25110176322	0.384979248046875
2470.26110176319	0.3857421875
2470.27110176317	0.386505126953125
2470.28110176314	0.38726806640625
2470.29110176311	0.388031005859375
2470.30110176309	0.3887939453125
2470.31110176306	0.389556884765625
2470.32110176304	0.39031982421875
2470.33110176301	0.391021728515625
2470.34110176299	0.39178466796875
2470.35110176296	0.392547607421875
2470.36110176294	0.393310546875
2470.37110176291	0.394073486328125
2470.38110176289	0.394866943359375
2470.39110176286	0.395599365234375
2470.40110176284	0.396392822265625
2470.41110176281	0.39715576171875
2470.42110176279	0.397918701171875
2470.43110176276	0.398681640625
2470.44110176274	0.399444580078125
2470.45110176271	0.40020751953125
2470.46110176269	0.400970458984375
2470.47110176266	0.4017333984375
2470.48110176263	0.402496337890625
2470.49110176261	0.40325927734375
2470.50110176258	0.404052734375
2470.51110176256	0.404815673828125
2470.52110176253	0.40557861328125
2470.53110176251	0.406341552734375
2470.54110176248	0.407073974609375
2470.55110176246	0.407867431640625
2470.56110176243	0.40863037109375
2470.57110176241	0.409393310546875
2470.58110176238	0.41015625
2470.59110176236	0.41094970703125
2470.60110176233	0.411712646484375
2470.61110176231	0.4124755859375
2470.62110176228	0.413238525390625
2470.63110176226	0.41400146484375
2470.64110176223	0.414764404296875
2470.65110176221	0.41552734375
2470.66110176218	0.41632080078125
2470.67110176216	0.417083740234375
2470.68110176213	0.4178466796875
2470.6911017621	0.418609619140625
2470.70110176208	0.41937255859375
2470.71110176205	0.420135498046875
2470.72110176203	0.420928955078125
2470.731101762	0.42169189453125
2470.74110176198	0.42242431640625
2470.75110176195	0.423187255859375
2470.76110176193	0.4239501953125
2470.7711017619	0.424713134765625
2470.78110176188	0.42547607421875
2470.79110176185	0.426239013671875
2470.80110176183	0.427001953125
2470.8111017618	0.42779541015625
2470.82110176178	0.428558349609375
2470.83110176175	0.4293212890625
2470.84110176173	0.430084228515625
2470.8511017617	0.43084716796875
2470.86110176168	0.431610107421875
2470.87110176165	0.432373046875
2470.88110176162	0.433135986328125
2470.8911017616	0.43389892578125
2470.90110176157	0.4346923828125
2470.91110176155	0.435455322265625
2470.92110176152	0.43621826171875
2470.9311017615	0.436981201171875
2470.94110176147	0.437744140625
2470.95110176145	0.438507080078125
2470.96110176142	0.43927001953125
2470.9711017614	0.440032958984375
2470.98110176137	0.440826416015625
2470.99110176135	0.44158935546875
2471.00110176132	0.442352294921875
2471.0111017613	0.443115234375
2471.02110176127	0.44390869140625
2471.03110176125	0.444671630859375
2471.04110176122	0.4454345703125
2471.0511017612	0.446197509765625
2471.06110176117	0.44696044921875
2471.07110176115	0.447723388671875
2471.08110176112	0.448486328125
2471.09110176109	0.44927978515625
2471.10110176107	0.450042724609375
2471.11110176104	0.4508056640625
2471.12110176102	0.45159912109375
2471.13110176099	0.452362060546875
2471.14110176097	0.453125
2471.15110176094	0.453857421875
2471.16110176092	0.45465087890625
2471.17110176089	0.455413818359375
2471.18110176087	0.4561767578125
2471.19110176084	0.45697021484375
2471.20110176082	0.457733154296875
2471.21110176079	0.45849609375
2471.22110176077	0.45928955078125
2471.23110176074	0.460052490234375
2471.24110176072	0.4608154296875
2471.25110176069	0.461578369140625
2471.26110176067	0.462371826171875
2471.27110176064	0.463134765625
2471.28110176062	0.463897705078125
2471.29110176059	0.464691162109375
2471.30110176056	0.4654541015625
2471.31110176054	0.466217041015625
2471.32110176051	0.467010498046875
2471.33110176049	0.4677734375
2471.34110176046	0.468536376953125
2471.35110176044	0.46929931640625
2471.36110176041	0.470062255859375
2471.37110176039	0.470855712890625
2471.38110176036	0.47161865234375
2471.39110176034	0.472412109375
2471.40110176031	0.473175048828125
2471.41110176029	0.473968505859375
2471.42110176026	0.4747314453125
2471.43110176024	0.475494384765625
2471.44110176021	0.476287841796875
2471.45110176019	0.47705078125
2471.46110176016	0.477813720703125
2471.47110176014	0.478607177734375
2471.48110176011	0.4793701171875
2471.49110176008	0.48016357421875
2471.50110176006	0.480926513671875
2471.51110176003	0.481689453125
2471.52110176001	0.48248291015625
2471.53110175998	0.483245849609375
2471.54110175996	0.484039306640625
2471.55110175993	0.484771728515625
2471.56110175991	0.485565185546875
2471.57110175988	0.486328125
2471.58110175986	0.48712158203125
2471.59110175983	0.487884521484375
2471.60110175981	0.488677978515625
2471.61110175978	0.48944091796875
2471.62110175976	0.490234375
2471.63110175973	0.490997314453125
2471.64110175971	0.491790771484375
2471.65110175968	0.4925537109375
2471.66110175966	0.49334716796875
2471.67110175963	0.494110107421875
2471.68110175961	0.494903564453125
2471.69110175958	0.495697021484375
2471.70110175955	0.4964599609375
2471.71110175953	0.49725341796875
2471.7211017595	0.498046875
2471.73110175948	0.49884033203125
2471.74110175945	0.499603271484375
2471.75110175943	0.50018310546875
2471.7611017594	0.5010986328125
2471.77110175938	0.50201416015625
2471.78110175935	0.50262451171875
2471.79110175933	0.5035400390625
2471.8011017593	0.504150390625
2471.81110175928	0.50506591796875
2471.82110175925	0.50567626953125
2471.83110175923	0.506591796875
2471.8411017592	0.50750732421875
2471.85110175918	0.50811767578125
2471.86110175915	0.509033203125
2471.87110175913	0.5096435546875
2471.8811017591	0.51055908203125
2471.89110175907	0.511474609375
2471.90110175905	0.5120849609375
2471.91110175902	0.51300048828125
2471.921101759	0.51361083984375
2471.93110175897	0.5145263671875
2471.94110175895	0.51544189453125
2471.95110175892	0.51605224609375
2471.9611017589	0.5169677734375
2471.97110175887	0.517578125
2471.98110175885	0.51849365234375
2471.99110175882	0.5194091796875
2472.0011017588	0.52001953125
2472.01110175877	0.52093505859375
2472.02110175875	0.52154541015625
2472.03110175872	0.5224609375
2472.0411017587	0.52337646484375
2472.05110175867	0.52398681640625
2472.06110175865	0.52490234375
2472.07110175862	0.5255126953125
2472.0811017586	0.52642822265625
2472.09110175857	0.52734375
2472.10110175854	0.5279541015625
2472.11110175852	0.52886962890625
2472.12110175849	0.52978515625
2472.13110175847	0.5303955078125
2472.14110175844	0.53131103515625
2472.15110175842	0.53192138671875
2472.16110175839	0.5328369140625
2472.17110175837	0.53375244140625
2472.18110175834	0.53436279296875
2472.19110175832	0.5352783203125
2472.20110175829	0.535888671875
2472.21110175827	0.53680419921875
2472.22110175824	0.5377197265625
2472.23110175822	0.538330078125
2472.24110175819	0.53924560546875
2472.25110175817	0.53985595703125
2472.26110175814	0.540771484375
2472.27110175812	0.54168701171875
2472.28110175809	0.54229736328125
2472.29110175806	0.543212890625
2472.30110175804	0.5438232421875
2472.31110175801	0.54473876953125
2472.32110175799	0.545654296875
2472.33110175796	0.5462646484375
2472.34110175794	0.54718017578125
2472.35110175791	0.54779052734375
2472.36110175789	0.5487060546875
2472.37110175786	0.54931640625
2472.38110175784	0.55023193359375
2472.39110175781	0.5511474609375
2472.40110175779	0.5517578125
2472.41110175776	0.55267333984375
2472.42110175774	0.5535888671875
2472.43110175771	0.55419921875
2472.44110175769	0.55511474609375
2472.45110175766	0.55572509765625
2472.46110175764	0.556640625
2472.47110175761	0.55755615234375
2472.48110175759	0.55816650390625
2472.49110175756	0.55908203125
2472.50110175753	0.55999755859375
2472.51110175751	0.56060791015625
2472.52110175748	0.5615234375
2472.53110175746	0.5621337890625
2472.54110175743	0.56304931640625
2472.55110175741	0.56396484375
2472.56110175738	0.5645751953125
2472.57110175736	0.56549072265625
2472.58110175733	0.56610107421875
2472.59110175731	0.5670166015625
2472.60110175728	0.56793212890625
2472.61110175726	0.56854248046875
2472.62110175723	0.5694580078125
2472.63110175721	0.57037353515625
2472.64110175718	0.57098388671875
2472.65110175716	0.5718994140625
2472.66110175713	0.57281494140625
2472.67110175711	0.57342529296875
2472.68110175708	0.5743408203125
2472.69110175706	0.574951171875
2472.70110175703	0.57586669921875
2472.711101757	0.5767822265625
2472.72110175698	0.577392578125
2472.73110175695	0.57830810546875
2472.74110175693	0.57891845703125
2472.7511017569	0.579833984375
2472.76110175688	0.58074951171875
2472.77110175685	0.58135986328125
2472.78110175683	0.582275390625
2472.7911017568	0.58319091796875
2472.80110175678	0.58380126953125
2472.81110175675	0.584716796875
2472.82110175673	0.58563232421875
2472.8311017567	0.58624267578125
