Time (s)	WE(1).Potential (V)
2573.78173150183	0.595703125
2573.7917315018	0.59326171875
2573.80173150178	0.5908203125
2573.81173150175	0.58837890625
2573.82173150172	0.5859375
2573.8317315017	0.58349609375
2573.84173150167	0.5810546875
2573.85173150165	0.57861328125
2573.86173150162	0.57647705078125
2573.8717315016	0.57403564453125
2573.88173150157	0.57159423828125
2573.89173150155	0.56915283203125
2573.90173150152	0.56671142578125
2573.9117315015	0.56427001953125
2573.92173150147	0.5621337890625
2573.93173150145	0.5596923828125
2573.94173150142	0.5572509765625
2573.9517315014	0.55511474609375
2573.96173150137	0.55267333984375
2573.97173150135	0.55023193359375
2573.98173150132	0.548095703125
2573.9917315013	0.545654296875
2574.00173150127	0.54351806640625
2574.01173150124	0.54107666015625
2574.02173150122	0.5389404296875
2574.03173150119	0.5364990234375
2574.04173150117	0.5340576171875
2574.05173150114	0.53192138671875
2574.06173150112	0.52947998046875
2574.07173150109	0.52734375
2574.08173150107	0.52490234375
2574.09173150104	0.5224609375
2574.10173150102	0.52032470703125
2574.11173150099	0.51788330078125
2574.12173150097	0.5157470703125
2574.13173150094	0.5133056640625
2574.14173150092	0.51116943359375
2574.15173150089	0.50872802734375
2574.16173150087	0.506591796875
2574.17173150084	0.504150390625
2574.18173150082	0.50201416015625
2574.19173150079	0.49957275390625
2574.20173150077	0.497467041015625
2574.21173150074	0.49517822265625
2574.22173150071	0.492919921875
2574.23173150069	0.49066162109375
2574.24173150066	0.4884033203125
2574.25173150064	0.48614501953125
2574.26173150061	0.48394775390625
2574.27173150059	0.481719970703125
2574.28173150056	0.479461669921875
2574.29173150054	0.47723388671875
2574.30173150051	0.47503662109375
2574.31173150049	0.472808837890625
2574.32173150046	0.470611572265625
2574.33173150044	0.468414306640625
2574.34173150041	0.466217041015625
2574.35173150039	0.464019775390625
2574.36173150036	0.46185302734375
2574.37173150034	0.45965576171875
2574.38173150031	0.457489013671875
2574.39173150029	0.455322265625
2574.40173150026	0.45318603515625
2574.41173150023	0.4510498046875
2574.42173150021	0.44891357421875
2574.43173150018	0.44677734375
2574.44173150016	0.444671630859375
2574.45173150013	0.442535400390625
2574.46173150011	0.440399169921875
2574.47173150008	0.43829345703125
2574.48173150006	0.43621826171875
2574.49173150003	0.434112548828125
2574.50173150001	0.432037353515625
2574.51173149998	0.429962158203125
2574.52173149996	0.42791748046875
2574.53173149993	0.42584228515625
2574.54173149991	0.423797607421875
2574.55173149988	0.421783447265625
2574.56173149986	0.419769287109375
2574.57173149983	0.417724609375
2574.58173149981	0.41571044921875
2574.59173149978	0.4136962890625
2574.60173149976	0.411712646484375
2574.61173149973	0.409698486328125
2574.6217314997	0.40771484375
2574.63173149968	0.40576171875
2574.64173149965	0.40380859375
2574.65173149963	0.401824951171875
2574.6617314996	0.399871826171875
2574.67173149958	0.39794921875
2574.68173149955	0.396026611328125
2574.69173149953	0.394073486328125
2574.7017314995	0.39215087890625
2574.71173149948	0.3902587890625
2574.72173149945	0.38836669921875
2574.73173149943	0.386474609375
2574.7417314994	0.38458251953125
2574.75173149938	0.382720947265625
2574.76173149935	0.380828857421875
2574.77173149933	0.37896728515625
2574.7817314993	0.377105712890625
2574.79173149928	0.375274658203125
2574.80173149925	0.373443603515625
2574.81173149923	0.371612548828125
2574.8217314992	0.369781494140625
2574.83173149917	0.367950439453125
2574.84173149915	0.36614990234375
2574.85173149912	0.36431884765625
2574.8617314991	0.362518310546875
2574.87173149907	0.360748291015625
2574.88173149905	0.358978271484375
2574.89173149902	0.357208251953125
2574.901731499	0.355438232421875
2574.91173149897	0.353668212890625
2574.92173149895	0.3519287109375
2574.93173149892	0.350189208984375
2574.9417314989	0.34844970703125
2574.95173149887	0.346710205078125
2574.96173149885	0.344970703125
2574.97173149882	0.343292236328125
2574.9817314988	0.341583251953125
2574.99173149877	0.339874267578125
2575.00173149875	0.338165283203125
2575.01173149872	0.33648681640625
2575.02173149869	0.3348388671875
2575.03173149867	0.333160400390625
2575.04173149864	0.33148193359375
2575.05173149862	0.329833984375
2575.06173149859	0.328216552734375
2575.07173149857	0.326629638671875
2575.08173149854	0.32501220703125
2575.09173149852	0.323394775390625
2575.10173149849	0.32177734375
2575.11173149847	0.3201904296875
2575.12173149844	0.318634033203125
2575.13173149842	0.317047119140625
2575.14173149839	0.31549072265625
2575.15173149837	0.313934326171875
2575.16173149834	0.312408447265625
2575.17173149832	0.310882568359375
2575.18173149829	0.309356689453125
2575.19173149827	0.307830810546875
2575.20173149824	0.30633544921875
2575.21173149822	0.30487060546875
2575.22173149819	0.303375244140625
2575.23173149816	0.301910400390625
2575.24173149814	0.300445556640625
2575.25173149811	0.298980712890625
2575.26173149809	0.29754638671875
2575.27173149806	0.296142578125
2575.28173149804	0.294708251953125
2575.29173149801	0.29327392578125
2575.30173149799	0.2918701171875
2575.31173149796	0.29046630859375
2575.32173149794	0.2890625
2575.33173149791	0.287689208984375
2575.34173149789	0.286285400390625
2575.35173149786	0.284881591796875
2575.36173149784	0.283477783203125
2575.37173149781	0.2821044921875
2575.38173149779	0.280731201171875
2575.39173149776	0.279327392578125
2575.40173149774	0.2779541015625
2575.41173149771	0.27655029296875
2575.42173149768	0.275146484375
2575.43173149766	0.273712158203125
2575.44173149763	0.272308349609375
2575.45173149761	0.2708740234375
2575.46173149758	0.269439697265625
2575.47173149756	0.26800537109375
2575.48173149753	0.26654052734375
2575.49173149751	0.265106201171875
2575.50173149748	0.263641357421875
2575.51173149746	0.26214599609375
2575.52173149743	0.2606201171875
2575.53173149741	0.259124755859375
2575.54173149738	0.257598876953125
2575.55173149736	0.25604248046875
2575.56173149733	0.254486083984375
2575.57173149731	0.2529296875
2575.58173149728	0.2513427734375
2575.59173149726	0.249786376953125
2575.60173149723	0.248199462890625
2575.61173149721	0.24658203125
2575.62173149718	0.244964599609375
2575.63173149715	0.243316650390625
2575.64173149713	0.24169921875
2575.6517314971	0.24005126953125
2575.66173149708	0.2384033203125
2575.67173149705	0.236724853515625
2575.68173149703	0.235076904296875
2575.691731497	0.233428955078125
2575.70173149698	0.23175048828125
2575.71173149695	0.23004150390625
2575.72173149693	0.228363037109375
2575.7317314969	0.2266845703125
2575.74173149688	0.2249755859375
2575.75173149685	0.2232666015625
2575.76173149683	0.2215576171875
2575.7717314968	0.219818115234375
2575.78173149678	0.2181396484375
2575.79173149675	0.216400146484375
2575.80173149673	0.214691162109375
2575.8117314967	0.21295166015625
2575.82173149668	0.211212158203125
2575.83173149665	0.20947265625
2575.84173149662	0.207733154296875
2575.8517314966	0.20599365234375
2575.86173149657	0.204254150390625
2575.87173149655	0.202545166015625
2575.88173149652	0.200775146484375
2575.8917314965	0.199005126953125
2575.90173149647	0.197265625
2575.91173149645	0.19549560546875
2575.92173149642	0.1937255859375
2575.9317314964	0.191986083984375
2575.94173149637	0.190185546875
2575.95173149635	0.18841552734375
2575.96173149632	0.1866455078125
2575.9717314963	0.18487548828125
2575.98173149627	0.18310546875
2575.99173149625	0.181304931640625
2576.00173149622	0.179534912109375
2576.0117314962	0.177734375
2576.02173149617	0.175933837890625
2576.03173149614	0.17413330078125
2576.04173149612	0.17236328125
2576.05173149609	0.17059326171875
2576.06173149607	0.168792724609375
2576.07173149604	0.166961669921875
2576.08173149602	0.1651611328125
2576.09173149599	0.163360595703125
2576.10173149597	0.161529541015625
2576.11173149594	0.159698486328125
2576.12173149592	0.15789794921875
2576.13173149589	0.15606689453125
2576.14173149587	0.15423583984375
2576.15173149584	0.15240478515625
2576.16173149582	0.15057373046875
2576.17173149579	0.14874267578125
2576.18173149577	0.146881103515625
2576.19173149574	0.145050048828125
2576.20173149572	0.1431884765625
2576.21173149569	0.141326904296875
2576.22173149567	0.139495849609375
2576.23173149564	0.13763427734375
2576.24173149561	0.1357421875
2576.25173149559	0.133880615234375
2576.26173149556	0.13201904296875
2576.27173149554	0.130126953125
2576.28173149551	0.12823486328125
2576.29173149549	0.1263427734375
2576.30173149546	0.124481201171875
2576.31173149544	0.122589111328125
2576.32173149541	0.120697021484375
2576.33173149539	0.1187744140625
2576.34173149536	0.11688232421875
2576.35173149534	0.114990234375
2576.36173149531	0.113067626953125
2576.37173149529	0.11114501953125
2576.38173149526	0.1092529296875
2576.39173149524	0.10736083984375
2576.40173149521	0.10540771484375
2576.41173149519	0.103485107421875
2576.42173149516	0.1015625
2576.43173149513	0.099639892578125
2576.44173149511	0.09771728515625
2576.45173149508	0.09576416015625
2576.46173149506	0.093841552734375
2576.47173149503	0.0919189453125
2576.48173149501	0.089996337890625
2576.49173149498	0.088043212890625
2576.50173149496	0.086090087890625
2576.51173149493	0.08416748046875
2576.52173149491	0.08221435546875
2576.53173149488	0.08026123046875
2576.54173149486	0.078338623046875
2576.55173149483	0.076446533203125
2576.56173149481	0.074493408203125
2576.57173149478	0.072540283203125
2576.58173149476	0.070587158203125
2576.59173149473	0.06866455078125
2576.60173149471	0.06671142578125
2576.61173149468	0.064788818359375
2576.62173149466	0.062835693359375
2576.63173149463	0.0609130859375
2576.6417314946	0.0589599609375
2576.65173149458	0.0570068359375
2576.66173149455	0.055084228515625
2576.67173149453	0.053131103515625
2576.6817314945	0.051177978515625
2576.69173149448	0.049224853515625
2576.70173149445	0.0472930908203125
2576.71173149443	0.04534912109375
2576.7217314944	0.043402099609375
2576.73173149438	0.041461181640625
2576.74173149435	0.0395172119140625
2576.75173149433	0.0375701904296875
2576.7617314943	0.0356231689453125
2576.77173149428	0.0336761474609375
2576.78173149425	0.0317291259765625
2576.79173149423	0.0297821044921875
2576.8017314942	0.0278350830078125
2576.81173149418	0.02589111328125
2576.82173149415	0.023944091796875
2576.83173149413	0.0220001220703125
2576.8417314941	0.02005615234375
2576.85173149407	0.0181121826171875
2576.86173149405	0.016168212890625
2576.87173149402	0.0142242431640625
2576.881731494	0.012286376953125
2576.89173149397	0.010345458984375
2576.90173149395	0.00841064453125
2576.91173149392	0.00647888183593751
2576.9217314939	0.00454101562500001
2576.93173149387	0.0026123046875
2576.94173149385	0.000683593750000003
2576.95173149382	-0.00124206542968749
2576.9617314938	-0.00316467285156249
2576.97173149377	-0.00508728027343749
2576.98173149375	-0.0070037841796875
