Time (s)	WE(1).Potential (V)
2329.60676011831	0.75958251953125
2329.61676011828	0.75897216796875
2329.62676011826	0.75836181640625
2329.63676011823	0.75775146484375
2329.64676011821	0.7574462890625
2329.65676011818	0.7568359375
2329.66676011816	0.7562255859375
2329.67676011813	0.75592041015625
2329.68676011811	0.75531005859375
2329.69676011808	0.75469970703125
2329.70676011806	0.75408935546875
2329.71676011803	0.7537841796875
2329.72676011801	0.753173828125
2329.73676011798	0.7525634765625
2329.74676011796	0.751953125
2329.75676011793	0.75164794921875
2329.7667601179	0.75103759765625
2329.77676011788	0.750732421875
2329.78676011785	0.7501220703125
2329.79676011783	0.74951171875
2329.8067601178	0.7489013671875
2329.81676011778	0.74859619140625
2329.82676011775	0.74798583984375
2329.83676011773	0.74737548828125
2329.8467601177	0.7470703125
2329.85676011768	0.7464599609375
2329.86676011765	0.745849609375
2329.87676011763	0.74554443359375
2329.8867601176	0.74493408203125
2329.89676011758	0.74432373046875
2329.90676011755	0.7440185546875
2329.91676011753	0.743408203125
2329.9267601175	0.7427978515625
2329.93676011748	0.74249267578125
2329.94676011745	0.74188232421875
2329.95676011742	0.74127197265625
2329.9667601174	0.740966796875
2329.97676011737	0.7403564453125
2329.98676011735	0.73974609375
2329.99676011732	0.73944091796875
2330.0067601173	0.73883056640625
2330.01676011727	0.73822021484375
2330.02676011725	0.7379150390625
2330.03676011722	0.7373046875
2330.0467601172	0.7366943359375
2330.05676011717	0.73638916015625
2330.06676011715	0.73577880859375
2330.07676011712	0.73516845703125
2330.0867601171	0.73486328125
2330.09676011707	0.7342529296875
2330.10676011705	0.73394775390625
2330.11676011702	0.73333740234375
2330.126760117	0.73272705078125
2330.13676011697	0.73211669921875
2330.14676011695	0.7318115234375
2330.15676011692	0.731201171875
2330.16676011689	0.73089599609375
2330.17676011687	0.73028564453125
2330.18676011684	0.72967529296875
2330.19676011682	0.7293701171875
2330.20676011679	0.728759765625
2330.21676011677	0.7281494140625
2330.22676011674	0.72784423828125
2330.23676011672	0.72723388671875
2330.24676011669	0.7269287109375
2330.25676011667	0.726318359375
2330.26676011664	0.7257080078125
2330.27676011662	0.72540283203125
2330.28676011659	0.72479248046875
2330.29676011657	0.72418212890625
2330.30676011654	0.723876953125
2330.31676011652	0.7232666015625
2330.32676011649	0.72296142578125
2330.33676011647	0.72235107421875
2330.34676011644	0.72174072265625
2330.35676011641	0.721435546875
2330.36676011639	0.7208251953125
2330.37676011636	0.72052001953125
2330.38676011634	0.71990966796875
2330.39676011631	0.71929931640625
2330.40676011629	0.718994140625
2330.41676011626	0.7183837890625
2330.42676011624	0.7177734375
2330.43676011621	0.71746826171875
2330.44676011619	0.71685791015625
2330.45676011616	0.716552734375
2330.46676011614	0.7159423828125
2330.47676011611	0.71533203125
2330.48676011609	0.71502685546875
2330.49676011606	0.71441650390625
2330.50676011604	0.714111328125
2330.51676011601	0.7135009765625
2330.52676011599	0.712890625
2330.53676011596	0.71258544921875
2330.54676011594	0.71197509765625
2330.55676011591	0.711669921875
2330.56676011588	0.7110595703125
2330.57676011586	0.71044921875
2330.58676011583	0.71014404296875
2330.59676011581	0.70953369140625
2330.60676011578	0.709228515625
2330.61676011576	0.7086181640625
2330.62676011573	0.70831298828125
2330.63676011571	0.70770263671875
2330.64676011568	0.70709228515625
2330.65676011566	0.706787109375
2330.66676011563	0.7061767578125
2330.67676011561	0.70587158203125
2330.68676011558	0.70526123046875
2330.69676011556	0.70465087890625
2330.70676011553	0.704345703125
2330.71676011551	0.7037353515625
2330.72676011548	0.70343017578125
2330.73676011546	0.70281982421875
2330.74676011543	0.7025146484375
2330.75676011541	0.701904296875
2330.76676011538	0.70159912109375
2330.77676011535	0.70098876953125
2330.78676011533	0.70037841796875
2330.7967601153	0.7000732421875
2330.80676011528	0.699462890625
2330.81676011525	0.69915771484375
2330.82676011523	0.69854736328125
2330.8367601152	0.6982421875
2330.84676011518	0.6976318359375
2330.85676011515	0.697021484375
2330.86676011513	0.69671630859375
2330.8767601151	0.69610595703125
2330.88676011508	0.69580078125
2330.89676011505	0.6951904296875
2330.90676011503	0.69488525390625
2330.916760115	0.69427490234375
2330.92676011498	0.6939697265625
2330.93676011495	0.693359375
2330.94676011493	0.6927490234375
2330.9567601149	0.69244384765625
2330.96676011487	0.69183349609375
2330.97676011485	0.6915283203125
2330.98676011482	0.69091796875
2330.9967601148	0.6903076171875
2331.00676011477	0.69000244140625
2331.01676011475	0.68939208984375
2331.02676011472	0.6890869140625
2331.0367601147	0.6884765625
2331.04676011467	0.68817138671875
2331.05676011465	0.68756103515625
2331.06676011462	0.687255859375
2331.0767601146	0.6866455078125
2331.08676011457	0.68603515625
2331.09676011455	0.68572998046875
2331.10676011452	0.68511962890625
2331.1167601145	0.684814453125
2331.12676011447	0.6842041015625
2331.13676011445	0.68389892578125
2331.14676011442	0.68328857421875
2331.1567601144	0.68267822265625
2331.16676011437	0.682373046875
2331.17676011434	0.6817626953125
2331.18676011432	0.68145751953125
2331.19676011429	0.68084716796875
2331.20676011427	0.6805419921875
2331.21676011424	0.679931640625
2331.22676011422	0.67962646484375
2331.23676011419	0.67901611328125
2331.24676011417	0.67840576171875
2331.25676011414	0.6781005859375
2331.26676011412	0.67779541015625
2331.27676011409	0.67718505859375
2331.28676011407	0.67657470703125
2331.29676011404	0.67626953125
2331.30676011402	0.6756591796875
2331.31676011399	0.67535400390625
2331.32676011397	0.67474365234375
2331.33676011394	0.6744384765625
2331.34676011392	0.673828125
2331.35676011389	0.67352294921875
2331.36676011386	0.67291259765625
2331.37676011384	0.67230224609375
2331.38676011381	0.6719970703125
2331.39676011379	0.67138671875
2331.40676011376	0.67108154296875
2331.41676011374	0.67047119140625
2331.42676011371	0.670166015625
2331.43676011369	0.6695556640625
2331.44676011366	0.66925048828125
2331.45676011364	0.66864013671875
2331.46676011361	0.6683349609375
2331.47676011359	0.667724609375
2331.48676011356	0.6671142578125
2331.49676011354	0.66680908203125
2331.50676011351	0.66619873046875
2331.51676011349	0.6658935546875
2331.52676011346	0.665283203125
2331.53676011344	0.66497802734375
2331.54676011341	0.66436767578125
2331.55676011339	0.6640625
2331.56676011336	0.6634521484375
2331.57676011333	0.66314697265625
2331.58676011331	0.66253662109375
2331.59676011328	0.6622314453125
2331.60676011326	0.66162109375
2331.61676011323	0.6610107421875
2331.62676011321	0.66070556640625
2331.63676011318	0.66009521484375
2331.64676011316	0.6597900390625
2331.65676011313	0.6591796875
2331.66676011311	0.65887451171875
2331.67676011308	0.65826416015625
2331.68676011306	0.657958984375
2331.69676011303	0.6573486328125
2331.70676011301	0.65704345703125
2331.71676011298	0.65643310546875
2331.72676011296	0.6561279296875
2331.73676011293	0.655517578125
2331.74676011291	0.65521240234375
2331.75676011288	0.65460205078125
2331.76676011286	0.654296875
2331.77676011283	0.6536865234375
2331.7867601128	0.65338134765625
2331.79676011278	0.65277099609375
2331.80676011275	0.65216064453125
2331.81676011273	0.65185546875
2331.8267601127	0.65155029296875
2331.83676011268	0.65093994140625
2331.84676011265	0.650634765625
2331.85676011263	0.6500244140625
2331.8667601126	0.6494140625
2331.87676011258	0.64910888671875
2331.88676011255	0.6488037109375
2331.89676011253	0.648193359375
2331.9067601125	0.6475830078125
2331.91676011248	0.64727783203125
2331.92676011245	0.64666748046875
2331.93676011243	0.6463623046875
2331.9467601124	0.645751953125
2331.95676011238	0.64544677734375
2331.96676011235	0.64483642578125
2331.97676011232	0.64453125
2331.9867601123	0.6439208984375
2331.99676011227	0.64361572265625
2332.00676011225	0.64300537109375
2332.01676011222	0.6427001953125
2332.0267601122	0.64208984375
2332.03676011217	0.64178466796875
2332.04676011215	0.64117431640625
2332.05676011212	0.640869140625
2332.0667601121	0.6402587890625
2332.07676011207	0.63995361328125
2332.08676011205	0.63934326171875
2332.09676011202	0.6390380859375
2332.106760112	0.638427734375
2332.11676011197	0.63812255859375
2332.12676011195	0.63751220703125
2332.13676011192	0.63720703125
2332.1467601119	0.6365966796875
2332.15676011187	0.63629150390625
2332.16676011185	0.63568115234375
2332.17676011182	0.6353759765625
2332.18676011179	0.634765625
2332.19676011177	0.63446044921875
2332.20676011174	0.63385009765625
2332.21676011172	0.633544921875
2332.22676011169	0.6329345703125
2332.23676011167	0.63262939453125
2332.24676011164	0.63201904296875
2332.25676011162	0.6317138671875
2332.26676011159	0.631103515625
2332.27676011157	0.63079833984375
2332.28676011154	0.63018798828125
2332.29676011152	0.6298828125
2332.30676011149	0.6292724609375
2332.31676011147	0.62896728515625
2332.32676011144	0.62835693359375
2332.33676011142	0.6280517578125
2332.34676011139	0.62744140625
2332.35676011137	0.62713623046875
2332.36676011134	0.62652587890625
2332.37676011131	0.626220703125
2332.38676011129	0.6256103515625
2332.39676011126	0.62530517578125
2332.40676011124	0.625
2332.41676011121	0.6243896484375
2332.42676011119	0.62408447265625
2332.43676011116	0.62347412109375
2332.44676011114	0.6231689453125
2332.45676011111	0.62255859375
2332.46676011109	0.62225341796875
2332.47676011106	0.62164306640625
2332.48676011104	0.621337890625
2332.49676011101	0.6207275390625
2332.50676011099	0.62042236328125
2332.51676011096	0.61981201171875
2332.52676011094	0.6195068359375
2332.53676011091	0.61920166015625
2332.54676011089	0.61859130859375
2332.55676011086	0.6182861328125
2332.56676011084	0.61767578125
2332.57676011081	0.61737060546875
2332.58676011078	0.61676025390625
2332.59676011076	0.61614990234375
2332.60676011073	0.6158447265625
2332.61676011071	0.61553955078125
2332.62676011068	0.61492919921875
2332.63676011066	0.6146240234375
2332.64676011063	0.614013671875
2332.65676011061	0.61370849609375
2332.66676011058	0.61309814453125
2332.67676011056	0.61279296875
2332.68676011053	0.6121826171875
2332.69676011051	0.61187744140625
2332.70676011048	0.61126708984375
2332.71676011046	0.6109619140625
2332.72676011043	0.6103515625
2332.73676011041	0.61004638671875
2332.74676011038	0.60943603515625
2332.75676011036	0.609130859375
2332.76676011033	0.6085205078125
2332.77676011031	0.60821533203125
2332.78676011028	0.60760498046875
2332.79676011025	0.6072998046875
2332.80676011023	0.606689453125
2332.8167601102	0.60638427734375
2332.82676011018	0.6060791015625
2332.83676011015	0.60546875
2332.84676011013	0.60516357421875
2332.8567601101	0.60455322265625
2332.86676011008	0.604248046875
2332.87676011005	0.6036376953125
2332.88676011003	0.60333251953125
2332.89676011	0.60272216796875
2332.90676010998	0.6024169921875
2332.91676010995	0.601806640625
2332.92676010993	0.60150146484375
2332.9367601099	0.60089111328125
2332.94676010988	0.6005859375
2332.95676010985	0.5999755859375
2332.96676010983	0.59967041015625
2332.9767601098	0.59906005859375
2332.98676010977	0.5987548828125
2332.99676010975	0.59844970703125
2333.00676010972	0.59783935546875
2333.0167601097	0.5975341796875
2333.02676010967	0.596923828125
2333.03676010965	0.59661865234375
2333.04676010962	0.59600830078125
2333.0567601096	0.595703125
2333.06676010957	0.5950927734375
2333.07676010955	0.59478759765625
2333.08676010952	0.59417724609375
2333.0967601095	0.5938720703125
2333.10676010947	0.59326171875
2333.11676010945	0.59295654296875
2333.12676010942	0.59234619140625
2333.1367601094	0.592041015625
2333.14676010937	0.59173583984375
2333.15676010935	0.59112548828125
2333.16676010932	0.5908203125
2333.1767601093	0.5902099609375
2333.18676010927	0.58990478515625
2333.19676010924	0.58929443359375
2333.20676010922	0.5889892578125
2333.21676010919	0.58837890625
2333.22676010917	0.58807373046875
2333.23676010914	0.58746337890625
2333.24676010912	0.587158203125
2333.25676010909	0.5865478515625
2333.26676010907	0.58624267578125
2333.27676010904	0.5859375
2333.28676010902	0.5853271484375
2333.29676010899	0.58502197265625
2333.30676010897	0.58441162109375
2333.31676010894	0.5841064453125
2333.32676010892	0.58349609375
2333.33676010889	0.58319091796875
2333.34676010887	0.58258056640625
2333.35676010884	0.582275390625
2333.36676010882	0.5816650390625
2333.37676010879	0.58135986328125
2333.38676010876	0.5810546875
2333.39676010874	0.5804443359375
2333.40676010871	0.58013916015625
2333.41676010869	0.57952880859375
2333.42676010866	0.5792236328125
2333.43676010864	0.57861328125
2333.44676010861	0.57830810546875
2333.45676010859	0.57769775390625
2333.46676010856	0.577392578125
2333.47676010854	0.57708740234375
2333.48676010851	0.57647705078125
2333.49676010849	0.576171875
2333.50676010846	0.5755615234375
2333.51676010844	0.57525634765625
2333.52676010841	0.57464599609375
2333.53676010839	0.5743408203125
2333.54676010836	0.57373046875
2333.55676010834	0.57342529296875
2333.56676010831	0.57281494140625
2333.57676010829	0.572509765625
2333.58676010826	0.57220458984375
2333.59676010823	0.57159423828125
2333.60676010821	0.5712890625
2333.61676010818	0.5706787109375
2333.62676010816	0.57037353515625
2333.63676010813	0.570068359375
2333.64676010811	0.5694580078125
2333.65676010808	0.56915283203125
2333.66676010806	0.56854248046875
2333.67676010803	0.5682373046875
2333.68676010801	0.567626953125
2333.69676010798	0.56732177734375
2333.70676010796	0.56671142578125
2333.71676010793	0.56640625
2333.72676010791	0.56610107421875
2333.73676010788	0.56549072265625
2333.74676010786	0.565185546875
2333.75676010783	0.5645751953125
2333.76676010781	0.56427001953125
2333.77676010778	0.56365966796875
2333.78676010776	0.5633544921875
2333.79676010773	0.56304931640625
2333.8067601077	0.56243896484375
2333.81676010768	0.5621337890625
2333.82676010765	0.5615234375
2333.83676010763	0.56121826171875
2333.8467601076	0.56060791015625
2333.85676010758	0.560302734375
2333.86676010755	0.5596923828125
2333.87676010753	0.55938720703125
2333.8867601075	0.55908203125
2333.89676010748	0.5584716796875
2333.90676010745	0.55816650390625
2333.91676010743	0.557861328125
2333.9267601074	0.5572509765625
2333.93676010738	0.55694580078125
2333.94676010735	0.55633544921875
2333.95676010733	0.5560302734375
2333.9667601073	0.555419921875
2333.97676010728	0.55511474609375
2333.98676010725	0.5548095703125
2333.99676010722	0.55419921875
2334.0067601072	0.55389404296875
2334.01676010717	0.55328369140625
2334.02676010715	0.552978515625
2334.03676010712	0.5523681640625
2334.0467601071	0.55206298828125
2334.05676010707	0.5517578125
2334.06676010705	0.5511474609375
2334.07676010702	0.55084228515625
2334.086760107	0.55023193359375
2334.09676010697	0.5499267578125
2334.10676010695	0.54962158203125
2334.11676010692	0.54901123046875
2334.1267601069	0.5487060546875
2334.13676010687	0.548095703125
2334.14676010685	0.54779052734375
2334.15676010682	0.5474853515625
2334.1667601068	0.546875
2334.17676010677	0.54656982421875
2334.18676010675	0.5462646484375
2334.19676010672	0.54595947265625
2334.20676010669	0.54534912109375
2334.21676010667	0.5450439453125
2334.22676010664	0.54443359375
2334.23676010662	0.54412841796875
2334.24676010659	0.54351806640625
2334.25676010657	0.543212890625
2334.26676010654	0.5426025390625
2334.27676010652	0.54229736328125
2334.28676010649	0.5419921875
2334.29676010647	0.5413818359375
2334.30676010644	0.54107666015625
2334.31676010642	0.54046630859375
2334.32676010639	0.5401611328125
2334.33676010637	0.53985595703125
2334.34676010634	0.53924560546875
2334.35676010632	0.5389404296875
2334.36676010629	0.538330078125
2334.37676010627	0.53802490234375
2334.38676010624	0.5377197265625
2334.39676010621	0.537109375
2334.40676010619	0.53680419921875
2334.41676010616	0.5364990234375
2334.42676010614	0.535888671875
2334.43676010611	0.53558349609375
2334.44676010609	0.53497314453125
2334.45676010606	0.53466796875
2334.46676010604	0.5340576171875
2334.47676010601	0.53375244140625
2334.48676010599	0.533447265625
2334.49676010596	0.5328369140625
2334.50676010594	0.53253173828125
2334.51676010591	0.53192138671875
2334.52676010589	0.5316162109375
2334.53676010586	0.53131103515625
2334.54676010584	0.53070068359375
2334.55676010581	0.5303955078125
2334.56676010579	0.52978515625
2334.57676010576	0.52947998046875
2334.58676010574	0.5291748046875
2334.59676010571	0.528564453125
2334.60676010568	0.52825927734375
2334.61676010566	0.52764892578125
2334.62676010563	0.52734375
2334.63676010561	0.52703857421875
2334.64676010558	0.52642822265625
2334.65676010556	0.526123046875
2334.66676010553	0.5255126953125
2334.67676010551	0.52520751953125
2334.68676010548	0.52490234375
2334.69676010546	0.5242919921875
2334.70676010543	0.52398681640625
2334.71676010541	0.523681640625
2334.72676010538	0.5230712890625
2334.73676010536	0.52276611328125
2334.74676010533	0.52215576171875
2334.75676010531	0.5218505859375
2334.76676010528	0.52154541015625
2334.77676010526	0.52093505859375
2334.78676010523	0.5206298828125
2334.79676010521	0.52001953125
2334.80676010518	0.51971435546875
2334.81676010515	0.5194091796875
2334.82676010513	0.518798828125
2334.8367601051	0.51849365234375
2334.84676010508	0.5181884765625
2334.85676010505	0.517578125
2334.86676010503	0.51727294921875
2334.876760105	0.51666259765625
2334.88676010498	0.516357421875
2334.89676010495	0.51605224609375
2334.90676010493	0.51544189453125
2334.9167601049	0.51513671875
2334.92676010488	0.5145263671875
2334.93676010485	0.51422119140625
2334.94676010483	0.513916015625
2334.9567601048	0.5133056640625
2334.96676010478	0.51300048828125
2334.97676010475	0.5126953125
2334.98676010473	0.5120849609375
2334.9967601047	0.51177978515625
2335.00676010467	0.51116943359375
2335.01676010465	0.5108642578125
2335.02676010462	0.51055908203125
2335.0367601046	0.50994873046875
2335.04676010457	0.5096435546875
2335.05676010455	0.50933837890625
2335.06676010452	0.50872802734375
2335.0767601045	0.5084228515625
2335.08676010447	0.5078125
2335.09676010445	0.50750732421875
2335.10676010442	0.5072021484375
2335.1167601044	0.506591796875
2335.12676010437	0.50628662109375
2335.13676010435	0.50567626953125
2335.14676010432	0.50537109375
2335.1567601043	0.50506591796875
2335.16676010427	0.50445556640625
2335.17676010425	0.504150390625
2335.18676010422	0.5035400390625
2335.1967601042	0.50323486328125
2335.20676010417	0.5029296875
2335.21676010414	0.5023193359375
2335.22676010412	0.50201416015625
2335.23676010409	0.501708984375
2335.24676010407	0.5010986328125
2335.25676010404	0.50079345703125
2335.26676010402	0.50048828125
2335.27676010399	0.4998779296875
2335.28676010397	0.499603271484375
2335.29676010394	0.499176025390625
2335.30676010392	0.498779296875
2335.31676010389	0.49835205078125
2335.32676010387	0.4979248046875
2335.33676010384	0.497528076171875
2335.34676010382	0.497100830078125
2335.35676010379	0.496673583984375
2335.36676010377	0.49627685546875
2335.37676010374	0.495849609375
2335.38676010372	0.49542236328125
2335.39676010369	0.495025634765625
2335.40676010366	0.494598388671875
2335.41676010364	0.494171142578125
2335.42676010361	0.4937744140625
2335.43676010359	0.49334716796875
2335.44676010356	0.492950439453125
2335.45676010354	0.492523193359375
2335.46676010351	0.49212646484375
2335.47676010349	0.49169921875
