Time (s)	WE(1).Potential (V)
2428.53683286853	0.7366943359375
2428.54683286851	0.73577880859375
2428.55683286848	0.73516845703125
2428.56683286846	0.7342529296875
2428.57683286843	0.733642578125
2428.58683286841	0.73272705078125
2428.59683286838	0.73211669921875
2428.60683286836	0.731201171875
2428.61683286833	0.7305908203125
2428.62683286831	0.72967529296875
2428.63683286828	0.72906494140625
2428.64683286826	0.72845458984375
2428.65683286823	0.7275390625
2428.66683286821	0.7269287109375
2428.67683286818	0.72601318359375
2428.68683286816	0.72540283203125
2428.69683286813	0.7244873046875
2428.7068328681	0.723876953125
2428.71683286808	0.72296142578125
2428.72683286805	0.72235107421875
2428.73683286803	0.721435546875
2428.746832868	0.7208251953125
2428.75683286798	0.71990966796875
2428.76683286795	0.71929931640625
2428.77683286793	0.71868896484375
2428.7868328679	0.7177734375
2428.79683286788	0.7171630859375
2428.80683286785	0.71624755859375
2428.81683286783	0.71563720703125
2428.8268328678	0.7147216796875
2428.83683286778	0.714111328125
2428.84683286775	0.71319580078125
2428.85683286773	0.71258544921875
2428.8668328677	0.71197509765625
2428.87683286768	0.7110595703125
2428.88683286765	0.71044921875
2428.89683286763	0.70953369140625
2428.9068328676	0.70892333984375
2428.91683286757	0.7080078125
2428.92683286755	0.7073974609375
2428.93683286752	0.706787109375
2428.9468328675	0.70587158203125
2428.95683286747	0.70526123046875
2428.96683286745	0.704345703125
2428.97683286742	0.7037353515625
2428.9868328674	0.703125
2428.99683286737	0.7025146484375
2429.00683286735	0.70159912109375
2429.01683286732	0.70098876953125
2429.0268328673	0.7000732421875
2429.03683286727	0.699462890625
2429.04683286725	0.69854736328125
2429.05683286722	0.69793701171875
2429.0668328672	0.69732666015625
2429.07683286717	0.6964111328125
2429.08683286715	0.69580078125
2429.09683286712	0.69488525390625
2429.10683286709	0.69427490234375
2429.11683286707	0.693359375
2429.12683286704	0.6927490234375
2429.13683286702	0.692138671875
2429.14683286699	0.69122314453125
2429.15683286697	0.69061279296875
2429.16683286694	0.69000244140625
2429.17683286692	0.6890869140625
2429.18683286689	0.6884765625
2429.19683286687	0.68756103515625
2429.20683286684	0.68695068359375
2429.21683286682	0.68603515625
2429.22683286679	0.6854248046875
2429.23683286677	0.684814453125
2429.24683286674	0.68389892578125
2429.25683286672	0.68328857421875
2429.26683286669	0.682373046875
2429.27683286667	0.6817626953125
2429.28683286664	0.68115234375
2429.29683286662	0.68023681640625
2429.30683286659	0.67962646484375
2429.31683286656	0.6787109375
2429.32683286654	0.6781005859375
2429.33683286651	0.677490234375
2429.34683286649	0.67657470703125
2429.35683286646	0.67596435546875
2429.36683286644	0.67535400390625
2429.37683286641	0.6744384765625
2429.38683286639	0.673828125
2429.39683286636	0.6732177734375
2429.40683286634	0.67230224609375
2429.41683286631	0.67169189453125
2429.42683286629	0.6707763671875
2429.43683286626	0.670166015625
2429.44683286624	0.6695556640625
2429.45683286621	0.66864013671875
2429.46683286619	0.66802978515625
2429.47683286616	0.66741943359375
2429.48683286614	0.66650390625
2429.49683286611	0.6658935546875
2429.50683286609	0.665283203125
2429.51683286606	0.66436767578125
2429.52683286603	0.66375732421875
2429.53683286601	0.662841796875
2429.54683286598	0.6622314453125
2429.55683286596	0.66162109375
2429.56683286593	0.66070556640625
2429.57683286591	0.66009521484375
2429.58683286588	0.65948486328125
2429.59683286586	0.6585693359375
2429.60683286583	0.657958984375
2429.61683286581	0.65704345703125
2429.62683286578	0.65643310546875
2429.63683286576	0.65582275390625
2429.64683286573	0.6549072265625
2429.65683286571	0.654296875
2429.66683286568	0.6536865234375
2429.67683286566	0.65277099609375
2429.68683286563	0.65216064453125
2429.69683286561	0.65155029296875
2429.70683286558	0.650634765625
2429.71683286555	0.6500244140625
2429.72683286553	0.6494140625
2429.7368328655	0.64849853515625
2429.74683286548	0.64788818359375
2429.75683286545	0.64727783203125
2429.76683286543	0.6463623046875
2429.7768328654	0.645751953125
2429.78683286538	0.6451416015625
2429.79683286535	0.64422607421875
2429.80683286533	0.64361572265625
2429.8168328653	0.64300537109375
2429.82683286528	0.64208984375
2429.83683286525	0.6414794921875
2429.84683286523	0.640869140625
2429.8568328652	0.63995361328125
2429.86683286518	0.63934326171875
2429.87683286515	0.63873291015625
2429.88683286513	0.6378173828125
2429.8968328651	0.63720703125
2429.90683286508	0.6365966796875
2429.91683286505	0.63568115234375
2429.92683286502	0.63507080078125
2429.936832865	0.63446044921875
2429.94683286497	0.633544921875
2429.95683286495	0.6329345703125
2429.96683286492	0.63232421875
2429.9768328649	0.6317138671875
2429.98683286487	0.63079833984375
2429.99683286485	0.63018798828125
2430.00683286482	0.62957763671875
2430.0168328648	0.628662109375
2430.02683286477	0.6280517578125
2430.03683286475	0.62744140625
2430.04683286472	0.62652587890625
2430.0568328647	0.62591552734375
2430.06683286467	0.62530517578125
2430.07683286465	0.62469482421875
2430.08683286462	0.62408447265625
2430.0968328646	0.6231689453125
2430.10683286457	0.62255859375
2430.11683286454	0.6219482421875
2430.12683286452	0.621337890625
2430.13683286449	0.62042236328125
2430.14683286447	0.61981201171875
2430.15683286444	0.61920166015625
2430.16683286442	0.6182861328125
2430.17683286439	0.61767578125
2430.18683286437	0.6170654296875
2430.19683286434	0.61614990234375
2430.20683286432	0.61553955078125
2430.21683286429	0.61492919921875
2430.22683286427	0.61431884765625
2430.23683286424	0.6134033203125
2430.24683286422	0.61279296875
2430.25683286419	0.6121826171875
2430.26683286417	0.61126708984375
2430.27683286414	0.61065673828125
2430.28683286412	0.61004638671875
2430.29683286409	0.60943603515625
2430.30683286407	0.6085205078125
2430.31683286404	0.60791015625
2430.32683286401	0.6072998046875
2430.33683286399	0.60638427734375
2430.34683286396	0.60577392578125
2430.35683286394	0.60516357421875
2430.36683286391	0.604248046875
2430.37683286389	0.6036376953125
2430.38683286386	0.60302734375
2430.39683286384	0.6024169921875
2430.40683286381	0.60150146484375
2430.41683286379	0.60089111328125
2430.42683286376	0.60028076171875
2430.43683286374	0.59967041015625
2430.44683286371	0.5987548828125
2430.45683286369	0.59814453125
2430.46683286366	0.5975341796875
2430.47683286364	0.596923828125
2430.48683286361	0.59600830078125
2430.49683286359	0.59539794921875
2430.50683286356	0.59478759765625
2430.51683286354	0.5938720703125
2430.52683286351	0.59326171875
2430.53683286348	0.5926513671875
2430.54683286346	0.592041015625
2430.55683286343	0.59112548828125
2430.56683286341	0.59051513671875
2430.57683286338	0.58990478515625
2430.58683286336	0.58929443359375
2430.59683286333	0.58837890625
2430.60683286331	0.5877685546875
2430.61683286328	0.587158203125
2430.62683286326	0.5865478515625
2430.63683286323	0.58563232421875
2430.64683286321	0.58502197265625
2430.65683286318	0.58441162109375
2430.66683286316	0.58349609375
2430.67683286313	0.5828857421875
2430.68683286311	0.582275390625
2430.69683286308	0.5816650390625
2430.70683286306	0.58074951171875
2430.71683286303	0.58013916015625
2430.726832863	0.57952880859375
2430.73683286298	0.57891845703125
2430.74683286295	0.57830810546875
2430.75683286293	0.577392578125
2430.7668328629	0.5767822265625
2430.77683286288	0.576171875
2430.78683286285	0.5755615234375
2430.79683286283	0.57464599609375
2430.8068328628	0.57403564453125
2430.81683286278	0.57342529296875
2430.82683286275	0.57281494140625
2430.83683286273	0.57220458984375
2430.8468328627	0.5712890625
2430.85683286268	0.5706787109375
2430.86683286265	0.570068359375
2430.87683286263	0.5694580078125
2430.8868328626	0.56854248046875
2430.89683286258	0.56793212890625
2430.90683286255	0.56732177734375
2430.91683286253	0.56671142578125
2430.9268328625	0.56610107421875
2430.93683286247	0.565185546875
2430.94683286245	0.5645751953125
2430.95683286242	0.56396484375
2430.9668328624	0.5633544921875
2430.97683286237	0.562744140625
2430.98683286235	0.56182861328125
2430.99683286232	0.56121826171875
2431.0068328623	0.56060791015625
2431.01683286227	0.55999755859375
2431.02683286225	0.55908203125
2431.03683286222	0.5584716796875
2431.0468328622	0.557861328125
2431.05683286217	0.5572509765625
2431.06683286215	0.556640625
2431.07683286212	0.55572509765625
2431.0868328621	0.55511474609375
2431.09683286207	0.55450439453125
2431.10683286205	0.55389404296875
2431.11683286202	0.55328369140625
2431.12683286199	0.55267333984375
2431.13683286197	0.5517578125
2431.14683286194	0.5511474609375
2431.15683286192	0.550537109375
2431.16683286189	0.5499267578125
2431.17683286187	0.54931640625
2431.18683286184	0.54840087890625
2431.19683286182	0.54779052734375
2431.20683286179	0.54718017578125
2431.21683286177	0.54656982421875
2431.22683286174	0.54595947265625
2431.23683286172	0.54534912109375
2431.24683286169	0.54473876953125
2431.25683286167	0.54412841796875
2431.26683286164	0.54351806640625
2431.27683286162	0.5426025390625
2431.28683286159	0.5419921875
2431.29683286157	0.5413818359375
2431.30683286154	0.540771484375
2431.31683286152	0.5401611328125
2431.32683286149	0.53924560546875
2431.33683286146	0.53863525390625
2431.34683286144	0.53802490234375
2431.35683286141	0.53741455078125
2431.36683286139	0.53680419921875
2431.37683286136	0.53619384765625
2431.38683286134	0.5352783203125
2431.39683286131	0.53466796875
2431.40683286129	0.5340576171875
2431.41683286126	0.533447265625
2431.42683286124	0.5328369140625
2431.43683286121	0.5322265625
2431.44683286119	0.53131103515625
2431.45683286116	0.53070068359375
2431.46683286114	0.53009033203125
2431.47683286111	0.52947998046875
2431.48683286109	0.52886962890625
2431.49683286106	0.52825927734375
2431.50683286104	0.52764892578125
2431.51683286101	0.5267333984375
2431.52683286098	0.526123046875
2431.53683286096	0.5255126953125
2431.54683286093	0.52490234375
2431.55683286091	0.5242919921875
2431.56683286088	0.523681640625
2431.57683286086	0.52276611328125
2431.58683286083	0.52215576171875
2431.59683286081	0.52154541015625
2431.60683286078	0.52093505859375
2431.61683286076	0.52032470703125
2431.62683286073	0.51971435546875
2431.63683286071	0.51910400390625
2431.64683286068	0.5181884765625
2431.65683286066	0.517578125
2431.66683286063	0.5169677734375
2431.67683286061	0.516357421875
2431.68683286058	0.5157470703125
2431.69683286056	0.51513671875
2431.70683286053	0.5145263671875
2431.71683286051	0.51361083984375
2431.72683286048	0.51300048828125
2431.73683286045	0.51239013671875
2431.74683286043	0.51177978515625
2431.7568328604	0.51116943359375
2431.76683286038	0.51055908203125
2431.77683286035	0.50994873046875
2431.78683286033	0.509033203125
2431.7968328603	0.5084228515625
2431.80683286028	0.5078125
2431.81683286025	0.5072021484375
2431.82683286023	0.506591796875
2431.8368328602	0.5059814453125
2431.84683286018	0.50537109375
2431.85683286015	0.5047607421875
2431.86683286013	0.50384521484375
2431.8768328601	0.50323486328125
2431.88683286008	0.50262451171875
2431.89683286005	0.50201416015625
2431.90683286003	0.50140380859375
2431.91683286	0.50079345703125
2431.92683285998	0.50018310546875
2431.93683285995	0.49951171875
2431.94683285992	0.498870849609375
2431.9568328599	0.49822998046875
2431.96683285987	0.497589111328125
2431.97683285985	0.4969482421875
2431.98683285982	0.496307373046875
2431.9968328598	0.495635986328125
2432.00683285977	0.4949951171875
2432.01683285975	0.494354248046875
2432.02683285972	0.49371337890625
2432.0368328597	0.493072509765625
2432.04683285967	0.492431640625
2432.05683285965	0.4918212890625
2432.06683285962	0.491180419921875
2432.0768328596	0.49053955078125
2432.08683285957	0.489898681640625
2432.09683285955	0.4892578125
2432.10683285952	0.488616943359375
2432.1168328595	0.48797607421875
2432.12683285947	0.487335205078125
2432.13683285944	0.4866943359375
2432.14683285942	0.486053466796875
2432.15683285939	0.48541259765625
2432.16683285937	0.48480224609375
2432.17683285934	0.48419189453125
2432.18683285932	0.483551025390625
2432.19683285929	0.482940673828125
2432.20683285927	0.4822998046875
2432.21683285924	0.481658935546875
2432.22683285922	0.48101806640625
2432.23683285919	0.48040771484375
2432.24683285917	0.479766845703125
2432.25683285914	0.4791259765625
2432.26683285912	0.478515625
2432.27683285909	0.477874755859375
2432.28683285907	0.47723388671875
2432.29683285904	0.47662353515625
2432.30683285902	0.47601318359375
2432.31683285899	0.475372314453125
2432.32683285897	0.4747314453125
2432.33683285894	0.47412109375
2432.34683285891	0.473480224609375
2432.35683285889	0.472869873046875
2432.36683285886	0.47222900390625
2432.37683285884	0.47161865234375
2432.38683285881	0.470977783203125
2432.39683285879	0.470367431640625
2432.40683285876	0.469757080078125
2432.41683285874	0.4691162109375
2432.42683285871	0.468536376953125
2432.43683285869	0.467926025390625
2432.44683285866	0.46728515625
2432.45683285864	0.4666748046875
2432.46683285861	0.466064453125
2432.47683285859	0.465423583984375
2432.48683285856	0.464813232421875
2432.49683285854	0.464202880859375
2432.50683285851	0.463592529296875
2432.51683285849	0.462982177734375
2432.52683285846	0.46234130859375
2432.53683285843	0.46173095703125
2432.54683285841	0.46112060546875
2432.55683285838	0.46051025390625
2432.56683285836	0.45989990234375
2432.57683285833	0.45928955078125
2432.58683285831	0.45867919921875
2432.59683285828	0.45806884765625
2432.60683285826	0.45745849609375
2432.61683285823	0.45684814453125
2432.62683285821	0.45623779296875
2432.63683285818	0.455657958984375
2432.64683285816	0.455047607421875
2432.65683285813	0.454437255859375
2432.66683285811	0.453826904296875
2432.67683285808	0.453216552734375
2432.68683285806	0.452667236328125
2432.69683285803	0.452056884765625
2432.70683285801	0.451446533203125
2432.71683285798	0.450836181640625
2432.72683285796	0.45025634765625
2432.73683285793	0.44964599609375
2432.7468328579	0.44903564453125
2432.75683285788	0.448455810546875
2432.76683285785	0.447845458984375
2432.77683285783	0.447235107421875
2432.7868328578	0.4466552734375
2432.79683285778	0.446044921875
2432.80683285775	0.445465087890625
2432.81683285773	0.44488525390625
2432.8268328577	0.44427490234375
2432.83683285768	0.443695068359375
2432.84683285765	0.443084716796875
2432.85683285763	0.4425048828125
2432.8668328576	0.441925048828125
2432.87683285758	0.441314697265625
2432.88683285755	0.44073486328125
2432.89683285753	0.440155029296875
2432.9068328575	0.439544677734375
2432.91683285748	0.43896484375
2432.92683285745	0.438385009765625
2432.93683285743	0.43780517578125
2432.9468328574	0.437225341796875
2432.95683285737	0.4366455078125
2432.96683285735	0.436065673828125
2432.97683285732	0.43548583984375
2432.9868328573	0.434906005859375
2432.99683285727	0.434326171875
2433.00683285725	0.433746337890625
2433.01683285722	0.43316650390625
2433.0268328572	0.432586669921875
2433.03683285717	0.4320068359375
2433.04683285715	0.431427001953125
2433.05683285712	0.43084716796875
2433.0668328571	0.430267333984375
2433.07683285707	0.429718017578125
2433.08683285705	0.42913818359375
2433.09683285702	0.428558349609375
2433.106832857	0.428009033203125
2433.11683285697	0.42742919921875
2433.12683285695	0.426849365234375
2433.13683285692	0.426300048828125
2433.14683285689	0.42572021484375
2433.15683285687	0.4251708984375
2433.16683285684	0.424591064453125
2433.17683285682	0.424041748046875
2433.18683285679	0.4234619140625
2433.19683285677	0.42291259765625
2433.20683285674	0.422332763671875
2433.21683285672	0.42181396484375
2433.22683285669	0.4212646484375
2433.23683285667	0.420684814453125
2433.24683285664	0.420135498046875
2433.25683285662	0.419586181640625
2433.26683285659	0.41900634765625
2433.27683285657	0.41845703125
2433.28683285654	0.41790771484375
2433.29683285652	0.4173583984375
2433.30683285649	0.41680908203125
2433.31683285647	0.416229248046875
2433.32683285644	0.415679931640625
2433.33683285642	0.415130615234375
2433.34683285639	0.414581298828125
2433.35683285636	0.414031982421875
2433.36683285634	0.41351318359375
2433.37683285631	0.4129638671875
2433.38683285629	0.41241455078125
2433.39683285626	0.411865234375
2433.40683285624	0.41131591796875
2433.41683285621	0.4107666015625
2433.42683285619	0.41021728515625
2433.43683285616	0.40966796875
2433.44683285614	0.40911865234375
2433.45683285611	0.4085693359375
2433.46683285609	0.408050537109375
2433.47683285606	0.407501220703125
2433.48683285604	0.406951904296875
2433.49683285601	0.40643310546875
2433.50683285599	0.405914306640625
2433.51683285596	0.405364990234375
2433.52683285594	0.404815673828125
2433.53683285591	0.404296875
2433.54683285588	0.40374755859375
2433.55683285586	0.403228759765625
2433.56683285583	0.402679443359375
2433.57683285581	0.40216064453125
2433.58683285578	0.401611328125
2433.59683285576	0.401092529296875
2433.60683285573	0.400543212890625
2433.61683285571	0.4000244140625
2433.62683285568	0.39947509765625
2433.63683285566	0.398956298828125
2433.64683285563	0.3984375
2433.65683285561	0.397918701171875
2433.66683285558	0.397369384765625
2433.67683285556	0.3968505859375
2433.68683285553	0.396331787109375
2433.69683285551	0.395782470703125
2433.70683285548	0.395263671875
2433.71683285546	0.394744873046875
2433.72683285543	0.39422607421875
2433.73683285541	0.3936767578125
2433.74683285538	0.393157958984375
2433.75683285535	0.39263916015625
2433.76683285533	0.392120361328125
2433.7768328553	0.3916015625
2433.78683285528	0.391082763671875
2433.79683285525	0.390594482421875
2433.80683285523	0.39007568359375
2433.8168328552	0.389556884765625
2433.82683285518	0.3890380859375
2433.83683285515	0.388519287109375
2433.84683285513	0.38800048828125
2433.8568328551	0.387481689453125
2433.86683285508	0.386962890625
2433.87683285505	0.386444091796875
2433.88683285503	0.38592529296875
2433.896832855	0.385406494140625
2433.90683285498	0.3848876953125
2433.91683285495	0.384368896484375
2433.92683285493	0.38385009765625
2433.9368328549	0.38336181640625
2433.94683285488	0.382843017578125
2433.95683285485	0.382354736328125
2433.96683285482	0.3818359375
2433.9768328548	0.381317138671875
2433.98683285477	0.38079833984375
2433.99683285475	0.380279541015625
2434.00683285472	0.379791259765625
2434.0168328547	0.3792724609375
2434.02683285467	0.378753662109375
2434.03683285465	0.378265380859375
2434.04683285462	0.37774658203125
2434.0568328546	0.37725830078125
2434.06683285457	0.376739501953125
2434.07683285455	0.376220703125
2434.08683285452	0.375732421875
2434.0968328545	0.375213623046875
2434.10683285447	0.374755859375
2434.11683285445	0.374237060546875
2434.12683285442	0.373748779296875
2434.1368328544	0.37322998046875
2434.14683285437	0.37274169921875
2434.15683285434	0.372222900390625
2434.16683285432	0.371734619140625
2434.17683285429	0.3712158203125
2434.18683285427	0.3707275390625
2434.19683285424	0.370208740234375
2434.20683285422	0.369720458984375
2434.21683285419	0.369232177734375
2434.22683285417	0.36871337890625
2434.23683285414	0.36822509765625
2434.24683285412	0.36773681640625
2434.25683285409	0.36724853515625
2434.26683285407	0.36676025390625
2434.27683285404	0.366241455078125
2434.28683285402	0.365753173828125
2434.29683285399	0.365264892578125
2434.30683285397	0.364776611328125
2434.31683285394	0.3642578125
2434.32683285392	0.36376953125
2434.33683285389	0.36328125
2434.34683285387	0.36279296875
2434.35683285384	0.3623046875
2434.36683285381	0.36181640625
2434.37683285379	0.361297607421875
2434.38683285376	0.360809326171875
2434.39683285374	0.360321044921875
2434.40683285371	0.359832763671875
2434.41683285369	0.359375
2434.42683285366	0.358917236328125
2434.43683285364	0.3583984375
2434.44683285361	0.357940673828125
2434.45683285359	0.357452392578125
2434.46683285356	0.35693359375
2434.47683285354	0.3564453125
2434.48683285351	0.355987548828125
2434.49683285349	0.355499267578125
2434.50683285346	0.355010986328125
2434.51683285344	0.354522705078125
2434.52683285341	0.354034423828125
2434.53683285339	0.353546142578125
2434.54683285336	0.353057861328125
2434.55683285333	0.352569580078125
2434.56683285331	0.352081298828125
2434.57683285328	0.35162353515625
2434.58683285326	0.35113525390625
2434.59683285323	0.35064697265625
2434.60683285321	0.350189208984375
2434.61683285318	0.349700927734375
2434.62683285316	0.349212646484375
2434.63683285313	0.348724365234375
2434.64683285311	0.348236083984375
2434.65683285308	0.3477783203125
2434.66683285306	0.3472900390625
2434.67683285303	0.3468017578125
2434.68683285301	0.346343994140625
2434.69683285298	0.345855712890625
2434.70683285296	0.345367431640625
2434.71683285293	0.34490966796875
2434.72683285291	0.34442138671875
2434.73683285288	0.34393310546875
2434.74683285286	0.343505859375
2434.75683285283	0.343017578125
2434.7668328528	0.342529296875
2434.77683285278	0.342071533203125
2434.78683285275	0.341583251953125
2434.79683285273	0.34112548828125
2434.8068328527	0.34063720703125
2434.81683285268	0.340179443359375
2434.82683285265	0.339691162109375
2434.83683285263	0.3392333984375
2434.8468328526	0.3387451171875
2434.85683285258	0.338287353515625
2434.86683285255	0.337799072265625
2434.87683285253	0.33734130859375
2434.8868328525	0.33685302734375
2434.89683285248	0.336395263671875
2434.90683285245	0.3359375
2434.91683285243	0.335479736328125
2434.9268328524	0.334991455078125
2434.93683285238	0.33453369140625
2434.94683285235	0.334075927734375
2434.95683285233	0.333587646484375
2434.9668328523	0.3331298828125
2434.97683285227	0.332672119140625
2434.98683285225	0.33221435546875
2434.99683285222	0.33172607421875
2435.0068328522	0.331268310546875
2435.01683285217	0.330810546875
2435.02683285215	0.330352783203125
2435.03683285212	0.32989501953125
2435.0468328521	0.329437255859375
2435.05683285207	0.328948974609375
2435.06683285205	0.328521728515625
2435.07683285202	0.32806396484375
2435.086832852	0.32763671875
2435.09683285197	0.327178955078125
2435.10683285195	0.32672119140625
2435.11683285192	0.326263427734375
2435.1268328519	0.3258056640625
2435.13683285187	0.325347900390625
2435.14683285185	0.32489013671875
2435.15683285182	0.324432373046875
2435.16683285179	0.323974609375
2435.17683285177	0.323516845703125
2435.18683285174	0.32305908203125
2435.19683285172	0.322601318359375
2435.20683285169	0.322174072265625
2435.21683285167	0.32171630859375
2435.22683285164	0.321258544921875
2435.23683285162	0.320831298828125
2435.24683285159	0.32037353515625
2435.25683285157	0.3199462890625
2435.26683285154	0.319488525390625
2435.27683285152	0.31903076171875
2435.28683285149	0.318603515625
2435.29683285147	0.318145751953125
2435.30683285144	0.317718505859375
2435.31683285142	0.3172607421875
2435.32683285139	0.31683349609375
2435.33683285137	0.316375732421875
2435.34683285134	0.315948486328125
2435.35683285132	0.31549072265625
2435.36683285129	0.3150634765625
2435.37683285126	0.31463623046875
2435.38683285124	0.314178466796875
2435.39683285121	0.313751220703125
2435.40683285119	0.313323974609375
2435.41683285116	0.3128662109375
2435.42683285114	0.312469482421875
2435.43683285111	0.312042236328125
2435.44683285109	0.31158447265625
2435.45683285106	0.3111572265625
2435.46683285104	0.31072998046875
2435.47683285101	0.310302734375
2435.48683285099	0.30987548828125
2435.49683285096	0.3094482421875
2435.50683285094	0.30902099609375
2435.51683285091	0.30859375
2435.52683285089	0.30816650390625
2435.53683285086	0.3077392578125
2435.54683285084	0.30731201171875
2435.55683285081	0.306915283203125
2435.56683285078	0.306488037109375
2435.57683285076	0.306060791015625
2435.58683285073	0.305633544921875
2435.59683285071	0.305206298828125
2435.60683285068	0.3048095703125
2435.61683285066	0.30438232421875
2435.62683285063	0.303985595703125
2435.63683285061	0.303558349609375
2435.64683285058	0.30316162109375
2435.65683285056	0.302734375
2435.66683285053	0.302337646484375
2435.67683285051	0.301910400390625
2435.68683285048	0.301513671875
2435.69683285046	0.30108642578125
2435.70683285043	0.300689697265625
2435.71683285041	0.300262451171875
2435.72683285038	0.29986572265625
2435.73683285036	0.2994384765625
2435.74683285033	0.299041748046875
2435.75683285031	0.29864501953125
2435.76683285028	0.298248291015625
2435.77683285025	0.297821044921875
2435.78683285023	0.29742431640625
2435.7968328502	0.297027587890625
2435.80683285018	0.296661376953125
2435.81683285015	0.2962646484375
2435.82683285013	0.295867919921875
2435.8368328501	0.29547119140625
2435.84683285008	0.295074462890625
2435.85683285005	0.294677734375
2435.86683285003	0.294281005859375
2435.87683285	0.29388427734375
2435.88683284998	0.293487548828125
2435.89683284995	0.2930908203125
2435.90683284993	0.292694091796875
2435.9168328499	0.29229736328125
2435.92683284988	0.291900634765625
2435.93683284985	0.29150390625
2435.94683284983	0.291107177734375
2435.9568328498	0.290740966796875
2435.96683284978	0.29034423828125
2435.97683284975	0.289947509765625
2435.98683284972	0.28955078125
2435.9968328497	0.2891845703125
2436.00683284967	0.288787841796875
2436.01683284965	0.28839111328125
2436.02683284962	0.28802490234375
2436.0368328496	0.287628173828125
2436.04683284957	0.2872314453125
2436.05683284955	0.286834716796875
2436.06683284952	0.286468505859375
2436.0768328495	0.28607177734375
2436.08683284947	0.285675048828125
2436.09683284945	0.285308837890625
2436.10683284942	0.284912109375
2436.1168328494	0.284515380859375
2436.12683284937	0.284149169921875
2436.13683284935	0.28375244140625
2436.14683284932	0.283355712890625
2436.1568328493	0.282989501953125
2436.16683284927	0.2825927734375
2436.17683284924	0.282196044921875
2436.18683284922	0.281829833984375
2436.19683284919	0.28143310546875
2436.20683284917	0.28106689453125
2436.21683284914	0.28070068359375
2436.22683284912	0.280303955078125
2436.23683284909	0.2799072265625
2436.24683284907	0.279510498046875
2436.25683284904	0.279144287109375
2436.26683284902	0.27874755859375
2436.27683284899	0.278350830078125
2436.28683284897	0.277984619140625
2436.29683284894	0.277587890625
2436.30683284892	0.277191162109375
2436.31683284889	0.27679443359375
2436.32683284887	0.27642822265625
2436.33683284884	0.276031494140625
2436.34683284882	0.275634765625
2436.35683284879	0.275238037109375
2436.36683284877	0.27484130859375
2436.37683284874	0.27447509765625
2436.38683284871	0.274078369140625
2436.39683284869	0.273681640625
2436.40683284866	0.2733154296875
2436.41683284864	0.272918701171875
2436.42683284861	0.27252197265625
2436.43683284859	0.272125244140625
2436.44683284856	0.271728515625
2436.45683284854	0.271331787109375
2436.46683284851	0.27093505859375
2436.47683284849	0.270538330078125
2436.48683284846	0.2701416015625
2436.49683284844	0.269744873046875
2436.50683284841	0.269317626953125
2436.51683284839	0.2689208984375
2436.52683284836	0.268524169921875
2436.53683284834	0.26812744140625
2436.54683284831	0.267730712890625
2436.55683284829	0.267303466796875
2436.56683284826	0.26690673828125
2436.57683284823	0.266510009765625
2436.58683284821	0.26611328125
2436.59683284818	0.265716552734375
2436.60683284816	0.26531982421875
2436.61683284813	0.264923095703125
2436.62683284811	0.264495849609375
2436.63683284808	0.26409912109375
2436.64683284806	0.263671875
2436.65683284803	0.263275146484375
2436.66683284801	0.262847900390625
2436.67683284798	0.262451171875
2436.68683284796	0.26202392578125
2436.69683284793	0.2615966796875
2436.70683284791	0.261199951171875
2436.71683284788	0.260772705078125
2436.72683284786	0.260345458984375
2436.73683284783	0.259918212890625
2436.74683284781	0.259521484375
2436.75683284778	0.25909423828125
2436.76683284776	0.2586669921875
2436.77683284773	0.25823974609375
2436.7868328477	0.2578125
2436.79683284768	0.257415771484375
2436.80683284765	0.256988525390625
2436.81683284763	0.256561279296875
2436.8268328476	0.256134033203125
2436.83683284758	0.255706787109375
2436.84683284755	0.255279541015625
2436.85683284753	0.254852294921875
2436.8668328475	0.25439453125
2436.87683284748	0.25396728515625
2436.88683284745	0.2535400390625
2436.89683284743	0.25311279296875
2436.9068328474	0.252655029296875
2436.91683284738	0.252227783203125
2436.92683284735	0.251800537109375
2436.93683284733	0.2513427734375
2436.9468328473	0.25091552734375
2436.95683284728	0.25048828125
2436.96683284725	0.25006103515625
2436.97683284723	0.2496337890625
2436.9868328472	0.24920654296875
2436.99683284717	0.248748779296875
2437.00683284715	0.248321533203125
2437.01683284712	0.24786376953125
2437.0268328471	0.2474365234375
2437.03683284707	0.246978759765625
2437.04683284705	0.24652099609375
2437.05683284702	0.24609375
2437.066832847	0.245635986328125
2437.07683284697	0.24517822265625
2437.08683284695	0.2447509765625
2437.09683284692	0.244293212890625
2437.1068328469	0.24383544921875
2437.11683284687	0.243408203125
2437.12683284685	0.242950439453125
2437.13683284682	0.24249267578125
2437.1468328468	0.2420654296875
2437.15683284677	0.241607666015625
2437.16683284675	0.24114990234375
2437.17683284672	0.240692138671875
2437.18683284669	0.240264892578125
2437.19683284667	0.23980712890625
2437.20683284664	0.239349365234375
2437.21683284662	0.2388916015625
2437.22683284659	0.238433837890625
2437.23683284657	0.23797607421875
2437.24683284654	0.237518310546875
2437.25683284652	0.237060546875
2437.26683284649	0.236602783203125
2437.27683284647	0.23614501953125
2437.28683284644	0.235687255859375
2437.29683284642	0.2352294921875
2437.30683284639	0.234771728515625
2437.31683284637	0.234344482421875
2437.32683284634	0.233917236328125
2437.33683284632	0.23345947265625
2437.34683284629	0.23297119140625
2437.35683284627	0.232513427734375
2437.36683284624	0.2320556640625
2437.37683284622	0.231597900390625
2437.38683284619	0.23114013671875
2437.39683284616	0.230682373046875
2437.40683284614	0.230224609375
2437.41683284611	0.229766845703125
2437.42683284609	0.229278564453125
2437.43683284606	0.22882080078125
2437.44683284604	0.228363037109375
2437.45683284601	0.2279052734375
2437.46683284599	0.227447509765625
2437.47683284596	0.226959228515625
2437.48683284594	0.22650146484375
2437.49683284591	0.226043701171875
2437.50683284589	0.2255859375
2437.51683284586	0.225128173828125
2437.52683284584	0.22467041015625
2437.53683284581	0.22418212890625
2437.54683284579	0.223724365234375
2437.55683284576	0.2232666015625
2437.56683284574	0.2227783203125
2437.57683284571	0.222320556640625
2437.58683284568	0.22186279296875
2437.59683284566	0.221405029296875
2437.60683284563	0.220916748046875
2437.61683284561	0.220458984375
2437.62683284558	0.220001220703125
2437.63683284556	0.219512939453125
2437.64683284553	0.21905517578125
2437.65683284551	0.2186279296875
2437.66683284548	0.2181396484375
2437.67683284546	0.217681884765625
2437.68683284543	0.21722412109375
2437.69683284541	0.21673583984375
2437.70683284538	0.216278076171875
2437.71683284536	0.2158203125
2437.72683284533	0.21533203125
2437.73683284531	0.214874267578125
2437.74683284528	0.214385986328125
2437.75683284526	0.21392822265625
2437.76683284523	0.213470458984375
2437.77683284521	0.212982177734375
2437.78683284518	0.2125244140625
2437.79683284515	0.2120361328125
2437.80683284513	0.211578369140625
2437.8168328451	0.21112060546875
2437.82683284508	0.210662841796875
2437.83683284505	0.210174560546875
2437.84683284503	0.209716796875
2437.856832845	0.209228515625
2437.86683284498	0.208770751953125
2437.87683284495	0.208282470703125
2437.88683284493	0.20782470703125
2437.8968328449	0.20733642578125
2437.90683284488	0.206878662109375
2437.91683284485	0.206390380859375
2437.92683284483	0.2059326171875
2437.9368328448	0.205474853515625
2437.94683284478	0.204986572265625
2437.95683284475	0.20452880859375
2437.96683284473	0.20404052734375
2437.9768328447	0.203582763671875
2437.98683284468	0.203125
2437.99683284465	0.202667236328125
2438.00683284462	0.202178955078125
2438.0168328446	0.20172119140625
2438.02683284457	0.201263427734375
2438.03683284455	0.200775146484375
2438.04683284452	0.2003173828125
2438.0568328445	0.1998291015625
2438.06683284447	0.1993408203125
2438.07683284445	0.198883056640625
2438.08683284442	0.198394775390625
2438.0968328444	0.19793701171875
2438.10683284437	0.19744873046875
2438.11683284435	0.196990966796875
2438.12683284432	0.196502685546875
2438.1368328443	0.196044921875
2438.14683284427	0.195556640625
2438.15683284425	0.195098876953125
2438.16683284422	0.194610595703125
2438.1768328442	0.19415283203125
2438.18683284417	0.19366455078125
2438.19683284414	0.193206787109375
2438.20683284412	0.192718505859375
2438.21683284409	0.192230224609375
2438.22683284407	0.1917724609375
2438.23683284404	0.1912841796875
2438.24683284402	0.1907958984375
2438.25683284399	0.1903076171875
2438.26683284397	0.189849853515625
2438.27683284394	0.189361572265625
2438.28683284392	0.188873291015625
2438.29683284389	0.18841552734375
2438.30683284387	0.18792724609375
2438.31683284384	0.187469482421875
2438.32683284382	0.186981201171875
2438.33683284379	0.1865234375
2438.34683284377	0.18603515625
2438.35683284374	0.185546875
2438.36683284372	0.185089111328125
2438.37683284369	0.184600830078125
2438.38683284367	0.184112548828125
2438.39683284364	0.183624267578125
2438.40683284361	0.18316650390625
2438.41683284359	0.18267822265625
2438.42683284356	0.18218994140625
2438.43683284354	0.18170166015625
2438.44683284351	0.181243896484375
2438.45683284349	0.180755615234375
2438.46683284346	0.180267333984375
2438.47683284344	0.179779052734375
2438.48683284341	0.1793212890625
2438.49683284339	0.1788330078125
2438.50683284336	0.1783447265625
2438.51683284334	0.1778564453125
2438.52683284331	0.177398681640625
2438.53683284329	0.176910400390625
2438.54683284326	0.176422119140625
2438.55683284324	0.175933837890625
2438.56683284321	0.175445556640625
2438.57683284319	0.174957275390625
2438.58683284316	0.174468994140625
2438.59683284313	0.173980712890625
2438.60683284311	0.173492431640625
2438.61683284308	0.173004150390625
2438.62683284306	0.172515869140625
2438.63683284303	0.17205810546875
2438.64683284301	0.171600341796875
2438.65683284298	0.171112060546875
2438.66683284296	0.170623779296875
2438.67683284293	0.170135498046875
2438.68683284291	0.169647216796875
2438.69683284288	0.169158935546875
2438.70683284286	0.168670654296875
2438.71683284283	0.168182373046875
2438.72683284281	0.167694091796875
2438.73683284278	0.16717529296875
2438.74683284276	0.16668701171875
2438.75683284273	0.16619873046875
2438.76683284271	0.16571044921875
2438.77683284268	0.16522216796875
2438.78683284266	0.16473388671875
2438.79683284263	0.16424560546875
2438.8068328426	0.16375732421875
2438.81683284258	0.16326904296875
2438.82683284255	0.16278076171875
2438.83683284253	0.16229248046875
2438.8468328425	0.16180419921875
2438.85683284248	0.161285400390625
2438.86683284245	0.160797119140625
2438.87683284243	0.160308837890625
2438.8868328424	0.159820556640625
2438.89683284238	0.159332275390625
2438.90683284235	0.1588134765625
2438.91683284233	0.1583251953125
2438.9268328423	0.1578369140625
2438.93683284228	0.157318115234375
2438.94683284225	0.156829833984375
2438.95683284223	0.156341552734375
2438.9668328422	0.1558837890625
2438.97683284218	0.155364990234375
2438.98683284215	0.154876708984375
2438.99683284213	0.154388427734375
2439.0068328421	0.15386962890625
2439.01683284207	0.15338134765625
2439.02683284205	0.152862548828125
2439.03683284202	0.152374267578125
2439.046832842	0.151885986328125
2439.05683284197	0.1513671875
2439.06683284195	0.15087890625
2439.07683284192	0.150360107421875
2439.0868328419	0.149871826171875
2439.09683284187	0.149383544921875
2439.10683284185	0.14886474609375
2439.11683284182	0.14837646484375
2439.1268328418	0.14788818359375
2439.13683284177	0.147369384765625
2439.14683284175	0.146881103515625
2439.15683284172	0.1463623046875
2439.1668328417	0.1458740234375
2439.17683284167	0.145355224609375
2439.18683284165	0.144866943359375
2439.19683284162	0.14434814453125
2439.20683284159	0.14385986328125
2439.21683284157	0.143341064453125
2439.22683284154	0.142822265625
2439.23683284152	0.142333984375
2439.24683284149	0.141815185546875
2439.25683284147	0.141326904296875
2439.26683284144	0.14080810546875
2439.27683284142	0.140350341796875
2439.28683284139	0.139862060546875
2439.29683284137	0.13934326171875
2439.30683284134	0.138824462890625
2439.31683284132	0.1383056640625
2439.32683284129	0.1378173828125
2439.33683284127	0.137298583984375
2439.34683284124	0.136810302734375
2439.35683284122	0.13629150390625
2439.36683284119	0.135772705078125
2439.37683284117	0.13525390625
2439.38683284114	0.134765625
2439.39683284112	0.134246826171875
2439.40683284109	0.13372802734375
2439.41683284106	0.13323974609375
2439.42683284104	0.132720947265625
2439.43683284101	0.132232666015625
2439.44683284099	0.1317138671875
2439.45683284096	0.131195068359375
2439.46683284094	0.13067626953125
2439.47683284091	0.130157470703125
2439.48683284089	0.129669189453125
2439.49683284086	0.129150390625
2439.50683284084	0.128631591796875
2439.51683284081	0.12811279296875
2439.52683284079	0.127593994140625
2439.53683284076	0.127105712890625
2439.54683284074	0.1265869140625
2439.55683284071	0.126068115234375
2439.56683284069	0.12554931640625
2439.57683284066	0.12506103515625
2439.58683284064	0.124542236328125
2439.59683284061	0.1240234375
2439.60683284058	0.123504638671875
2439.61683284056	0.123016357421875
2439.62683284053	0.12249755859375
2439.63683284051	0.121978759765625
2439.64683284048	0.1214599609375
2439.65683284046	0.120941162109375
2439.66683284043	0.12042236328125
2439.67683284041	0.119903564453125
2439.68683284038	0.119384765625
2439.69683284036	0.118865966796875
2439.70683284033	0.11834716796875
2439.71683284031	0.11785888671875
2439.72683284028	0.117340087890625
2439.73683284026	0.1168212890625
2439.74683284023	0.116302490234375
2439.75683284021	0.11578369140625
2439.76683284018	0.115264892578125
2439.77683284016	0.11474609375
2439.78683284013	0.114227294921875
2439.79683284011	0.11370849609375
2439.80683284008	0.113189697265625
2439.81683284005	0.1126708984375
2439.82683284003	0.1121826171875
2439.83683284	0.111663818359375
2439.84683283998	0.11114501953125
2439.85683283995	0.110626220703125
2439.86683283993	0.110107421875
2439.8768328399	0.109588623046875
2439.88683283988	0.109100341796875
2439.89683283985	0.10858154296875
2439.90683283983	0.108062744140625
2439.9168328398	0.1075439453125
2439.92683283978	0.107025146484375
2439.93683283975	0.10650634765625
2439.94683283973	0.105987548828125
2439.9568328397	0.10546875
2439.96683283968	0.104949951171875
2439.97683283965	0.10443115234375
2439.98683283963	0.103912353515625
2439.9968328396	0.1033935546875
2440.00683283958	0.102874755859375
2440.01683283955	0.10235595703125
2440.02683283952	0.101837158203125
2440.0368328395	0.101348876953125
2440.04683283947	0.100830078125
2440.05683283945	0.100311279296875
2440.06683283942	0.09979248046875
2440.0768328394	0.099273681640625
2440.08683283937	0.0987548828125
2440.09683283935	0.098236083984375
2440.10683283932	0.09771728515625
2440.1168328393	0.097198486328125
2440.12683283927	0.0966796875
2440.13683283925	0.096160888671875
2440.14683283922	0.09564208984375
2440.1568328392	0.095123291015625
2440.16683283917	0.0946044921875
2440.17683283915	0.094085693359375
2440.18683283912	0.093597412109375
2440.1968328391	0.09307861328125
2440.20683283907	0.092559814453125
2440.21683283904	0.092041015625
2440.22683283902	0.091522216796875
2440.23683283899	0.09100341796875
2440.24683283897	0.09051513671875
2440.25683283894	0.089996337890625
2440.26683283892	0.0894775390625
2440.27683283889	0.088958740234375
2440.28683283887	0.08843994140625
2440.29683283884	0.087921142578125
2440.30683283882	0.08740234375
2440.31683283879	0.086883544921875
2440.32683283877	0.08636474609375
2440.33683283874	0.08587646484375
2440.34683283872	0.085357666015625
2440.35683283869	0.0848388671875
2440.36683283867	0.084320068359375
2440.37683283864	0.08380126953125
2440.38683283862	0.08331298828125
2440.39683283859	0.082794189453125
2440.40683283857	0.082275390625
2440.41683283854	0.081756591796875
2440.42683283851	0.08123779296875
2440.43683283849	0.08074951171875
2440.44683283846	0.080230712890625
2440.45683283844	0.0797119140625
2440.46683283841	0.079193115234375
2440.47683283839	0.07867431640625
2440.48683283836	0.07818603515625
2440.49683283834	0.07769775390625
2440.50683283831	0.077178955078125
2440.51683283829	0.076690673828125
2440.52683283826	0.076171875
2440.53683283824	0.075653076171875
2440.54683283821	0.075164794921875
2440.55683283819	0.07464599609375
2440.56683283816	0.074127197265625
2440.57683283814	0.0736083984375
2440.58683283811	0.0731201171875
2440.59683283809	0.072601318359375
2440.60683283806	0.07208251953125
2440.61683283803	0.07159423828125
2440.62683283801	0.071075439453125
2440.63683283798	0.070587158203125
2440.64683283796	0.070098876953125
2440.65683283793	0.069580078125
2440.66683283791	0.069061279296875
2440.67683283788	0.068572998046875
2440.68683283786	0.06805419921875
2440.69683283783	0.06756591796875
2440.70683283781	0.067047119140625
2440.71683283778	0.0665283203125
2440.72683283776	0.0660400390625
2440.73683283773	0.065521240234375
2440.74683283771	0.065032958984375
2440.75683283768	0.06451416015625
2440.76683283766	0.06402587890625
2440.77683283763	0.063507080078125
2440.78683283761	0.063018798828125
2440.79683283758	0.062530517578125
2440.80683283756	0.062042236328125
2440.81683283753	0.0615234375
2440.8268328375	0.06103515625
2440.83683283748	0.060546875
2440.84683283745	0.060028076171875
2440.85683283743	0.059539794921875
2440.8668328374	0.05902099609375
2440.87683283738	0.05853271484375
2440.88683283735	0.058013916015625
2440.89683283733	0.057525634765625
2440.9068328373	0.057037353515625
2440.91683283728	0.0565185546875
2440.92683283725	0.0560302734375
2440.93683283723	0.0555419921875
2440.9468328372	0.0550537109375
2440.95683283718	0.0545654296875
2440.96683283715	0.054046630859375
2440.97683283713	0.053558349609375
2440.9868328371	0.053070068359375
2440.99683283708	0.052581787109375
2441.00683283705	0.05206298828125
2441.01683283703	0.05157470703125
2441.026832837	0.05108642578125
2441.03683283697	0.050567626953125
2441.04683283695	0.050079345703125
2441.05683283692	0.0495941162109375
2441.0668328369	0.0490997314453125
2441.07683283687	0.0486053466796875
2441.08683283685	0.0481170654296875
2441.09683283682	0.047625732421875
2441.1068328368	0.04713134765625
2441.11683283677	0.04664306640625
2441.12683283675	0.046148681640625
2441.13683283672	0.0456573486328125
2441.1468328367	0.045172119140625
2441.15683283667	0.0446807861328125
2441.16683283665	0.0441925048828125
2441.17683283662	0.043701171875
2441.1868328366	0.043212890625
2441.19683283657	0.042724609375
2441.20683283655	0.042236328125
2441.21683283652	0.041748046875
2441.22683283649	0.041259765625
2441.23683283647	0.040771484375
2441.24683283644	0.0402862548828125
2441.25683283642	0.0397979736328125
2441.26683283639	0.039312744140625
2441.27683283637	0.03883056640625
2441.28683283634	0.03834228515625
2441.29683283632	0.0378570556640625
2441.30683283629	0.037371826171875
2441.31683283627	0.0368865966796875
2441.32683283624	0.0364013671875
2441.33683283622	0.035919189453125
2441.34683283619	0.03543701171875
2441.35683283617	0.034954833984375
2441.36683283614	0.0344696044921875
2441.37683283612	0.033990478515625
2441.38683283609	0.0335113525390625
2441.39683283607	0.0330291748046875
2441.40683283604	0.032550048828125
2441.41683283602	0.03206787109375
2441.42683283599	0.0315826416015625
2441.43683283596	0.0311065673828125
2441.44683283594	0.0306243896484375
2441.45683283591	0.030145263671875
2441.46683283589	0.029669189453125
2441.47683283586	0.0291900634765625
2441.48683283584	0.0287139892578125
2441.49683283581	0.0282379150390625
2441.50683283579	0.0277587890625
2441.51683283576	0.02728271484375
2441.52683283574	0.0268035888671875
2441.53683283571	0.02633056640625
2441.54683283569	0.0258575439453125
2441.55683283566	0.0253814697265625
2441.56683283564	0.0249053955078125
2441.57683283561	0.024432373046875
2441.58683283559	0.0239593505859375
2441.59683283556	0.023486328125
2441.60683283554	0.023016357421875
2441.61683283551	0.0225433349609375
2441.62683283548	0.0220703125
2441.63683283546	0.021600341796875
2441.64683283543	0.02113037109375
2441.65683283541	0.020660400390625
2441.66683283538	0.020196533203125
2441.67683283536	0.0197235107421875
2441.68683283533	0.0192596435546875
2441.69683283531	0.0187896728515625
2441.70683283528	0.01832275390625
2441.71683283526	0.0178558349609375
2441.72683283523	0.017388916015625
2441.73683283521	0.016925048828125
2441.74683283518	0.016455078125
2441.75683283516	0.0159912109375
2441.76683283513	0.0155303955078125
2441.77683283511	0.0150665283203125
2441.78683283508	0.0146026611328125
2441.79683283506	0.014141845703125
2441.80683283503	0.0136810302734375
2441.81683283501	0.0132171630859375
2441.82683283498	0.0127593994140625
2441.83683283495	0.012298583984375
2441.84683283493	0.0118377685546875
2441.8568328349	0.0113800048828125
2441.86683283488	0.0109222412109375
2441.87683283485	0.0104644775390625
2441.88683283483	0.0100067138671875
2441.8968328348	0.0095489501953125
2441.90683283478	0.00909423828125
2441.91683283475	0.0086395263671875
2441.92683283473	0.0081817626953125
2441.9368328347	0.00773010253906251
2441.94683283468	0.007275390625
2441.95683283465	0.00682373046875
2441.96683283463	0.00637207031250001
2441.9768328346	0.0059173583984375
2441.98683283458	0.0054656982421875
2441.99683283455	0.00501098632812499
2442.00683283453	0.0045654296875
2442.0168328345	0.0041168212890625
2442.02683283448	0.0036651611328125
2442.03683283445	0.003216552734375
2442.04683283442	0.00277099609375001
2442.0568328344	0.0023223876953125
2442.06683283437	0.001873779296875
2442.07683283435	0.0014312744140625
2442.08683283432	0.000985717773437506
2442.0968328343	0.000543212890625006
2442.10683283427	0.000100708007812506
2442.11683283425	-0.000344848632812506
2442.12683283422	-0.000790405273437503
2442.1368328342	-0.00122985839843751
2442.14683283417	-0.00166931152343749
