Time (s)	WE(1).Potential (V)
2063.80750378939	0.77789306640625
2063.81750378936	0.777587890625
2063.82750378934	0.77728271484375
2063.83750378931	0.7769775390625
2063.84750378929	0.77667236328125
2063.85750378926	0.7763671875
2063.86750378924	0.77606201171875
2063.87750378921	0.77606201171875
2063.88750378918	0.7757568359375
2063.89750378916	0.77545166015625
2063.90750378913	0.775146484375
2063.91750378911	0.77484130859375
2063.92750378908	0.7745361328125
2063.93750378906	0.77423095703125
2063.94750378903	0.77392578125
2063.95750378901	0.77362060546875
2063.96750378898	0.7733154296875
2063.97750378896	0.7733154296875
2063.98750378893	0.77301025390625
2063.99750378891	0.772705078125
2064.00750378888	0.77239990234375
2064.01750378886	0.7720947265625
2064.02750378883	0.77178955078125
2064.03750378881	0.771484375
2064.04750378878	0.77117919921875
2064.05750378876	0.7708740234375
2064.06750378873	0.77056884765625
2064.07750378871	0.77056884765625
2064.08750378868	0.770263671875
2064.09750378865	0.76995849609375
2064.10750378863	0.7696533203125
2064.1175037886	0.76934814453125
2064.12750378858	0.76904296875
2064.13750378855	0.76873779296875
2064.14750378853	0.7684326171875
2064.1575037885	0.7684326171875
2064.16750378848	0.76812744140625
2064.17750378845	0.767822265625
2064.18750378843	0.76751708984375
2064.1975037884	0.7672119140625
2064.20750378838	0.76690673828125
2064.21750378835	0.7666015625
2064.22750378833	0.76629638671875
2064.2375037883	0.7659912109375
2064.24750378828	0.7659912109375
2064.25750378825	0.76568603515625
2064.26750378823	0.765380859375
2064.2775037882	0.76507568359375
2064.28750378817	0.7647705078125
2064.29750378815	0.76446533203125
2064.30750378812	0.76416015625
2064.3175037881	0.76416015625
2064.32750378807	0.76385498046875
2064.33750378805	0.7635498046875
2064.34750378802	0.76324462890625
2064.357503788	0.762939453125
2064.36750378797	0.76263427734375
2064.37750378795	0.7623291015625
2064.38750378792	0.7623291015625
2064.3975037879	0.76202392578125
2064.40750378787	0.76171875
2064.41750378785	0.76141357421875
2064.42750378782	0.7611083984375
2064.4375037878	0.76080322265625
2064.44750378777	0.760498046875
2064.45750378775	0.760498046875
2064.46750378772	0.76019287109375
2064.4775037877	0.7598876953125
2064.48750378767	0.75958251953125
2064.49750378764	0.75927734375
2064.50750378762	0.75897216796875
2064.51750378759	0.7586669921875
2064.52750378757	0.7586669921875
2064.53750378754	0.75836181640625
2064.54750378752	0.758056640625
2064.55750378749	0.75775146484375
2064.56750378747	0.7574462890625
2064.57750378744	0.75714111328125
2064.58750378742	0.75714111328125
2064.59750378739	0.7568359375
2064.60750378737	0.75653076171875
2064.61750378734	0.7562255859375
2064.62750378732	0.75592041015625
2064.63750378729	0.75592041015625
2064.64750378727	0.755615234375
2064.65750378724	0.75531005859375
2064.66750378722	0.7550048828125
2064.67750378719	0.75469970703125
2064.68750378717	0.75439453125
2064.69750378714	0.75408935546875
2064.70750378711	0.75408935546875
2064.71750378709	0.7537841796875
2064.72750378706	0.75347900390625
2064.73750378704	0.753173828125
2064.74750378701	0.75286865234375
2064.75750378699	0.7525634765625
2064.76750378696	0.7525634765625
2064.77750378694	0.75225830078125
2064.78750378691	0.751953125
2064.79750378689	0.75164794921875
2064.80750378686	0.7513427734375
2064.81750378684	0.7513427734375
2064.82750378681	0.75103759765625
2064.83750378679	0.750732421875
2064.84750378676	0.75042724609375
2064.85750378674	0.7501220703125
2064.86750378671	0.74981689453125
2064.87750378669	0.74981689453125
2064.88750378666	0.74951171875
2064.89750378663	0.74920654296875
2064.90750378661	0.7489013671875
2064.91750378658	0.74859619140625
2064.92750378656	0.74859619140625
2064.93750378653	0.748291015625
2064.94750378651	0.74798583984375
2064.95750378648	0.7476806640625
2064.96750378646	0.74737548828125
2064.97750378643	0.7470703125
2064.98750378641	0.7470703125
2064.99750378638	0.74676513671875
2065.00750378636	0.7464599609375
2065.01750378633	0.74615478515625
2065.02750378631	0.745849609375
2065.03750378628	0.745849609375
2065.04750378626	0.74554443359375
2065.05750378623	0.7452392578125
2065.06750378621	0.74493408203125
2065.07750378618	0.74462890625
2065.08750378616	0.74462890625
2065.09750378613	0.74432373046875
2065.1075037861	0.7440185546875
2065.11750378608	0.74371337890625
2065.12750378605	0.743408203125
2065.13750378603	0.743408203125
2065.147503786	0.74310302734375
2065.15750378598	0.7427978515625
2065.16750378595	0.74249267578125
2065.17750378593	0.7421875
2065.1875037859	0.74188232421875
2065.19750378588	0.74188232421875
2065.20750378585	0.7415771484375
2065.21750378583	0.74127197265625
2065.2275037858	0.740966796875
2065.23750378578	0.740966796875
2065.24750378575	0.74066162109375
2065.25750378573	0.7403564453125
2065.2675037857	0.74005126953125
2065.27750378568	0.73974609375
2065.28750378565	0.73944091796875
2065.29750378562	0.73944091796875
2065.3075037856	0.7391357421875
2065.31750378557	0.73883056640625
2065.32750378555	0.738525390625
2065.33750378552	0.73822021484375
2065.3475037855	0.73822021484375
2065.35750378547	0.7379150390625
2065.36750378545	0.73760986328125
2065.37750378542	0.7373046875
2065.3875037854	0.73699951171875
2065.39750378537	0.73699951171875
2065.40750378535	0.7366943359375
2065.41750378532	0.73638916015625
2065.4275037853	0.736083984375
2065.43750378527	0.736083984375
2065.44750378525	0.73577880859375
2065.45750378522	0.7354736328125
2065.4675037852	0.73516845703125
2065.47750378517	0.73486328125
2065.48750378515	0.73486328125
2065.49750378512	0.73455810546875
2065.50750378509	0.7342529296875
2065.51750378507	0.73394775390625
2065.52750378504	0.73394775390625
2065.53750378502	0.733642578125
2065.54750378499	0.73333740234375
2065.55750378497	0.7330322265625
2065.56750378494	0.73272705078125
2065.57750378492	0.73272705078125
2065.58750378489	0.732421875
2065.59750378487	0.73211669921875
2065.60750378484	0.7318115234375
2065.61750378482	0.73150634765625
2065.62750378479	0.73150634765625
2065.63750378477	0.731201171875
2065.64750378474	0.73089599609375
2065.65750378472	0.7305908203125
2065.66750378469	0.7305908203125
2065.67750378467	0.73028564453125
2065.68750378464	0.72998046875
2065.69750378462	0.72967529296875
2065.70750378459	0.7293701171875
2065.71750378456	0.7293701171875
2065.72750378454	0.72906494140625
2065.73750378451	0.728759765625
2065.74750378449	0.72845458984375
2065.75750378446	0.7281494140625
2065.76750378444	0.7281494140625
2065.77750378441	0.72784423828125
2065.78750378439	0.7275390625
2065.79750378436	0.72723388671875
2065.80750378434	0.72723388671875
2065.81750378431	0.7269287109375
2065.82750378429	0.72662353515625
2065.83750378426	0.726318359375
2065.84750378424	0.72601318359375
2065.85750378421	0.72601318359375
2065.86750378419	0.7257080078125
2065.87750378416	0.72540283203125
2065.88750378414	0.72509765625
2065.89750378411	0.72509765625
2065.90750378408	0.72479248046875
2065.91750378406	0.7244873046875
2065.92750378403	0.72418212890625
2065.93750378401	0.72418212890625
2065.94750378398	0.723876953125
2065.95750378396	0.72357177734375
2065.96750378393	0.7232666015625
2065.97750378391	0.72296142578125
2065.98750378388	0.72296142578125
2065.99750378386	0.72265625
2066.00750378383	0.72235107421875
2066.01750378381	0.7220458984375
2066.02750378378	0.7220458984375
2066.03750378376	0.72174072265625
2066.04750378373	0.721435546875
2066.05750378371	0.72113037109375
2066.06750378368	0.7208251953125
2066.07750378366	0.7208251953125
2066.08750378363	0.72052001953125
2066.09750378361	0.72021484375
2066.10750378358	0.71990966796875
2066.11750378355	0.71990966796875
2066.12750378353	0.7196044921875
2066.1375037835	0.71929931640625
2066.14750378348	0.718994140625
2066.15750378345	0.718994140625
2066.16750378343	0.71868896484375
2066.1775037834	0.7183837890625
2066.18750378338	0.71807861328125
2066.19750378335	0.71807861328125
2066.20750378333	0.7177734375
2066.2175037833	0.71746826171875
2066.22750378328	0.7171630859375
2066.23750378325	0.71685791015625
2066.24750378323	0.71685791015625
2066.2575037832	0.716552734375
2066.26750378318	0.71624755859375
2066.27750378315	0.7159423828125
2066.28750378313	0.7159423828125
2066.2975037831	0.71563720703125
2066.30750378307	0.71533203125
2066.31750378305	0.71502685546875
2066.32750378302	0.71502685546875
2066.337503783	0.7147216796875
2066.34750378297	0.71441650390625
2066.35750378295	0.714111328125
2066.36750378292	0.714111328125
2066.3775037829	0.71380615234375
2066.38750378287	0.7135009765625
2066.39750378285	0.71319580078125
2066.40750378282	0.71319580078125
2066.4175037828	0.712890625
2066.42750378277	0.71258544921875
2066.43750378275	0.7122802734375
2066.44750378272	0.7122802734375
2066.4575037827	0.71197509765625
2066.46750378267	0.711669921875
2066.47750378265	0.71136474609375
2066.48750378262	0.71136474609375
2066.4975037826	0.7110595703125
2066.50750378257	0.71075439453125
2066.51750378254	0.71044921875
2066.52750378252	0.71044921875
2066.53750378249	0.71014404296875
2066.54750378247	0.7098388671875
2066.55750378244	0.70953369140625
2066.56750378242	0.70953369140625
2066.57750378239	0.709228515625
2066.58750378237	0.70892333984375
2066.59750378234	0.7086181640625
2066.60750378232	0.7086181640625
2066.61750378229	0.70831298828125
2066.62750378227	0.7080078125
2066.63750378224	0.70770263671875
2066.64750378222	0.7073974609375
2066.65750378219	0.7073974609375
2066.66750378217	0.70709228515625
2066.67750378214	0.706787109375
2066.68750378212	0.70648193359375
2066.69750378209	0.70648193359375
2066.70750378207	0.7061767578125
2066.71750378204	0.70587158203125
2066.72750378201	0.70587158203125
2066.73750378199	0.70556640625
2066.74750378196	0.70526123046875
2066.75750378194	0.7049560546875
2066.76750378191	0.7049560546875
2066.77750378189	0.70465087890625
2066.78750378186	0.704345703125
2066.79750378184	0.70404052734375
2066.80750378181	0.70404052734375
2066.81750378179	0.7037353515625
2066.82750378176	0.70343017578125
2066.83750378174	0.70343017578125
2066.84750378171	0.703125
2066.85750378169	0.70281982421875
2066.86750378166	0.70281982421875
2066.87750378164	0.7025146484375
2066.88750378161	0.70220947265625
2066.89750378159	0.701904296875
2066.90750378156	0.701904296875
2066.91750378153	0.70159912109375
2066.92750378151	0.7012939453125
2066.93750378148	0.70098876953125
2066.94750378146	0.70068359375
2066.95750378143	0.70068359375
2066.96750378141	0.70037841796875
2066.97750378138	0.7000732421875
2066.98750378136	0.69976806640625
2066.99750378133	0.69976806640625
2067.00750378131	0.699462890625
2067.01750378128	0.69915771484375
2067.02750378126	0.69915771484375
2067.03750378123	0.6988525390625
2067.04750378121	0.69854736328125
2067.05750378118	0.6982421875
2067.06750378116	0.6982421875
2067.07750378113	0.69793701171875
2067.08750378111	0.6976318359375
2067.09750378108	0.69732666015625
2067.10750378106	0.69732666015625
2067.11750378103	0.697021484375
2067.127503781	0.69671630859375
2067.13750378098	0.6964111328125
2067.14750378095	0.6964111328125
2067.15750378093	0.69610595703125
2067.1675037809	0.69580078125
2067.17750378088	0.69549560546875
2067.18750378085	0.69549560546875
2067.19750378083	0.6951904296875
2067.2075037808	0.69488525390625
2067.21750378078	0.694580078125
2067.22750378075	0.694580078125
2067.23750378073	0.69427490234375
2067.2475037807	0.6939697265625
2067.25750378068	0.69366455078125
2067.26750378065	0.69366455078125
2067.27750378063	0.693359375
2067.2875037806	0.69305419921875
2067.29750378058	0.69305419921875
2067.30750378055	0.6927490234375
2067.31750378052	0.69244384765625
2067.3275037805	0.692138671875
2067.33750378047	0.692138671875
2067.34750378045	0.69183349609375
2067.35750378042	0.6915283203125
2067.3675037804	0.69122314453125
2067.37750378037	0.69122314453125
2067.38750378035	0.69091796875
2067.39750378032	0.69061279296875
2067.4075037803	0.6903076171875
2067.41750378027	0.6903076171875
2067.42750378025	0.69000244140625
2067.43750378022	0.689697265625
2067.4475037802	0.68939208984375
2067.45750378017	0.68939208984375
2067.46750378015	0.6890869140625
2067.47750378012	0.68878173828125
2067.4875037801	0.68878173828125
2067.49750378007	0.6884765625
2067.50750378005	0.68817138671875
2067.51750378002	0.6878662109375
2067.52750377999	0.6878662109375
2067.53750377997	0.68756103515625
2067.54750377994	0.687255859375
2067.55750377992	0.68695068359375
2067.56750377989	0.68695068359375
2067.57750377987	0.6866455078125
2067.58750377984	0.68634033203125
2067.59750377982	0.68603515625
2067.60750377979	0.68603515625
2067.61750377977	0.68572998046875
2067.62750377974	0.6854248046875
2067.63750377972	0.6854248046875
2067.64750377969	0.68511962890625
2067.65750377967	0.684814453125
2067.66750377964	0.68450927734375
2067.67750377962	0.68450927734375
2067.68750377959	0.6842041015625
2067.69750377957	0.68389892578125
2067.70750377954	0.68359375
2067.71750377952	0.68359375
2067.72750377949	0.68328857421875
2067.73750377946	0.6829833984375
2067.74750377944	0.6829833984375
2067.75750377941	0.68267822265625
2067.76750377939	0.682373046875
2067.77750377936	0.68206787109375
2067.78750377934	0.68206787109375
2067.79750377931	0.6817626953125
2067.80750377929	0.68145751953125
2067.81750377926	0.68115234375
2067.82750377924	0.68115234375
2067.83750377921	0.68084716796875
2067.84750377919	0.6805419921875
2067.85750377916	0.6805419921875
2067.86750377914	0.68023681640625
2067.87750377911	0.679931640625
2067.88750377909	0.67962646484375
2067.89750377906	0.67962646484375
2067.90750377904	0.6793212890625
2067.91750377901	0.67901611328125
2067.92750377898	0.6787109375
2067.93750377896	0.6787109375
2067.94750377893	0.67840576171875
2067.95750377891	0.6781005859375
2067.96750377888	0.67779541015625
2067.97750377886	0.67779541015625
2067.98750377883	0.677490234375
2067.99750377881	0.67718505859375
2068.00750377878	0.67718505859375
2068.01750377876	0.6768798828125
2068.02750377873	0.67657470703125
2068.03750377871	0.67626953125
2068.04750377868	0.67626953125
2068.05750377866	0.67596435546875
2068.06750377863	0.6756591796875
2068.07750377861	0.6756591796875
2068.08750377858	0.67535400390625
2068.09750377856	0.675048828125
2068.10750377853	0.67474365234375
2068.11750377851	0.67474365234375
2068.12750377848	0.6744384765625
2068.13750377845	0.67413330078125
2068.14750377843	0.673828125
2068.1575037784	0.673828125
2068.16750377838	0.67352294921875
2068.17750377835	0.6732177734375
2068.18750377833	0.6732177734375
2068.1975037783	0.67291259765625
2068.20750377828	0.672607421875
2068.21750377825	0.67230224609375
2068.22750377823	0.67230224609375
2068.2375037782	0.6719970703125
2068.24750377818	0.67169189453125
2068.25750377815	0.67169189453125
2068.26750377813	0.67138671875
2068.2775037781	0.67108154296875
2068.28750377808	0.6707763671875
2068.29750377805	0.6707763671875
2068.30750377803	0.67047119140625
2068.317503778	0.670166015625
2068.32750377797	0.670166015625
2068.33750377795	0.66986083984375
2068.34750377792	0.6695556640625
2068.3575037779	0.66925048828125
2068.36750377787	0.66925048828125
2068.37750377785	0.6689453125
2068.38750377782	0.66864013671875
2068.3975037778	0.6683349609375
2068.40750377777	0.6683349609375
2068.41750377775	0.66802978515625
2068.42750377772	0.667724609375
2068.4375037777	0.667724609375
2068.44750377767	0.66741943359375
2068.45750377765	0.6671142578125
2068.46750377762	0.66680908203125
2068.4775037776	0.66680908203125
2068.48750377757	0.66650390625
2068.49750377755	0.66619873046875
2068.50750377752	0.66619873046875
2068.5175037775	0.6658935546875
2068.52750377747	0.66558837890625
2068.53750377744	0.665283203125
2068.54750377742	0.665283203125
2068.55750377739	0.66497802734375
2068.56750377737	0.6646728515625
2068.57750377734	0.66436767578125
2068.58750377732	0.66436767578125
2068.59750377729	0.6640625
2068.60750377727	0.66375732421875
2068.61750377724	0.66375732421875
2068.62750377722	0.6634521484375
2068.63750377719	0.66314697265625
2068.64750377717	0.66314697265625
2068.65750377714	0.662841796875
2068.66750377712	0.66253662109375
2068.67750377709	0.6622314453125
2068.68750377707	0.6622314453125
2068.69750377704	0.66192626953125
2068.70750377702	0.66162109375
2068.71750377699	0.66131591796875
2068.72750377697	0.66131591796875
2068.73750377694	0.6610107421875
2068.74750377691	0.66070556640625
2068.75750377689	0.66070556640625
2068.76750377686	0.660400390625
2068.77750377684	0.66009521484375
2068.78750377681	0.6597900390625
2068.79750377679	0.6597900390625
2068.80750377676	0.65948486328125
2068.81750377674	0.6591796875
2068.82750377671	0.6591796875
2068.83750377669	0.65887451171875
2068.84750377666	0.6585693359375
2068.85750377664	0.6585693359375
2068.86750377661	0.65826416015625
2068.87750377659	0.657958984375
2068.88750377656	0.65765380859375
2068.89750377654	0.65765380859375
2068.90750377651	0.6573486328125
2068.91750377649	0.65704345703125
2068.92750377646	0.65704345703125
2068.93750377643	0.65673828125
2068.94750377641	0.65643310546875
2068.95750377638	0.6561279296875
2068.96750377636	0.6561279296875
2068.97750377633	0.65582275390625
2068.98750377631	0.655517578125
2068.99750377628	0.655517578125
2069.00750377626	0.65521240234375
2069.01750377623	0.6549072265625
2069.02750377621	0.65460205078125
2069.03750377618	0.65460205078125
2069.04750377616	0.654296875
2069.05750377613	0.65399169921875
2069.06750377611	0.65399169921875
2069.07750377608	0.6536865234375
2069.08750377606	0.65338134765625
2069.09750377603	0.653076171875
2069.10750377601	0.653076171875
2069.11750377598	0.65277099609375
2069.12750377596	0.6524658203125
2069.13750377593	0.6524658203125
2069.1475037759	0.65216064453125
2069.15750377588	0.65185546875
2069.16750377585	0.65185546875
2069.17750377583	0.65155029296875
2069.1875037758	0.6512451171875
2069.19750377578	0.65093994140625
2069.20750377575	0.65093994140625
2069.21750377573	0.650634765625
2069.2275037757	0.65032958984375
2069.23750377568	0.65032958984375
2069.24750377565	0.6500244140625
2069.25750377563	0.64971923828125
2069.2675037756	0.6494140625
2069.27750377558	0.6494140625
2069.28750377555	0.64910888671875
2069.29750377553	0.6488037109375
2069.3075037755	0.6488037109375
2069.31750377548	0.64849853515625
2069.32750377545	0.648193359375
2069.33750377542	0.648193359375
2069.3475037754	0.64788818359375
2069.35750377537	0.6475830078125
2069.36750377535	0.64727783203125
2069.37750377532	0.64727783203125
2069.3875037753	0.64697265625
2069.39750377527	0.64666748046875
2069.40750377525	0.64666748046875
2069.41750377522	0.6463623046875
2069.4275037752	0.64605712890625
2069.43750377517	0.64605712890625
2069.44750377515	0.645751953125
2069.45750377512	0.64544677734375
2069.4675037751	0.6451416015625
2069.47750377507	0.6451416015625
2069.48750377505	0.64483642578125
2069.49750377502	0.64453125
2069.507503775	0.64453125
2069.51750377497	0.64422607421875
2069.52750377495	0.6439208984375
2069.53750377492	0.64361572265625
2069.54750377489	0.64361572265625
2069.55750377487	0.643310546875
2069.56750377484	0.64300537109375
2069.57750377482	0.64300537109375
2069.58750377479	0.6427001953125
2069.59750377477	0.64239501953125
2069.60750377474	0.64208984375
2069.61750377472	0.64208984375
2069.62750377469	0.64178466796875
2069.63750377467	0.6414794921875
2069.64750377464	0.6414794921875
2069.65750377462	0.64117431640625
2069.66750377459	0.640869140625
2069.67750377457	0.640869140625
2069.68750377454	0.64056396484375
