Time (s)	WE(1).Potential (V)
53.4849868649634	0.74554443359375
53.4949868649381	0.74554443359375
53.5049868649129	0.74554443359375
53.5149868648876	0.74554443359375
53.5249868648624	0.74554443359375
53.5349868648372	0.745849609375
53.5449868648119	0.745849609375
53.5549868647867	0.745849609375
53.5649868647614	0.745849609375
53.5749868647362	0.745849609375
53.5849868647109	0.745849609375
53.5949868646857	0.745849609375
53.6049868646604	0.745849609375
53.6149868646352	0.745849609375
53.6249868646099	0.745849609375
53.6349868645847	0.745849609375
53.6449868645594	0.745849609375
53.6549868645342	0.745849609375
53.6649868645089	0.745849609375
53.6749868644837	0.745849609375
53.6849868644584	0.745849609375
53.6949868644332	0.745849609375
53.7049868644079	0.745849609375
53.7149868643827	0.745849609375
53.7249868643574	0.745849609375
53.7349868643322	0.745849609375
53.744986864307	0.745849609375
53.7549868642817	0.745849609375
53.7649868642565	0.745849609375
53.7749868642312	0.745849609375
53.784986864206	0.745849609375
53.7949868641807	0.745849609375
53.8049868641555	0.745849609375
53.8149868641302	0.745849609375
53.824986864105	0.745849609375
53.8349868640797	0.745849609375
53.8449868640545	0.745849609375
53.8549868640292	0.745849609375
53.864986864004	0.745849609375
53.8749868639787	0.745849609375
53.8849868639535	0.745849609375
53.8949868639282	0.745849609375
53.904986863903	0.745849609375
53.9149868638777	0.745849609375
53.9249868638525	0.745849609375
53.9349868638272	0.745849609375
53.944986863802	0.745849609375
53.9549868637768	0.745849609375
53.9649868637515	0.745849609375
53.9749868637263	0.745849609375
53.984986863701	0.745849609375
53.9949868636758	0.745849609375
54.0049868636505	0.745849609375
54.0149868636253	0.745849609375
54.0249868636	0.745849609375
54.0349868635748	0.745849609375
54.0449868635495	0.745849609375
54.0549868635243	0.745849609375
54.064986863499	0.745849609375
54.0749868634738	0.745849609375
54.0849868634485	0.745849609375
54.0949868634233	0.745849609375
54.104986863398	0.745849609375
54.1149868633728	0.745849609375
54.1249868633475	0.745849609375
54.1349868633223	0.745849609375
54.144986863297	0.745849609375
54.1549868632718	0.745849609375
54.1649868632466	0.745849609375
54.1749868632213	0.745849609375
54.1849868631961	0.745849609375
54.1949868631708	0.745849609375
54.2049868631456	0.745849609375
54.2149868631203	0.745849609375
54.2249868630951	0.745849609375
54.2349868630698	0.745849609375
54.2449868630446	0.745849609375
54.2549868630193	0.745849609375
54.2649868629941	0.745849609375
54.2749868629688	0.745849609375
54.2849868629436	0.745849609375
54.2949868629183	0.745849609375
54.3049868628931	0.745849609375
54.3149868628678	0.745849609375
54.3249868628426	0.745849609375
54.3349868628173	0.745849609375
54.3449868627921	0.745849609375
54.3549868627669	0.745849609375
54.3649868627416	0.745849609375
54.3749868627164	0.745849609375
54.3849868626911	0.745849609375
54.3949868626659	0.745849609375
54.4049868626406	0.745849609375
54.4149868626154	0.745849609375
54.4249868625901	0.745849609375
54.4349868625649	0.745849609375
54.4449868625396	0.745849609375
54.4549868625144	0.745849609375
54.4649868624891	0.745849609375
54.4749868624639	0.745849609375
54.4849868624386	0.745849609375
54.4949868624134	0.745849609375
54.5049868623881	0.745849609375
54.5149868623629	0.745849609375
54.5249868623376	0.745849609375
54.5349868623124	0.745849609375
54.5449868622871	0.745849609375
54.5549868622619	0.745849609375
54.5649868622367	0.745849609375
54.5749868622114	0.745849609375
54.5849868621862	0.745849609375
54.5949868621609	0.745849609375
54.6049868621357	0.745849609375
54.6149868621104	0.745849609375
54.6249868620852	0.745849609375
54.6349868620599	0.745849609375
54.6449868620347	0.745849609375
54.6549868620094	0.745849609375
54.6649868619842	0.745849609375
54.6749868619589	0.745849609375
54.6849868619337	0.745849609375
54.6949868619084	0.745849609375
54.7049868618832	0.745849609375
54.7149868618579	0.745849609375
54.7249868618327	0.745849609375
54.7349868618074	0.745849609375
54.7449868617822	0.745849609375
54.7549868617569	0.745849609375
54.7649868617317	0.745849609375
54.7749868617065	0.745849609375
54.7849868616812	0.745849609375
54.794986861656	0.745849609375
54.8049868616307	0.745849609375
54.8149868616055	0.74554443359375
54.8249868615802	0.74554443359375
54.834986861555	0.74554443359375
54.8449868615297	0.745849609375
54.8549868615045	0.745849609375
54.8649868614792	0.74554443359375
54.874986861454	0.745849609375
54.8849868614287	0.745849609375
54.8949868614035	0.745849609375
54.9049868613782	0.74554443359375
54.914986861353	0.74554443359375
54.9249868613277	0.74554443359375
54.9349868613025	0.74554443359375
54.9449868612772	0.74554443359375
54.954986861252	0.74554443359375
54.9649868612267	0.745849609375
54.9749868612015	0.745849609375
54.9849868611763	0.745849609375
54.994986861151	0.745849609375
55.0049868611258	0.745849609375
55.0149868611005	0.745849609375
55.0249868610753	0.745849609375
55.03498686105	0.745849609375
55.0449868610248	0.745849609375
55.0549868609995	0.745849609375
55.0649868609743	0.745849609375
55.074986860949	0.745849609375
55.0849868609238	0.745849609375
55.0949868608985	0.745849609375
55.1049868608733	0.745849609375
55.114986860848	0.745849609375
55.1249868608228	0.745849609375
55.1349868607975	0.745849609375
55.1449868607723	0.745849609375
55.154986860747	0.745849609375
55.1649868607218	0.745849609375
55.1749868606965	0.745849609375
55.1849868606713	0.745849609375
55.1949868606461	0.745849609375
55.2049868606208	0.745849609375
55.2149868605956	0.745849609375
55.2249868605703	0.745849609375
55.2349868605451	0.745849609375
55.2449868605198	0.745849609375
55.2549868604946	0.745849609375
55.2649868604693	0.745849609375
55.2749868604441	0.745849609375
55.2849868604188	0.745849609375
55.2949868603936	0.745849609375
55.3049868603683	0.745849609375
55.3149868603431	0.745849609375
55.3249868603178	0.745849609375
55.3349868602926	0.745849609375
55.3449868602673	0.745849609375
55.3549868602421	0.745849609375
55.3649868602168	0.745849609375
55.3749868601916	0.745849609375
55.3849868601664	0.745849609375
55.3949868601411	0.745849609375
55.4049868601159	0.745849609375
55.4149868600906	0.745849609375
55.4249868600654	0.745849609375
55.4349868600401	0.745849609375
55.4449868600149	0.745849609375
55.4549868599896	0.745849609375
55.4649868599644	0.745849609375
55.4749868599391	0.745849609375
55.4849868599139	0.745849609375
55.4949868598886	0.745849609375
55.5049868598634	0.745849609375
55.5149868598381	0.745849609375
55.5249868598129	0.745849609375
55.5349868597876	0.745849609375
55.5449868597624	0.745849609375
55.5549868597371	0.745849609375
55.5649868597119	0.745849609375
55.5749868596866	0.745849609375
55.5849868596614	0.745849609375
55.5949868596362	0.745849609375
55.6049868596109	0.745849609375
55.6149868595857	0.745849609375
55.6249868595604	0.745849609375
55.6349868595352	0.745849609375
55.6449868595099	0.745849609375
55.6549868594847	0.745849609375
55.6649868594594	0.745849609375
55.6749868594342	0.745849609375
55.6849868594089	0.745849609375
55.6949868593837	0.745849609375
55.7049868593584	0.745849609375
55.7149868593332	0.745849609375
55.7249868593079	0.745849609375
55.7349868592827	0.745849609375
55.7449868592574	0.745849609375
55.7549868592322	0.745849609375
55.7649868592069	0.745849609375
55.7749868591817	0.745849609375
55.7849868591564	0.745849609375
55.7949868591312	0.745849609375
55.804986859106	0.745849609375
55.8149868590807	0.745849609375
55.8249868590555	0.745849609375
55.8349868590302	0.745849609375
55.844986859005	0.745849609375
55.8549868589797	0.745849609375
55.8649868589545	0.74615478515625
55.8749868589292	0.74615478515625
55.884986858904	0.74615478515625
55.8949868588787	0.74615478515625
55.9049868588535	0.74615478515625
55.9149868588282	0.745849609375
55.924986858803	0.745849609375
55.9349868587777	0.745849609375
55.9449868587525	0.74615478515625
55.9549868587272	0.74615478515625
55.964986858702	0.74615478515625
55.9749868586767	0.74615478515625
55.9849868586515	0.74615478515625
55.9949868586262	0.74615478515625
56.004986858601	0.74615478515625
56.0149868585758	0.74615478515625
56.0249868585505	0.74615478515625
56.0349868585253	0.74615478515625
56.0449868585	0.74615478515625
56.0549868584748	0.74615478515625
56.0649868584495	0.74615478515625
56.0749868584243	0.74615478515625
56.084986858399	0.74615478515625
56.0949868583738	0.74615478515625
56.1049868583485	0.74615478515625
56.1149868583233	0.74615478515625
56.124986858298	0.74615478515625
56.1349868582728	0.74615478515625
56.1449868582475	0.74615478515625
56.1549868582223	0.74615478515625
56.164986858197	0.74615478515625
56.1749868581718	0.74615478515625
56.1849868581465	0.74615478515625
56.1949868581213	0.74615478515625
56.204986858096	0.74615478515625
56.2149868580708	0.74615478515625
56.2249868580456	0.74615478515625
56.2349868580203	0.74615478515625
56.2449868579951	0.74615478515625
56.2549868579698	0.74615478515625
56.2649868579446	0.74615478515625
56.2749868579193	0.74615478515625
56.2849868578941	0.74615478515625
56.2949868578688	0.74615478515625
56.3049868578436	0.74615478515625
56.3149868578183	0.74615478515625
56.3249868577931	0.74615478515625
56.3349868577678	0.74615478515625
56.3449868577426	0.74615478515625
56.3549868577173	0.74615478515625
56.3649868576921	0.74615478515625
56.3749868576668	0.74615478515625
56.3849868576416	0.74615478515625
56.3949868576163	0.74615478515625
56.4049868575911	0.74615478515625
56.4149868575659	0.74615478515625
56.4249868575406	0.74615478515625
56.4349868575154	0.74615478515625
56.4449868574901	0.74615478515625
56.4549868574649	0.74615478515625
56.4649868574396	0.74615478515625
56.4749868574144	0.74615478515625
56.4849868573891	0.74615478515625
56.4949868573639	0.74615478515625
56.5049868573386	0.74615478515625
56.5149868573134	0.7464599609375
56.5249868572881	0.7464599609375
56.5349868572629	0.7464599609375
56.5449868572376	0.7464599609375
56.5549868572124	0.7464599609375
56.5649868571871	0.7464599609375
56.5749868571619	0.7464599609375
56.5849868571366	0.7464599609375
56.5949868571114	0.7464599609375
56.6049868570861	0.7464599609375
56.6149868570609	0.7464599609375
56.6249868570357	0.7464599609375
56.6349868570104	0.7464599609375
56.6449868569852	0.7464599609375
56.6549868569599	0.7464599609375
56.6649868569347	0.7464599609375
56.6749868569094	0.7464599609375
56.6849868568842	0.74676513671875
56.6949868568589	0.7464599609375
56.7049868568337	0.7464599609375
56.7149868568084	0.7464599609375
56.7249868567832	0.7464599609375
56.7349868567579	0.7464599609375
56.7449868567327	0.7464599609375
56.7549868567074	0.7464599609375
56.7649868566822	0.7464599609375
56.7749868566569	0.7464599609375
56.7849868566317	0.7464599609375
56.7949868566064	0.7464599609375
56.8049868565812	0.74676513671875
56.8149868565559	0.74676513671875
56.8249868565307	0.74676513671875
56.8349868565055	0.74676513671875
56.8449868564802	0.74676513671875
56.854986856455	0.74676513671875
56.8649868564297	0.74676513671875
56.8749868564045	0.74676513671875
56.8849868563792	0.74676513671875
56.894986856354	0.74676513671875
56.9049868563287	0.74676513671875
56.9149868563035	0.74676513671875
56.9249868562782	0.74676513671875
56.934986856253	0.74676513671875
56.9449868562277	0.74676513671875
56.9549868562025	0.74676513671875
56.9649868561772	0.74676513671875
56.974986856152	0.74676513671875
56.9849868561267	0.74676513671875
56.9949868561015	0.74676513671875
57.0049868560762	0.74676513671875
57.014986856051	0.74676513671875
57.0249868560257	0.7470703125
57.0349868560005	0.74676513671875
57.0449868559753	0.74676513671875
57.05498685595	0.74676513671875
57.0649868559248	0.74676513671875
57.0749868558995	0.7470703125
57.0849868558743	0.7470703125
57.094986855849	0.7470703125
57.1049868558238	0.7470703125
57.1149868557985	0.7470703125
57.1249868557733	0.7470703125
57.134986855748	0.7470703125
57.1449868557228	0.7470703125
57.1549868556975	0.7470703125
57.1649868556723	0.7470703125
57.174986855647	0.7470703125
57.1849868556218	0.7470703125
57.1949868555965	0.7470703125
57.2049868555713	0.7470703125
57.214986855546	0.7470703125
57.2249868555208	0.7470703125
57.2349868554955	0.7470703125
57.2449868554703	0.7470703125
57.2549868554451	0.7470703125
57.2649868554198	0.7470703125
57.2749868553946	0.7470703125
57.2849868553693	0.7470703125
57.2949868553441	0.7470703125
57.3049868553188	0.7470703125
57.3149868552936	0.7470703125
57.3249868552683	0.7470703125
57.3349868552431	0.7470703125
57.3449868552178	0.7470703125
57.3549868551926	0.7470703125
57.3649868551673	0.7470703125
57.3749868551421	0.7470703125
57.3849868551168	0.7470703125
57.3949868550916	0.7470703125
57.4049868550663	0.7470703125
57.4149868550411	0.7470703125
57.4249868550158	0.7470703125
57.4349868549906	0.7470703125
57.4449868549654	0.7470703125
57.4549868549401	0.7470703125
57.4649868549149	0.7470703125
57.4749868548896	0.74737548828125
57.4849868548644	0.74737548828125
57.4949868548391	0.7470703125
57.5049868548139	0.74737548828125
57.5149868547886	0.7470703125
57.5249868547634	0.7470703125
57.5349868547381	0.7470703125
57.5449868547129	0.7470703125
57.5549868546876	0.7470703125
57.5649868546624	0.7470703125
57.5749868546371	0.7470703125
57.5849868546119	0.74737548828125
57.5949868545866	0.74737548828125
57.6049868545614	0.7470703125
57.6149868545361	0.7470703125
57.6249868545109	0.74737548828125
57.6349868544856	0.74737548828125
57.6449868544604	0.74737548828125
57.6549868544352	0.74737548828125
57.6649868544099	0.74737548828125
57.6749868543847	0.74737548828125
57.6849868543594	0.74737548828125
57.6949868543342	0.74737548828125
57.7049868543089	0.74737548828125
57.7149868542837	0.74737548828125
57.7249868542584	0.74737548828125
57.7349868542332	0.74737548828125
57.7449868542079	0.74737548828125
57.7549868541827	0.74737548828125
57.7649868541574	0.74737548828125
57.7749868541322	0.74737548828125
57.7849868541069	0.74737548828125
57.7949868540817	0.74737548828125
57.8049868540564	0.74737548828125
57.8149868540312	0.74737548828125
57.8249868540059	0.74737548828125
57.8349868539807	0.74737548828125
57.8449868539554	0.74737548828125
57.8549868539302	0.74737548828125
57.864986853905	0.74737548828125
57.8749868538797	0.74737548828125
57.8849868538545	0.74737548828125
57.8949868538292	0.74737548828125
57.904986853804	0.74737548828125
57.9149868537787	0.74737548828125
57.9249868537535	0.74737548828125
57.9349868537282	0.74737548828125
57.944986853703	0.74737548828125
57.9549868536777	0.74737548828125
57.9649868536525	0.74737548828125
57.9749868536272	0.7476806640625
57.984986853602	0.7476806640625
57.9949868535767	0.74737548828125
58.0049868535515	0.74737548828125
58.0149868535262	0.74737548828125
58.024986853501	0.7476806640625
58.0349868534757	0.7476806640625
58.0449868534505	0.7476806640625
58.0549868534252	0.7476806640625
58.0649868534	0.7476806640625
58.0749868533748	0.7476806640625
58.0849868533495	0.7476806640625
58.0949868533243	0.7476806640625
58.104986853299	0.7476806640625
58.1149868532738	0.7476806640625
58.1249868532485	0.7476806640625
58.1349868532233	0.7476806640625
58.144986853198	0.7476806640625
58.1549868531728	0.7476806640625
58.1649868531475	0.7476806640625
58.1749868531223	0.7476806640625
58.184986853097	0.7476806640625
58.1949868530718	0.7476806640625
58.2049868530465	0.7476806640625
58.2149868530213	0.7476806640625
58.224986852996	0.7476806640625
58.2349868529708	0.7476806640625
58.2449868529455	0.7476806640625
58.2549868529203	0.7476806640625
58.264986852895	0.7476806640625
58.2749868528698	0.7476806640625
58.2849868528446	0.7476806640625
58.2949868528193	0.7476806640625
58.3049868527941	0.7476806640625
58.3149868527688	0.7476806640625
58.3249868527436	0.7476806640625
58.3349868527183	0.7476806640625
58.3449868526931	0.7476806640625
58.3549868526678	0.7476806640625
58.3649868526426	0.7476806640625
58.3749868526173	0.7476806640625
58.3849868525921	0.7476806640625
58.3949868525668	0.7476806640625
58.4049868525416	0.7476806640625
58.4149868525163	0.7476806640625
58.4249868524911	0.7476806640625
58.4349868524658	0.7476806640625
58.4449868524406	0.7476806640625
58.4549868524153	0.7476806640625
58.4649868523901	0.7476806640625
58.4749868523649	0.7476806640625
