Time (s)	WE(1).Potential (V)
64.8056978363813	0.94024658203125
64.8156978363561	0.94024658203125
64.8256978363308	0.94024658203125
64.8356978363056	0.94024658203125
64.8456978362804	0.94024658203125
64.8556978362551	0.94024658203125
64.8656978362299	0.94024658203125
64.8756978362046	0.94024658203125
64.8856978361794	0.94024658203125
64.8956978361541	0.94024658203125
64.9056978361289	0.94024658203125
64.9156978361036	0.94024658203125
64.9256978360784	0.94024658203125
64.9356978360531	0.9405517578125
64.9456978360279	0.9405517578125
64.9556978360026	0.9405517578125
64.9656978359774	0.9405517578125
64.9756978359521	0.9405517578125
64.9856978359269	0.9405517578125
64.9956978359016	0.9405517578125
65.0056978358764	0.9405517578125
65.0156978358511	0.9405517578125
65.0256978358259	0.9405517578125
65.0356978358006	0.9405517578125
65.0456978357754	0.9405517578125
65.0556978357502	0.9405517578125
65.0656978357249	0.9405517578125
65.0756978356997	0.9405517578125
65.0856978356744	0.9405517578125
65.0956978356492	0.9405517578125
65.1056978356239	0.9405517578125
65.1156978355987	0.9405517578125
65.1256978355734	0.9405517578125
65.1356978355482	0.9405517578125
65.1456978355229	0.9405517578125
65.1556978354977	0.9405517578125
65.1656978354724	0.9405517578125
65.1756978354472	0.9405517578125
65.1856978354219	0.9405517578125
65.1956978353967	0.9405517578125
65.2056978353714	0.9405517578125
65.2156978353462	0.9405517578125
65.2256978353209	0.9405517578125
65.2356978352957	0.9405517578125
65.2456978352704	0.9405517578125
65.2556978352452	0.9405517578125
65.26569783522	0.9405517578125
65.2756978351947	0.9405517578125
65.2856978351695	0.9405517578125
65.2956978351442	0.9405517578125
65.305697835119	0.9405517578125
65.3156978350937	0.9405517578125
65.3256978350685	0.9405517578125
65.3356978350432	0.9405517578125
65.345697835018	0.9405517578125
65.3556978349927	0.9405517578125
65.3656978349675	0.9405517578125
65.3756978349422	0.9405517578125
65.385697834917	0.9405517578125
65.3956978348917	0.9405517578125
65.4056978348665	0.9405517578125
65.4156978348412	0.9405517578125
65.425697834816	0.9405517578125
65.4356978347907	0.9405517578125
65.4456978347655	0.9405517578125
65.4556978347402	0.9405517578125
65.465697834715	0.9405517578125
65.4756978346898	0.9405517578125
65.4856978346645	0.9405517578125
65.4956978346393	0.9405517578125
65.505697834614	0.9405517578125
65.5156978345888	0.9405517578125
65.5256978345635	0.9405517578125
65.5356978345383	0.9405517578125
65.545697834513	0.9405517578125
65.5556978344878	0.9405517578125
65.5656978344625	0.9405517578125
65.5756978344373	0.9405517578125
65.585697834412	0.9405517578125
65.5956978343868	0.9405517578125
65.6056978343615	0.9405517578125
65.6156978343363	0.9405517578125
65.625697834311	0.9405517578125
65.6356978342858	0.9405517578125
65.6456978342605	0.9405517578125
65.6556978342353	0.9405517578125
65.6656978342101	0.9405517578125
65.6756978341848	0.9405517578125
65.6856978341596	0.9405517578125
65.6956978341343	0.9405517578125
65.7056978341091	0.9405517578125
65.7156978340838	0.9405517578125
65.7256978340586	0.9405517578125
65.7356978340333	0.9405517578125
65.7456978340081	0.9405517578125
65.7556978339828	0.9405517578125
65.7656978339576	0.9405517578125
65.7756978339323	0.9405517578125
65.7856978339071	0.9405517578125
65.7956978338818	0.9405517578125
65.8056978338566	0.9405517578125
65.8156978338313	0.9405517578125
65.8256978338061	0.9405517578125
65.8356978337808	0.9405517578125
65.8456978337556	0.9405517578125
65.8556978337303	0.9405517578125
65.8656978337051	0.9405517578125
65.8756978336799	0.9405517578125
65.8856978336546	0.9405517578125
65.8956978336294	0.9405517578125
65.9056978336041	0.9405517578125
65.9156978335789	0.9405517578125
65.9256978335536	0.9405517578125
65.9356978335284	0.9405517578125
65.9456978335031	0.94024658203125
65.9556978334779	0.9405517578125
65.9656978334526	0.9405517578125
65.9756978334274	0.94024658203125
65.9856978334021	0.94024658203125
65.9956978333769	0.94024658203125
66.0056978333516	0.9405517578125
66.0156978333264	0.94024658203125
66.0256978333011	0.94024658203125
66.0356978332759	0.94024658203125
66.0456978332506	0.94024658203125
66.0556978332254	0.94024658203125
66.0656978332001	0.94024658203125
66.0756978331749	0.94024658203125
66.0856978331497	0.94024658203125
66.0956978331244	0.94024658203125
66.1056978330992	0.94024658203125
66.1156978330739	0.94024658203125
66.1256978330487	0.94024658203125
66.1356978330234	0.94024658203125
66.1456978329982	0.94024658203125
66.1556978329729	0.94024658203125
66.1656978329477	0.94024658203125
66.1756978329224	0.94024658203125
66.1856978328972	0.94024658203125
66.1956978328719	0.94024658203125
66.2056978328467	0.94024658203125
66.2156978328214	0.94024658203125
66.2256978327962	0.94024658203125
66.2356978327709	0.94024658203125
66.2456978327457	0.94024658203125
66.2556978327204	0.94024658203125
66.2656978326952	0.94024658203125
66.2756978326699	0.94024658203125
66.2856978326447	0.94024658203125
66.2956978326195	0.94024658203125
66.3056978325942	0.94024658203125
66.315697832569	0.94024658203125
66.3256978325437	0.94024658203125
66.3356978325185	0.94024658203125
66.3456978324932	0.94024658203125
66.355697832468	0.94024658203125
66.3656978324427	0.94024658203125
66.3756978324175	0.94024658203125
66.3856978323922	0.94024658203125
66.395697832367	0.94024658203125
66.4056978323417	0.94024658203125
66.4156978323165	0.94024658203125
66.4256978322912	0.94024658203125
66.435697832266	0.94024658203125
66.4456978322407	0.94024658203125
66.4556978322155	0.93994140625
66.4656978321902	0.93994140625
66.475697832165	0.93994140625
66.4856978321397	0.93994140625
66.4956978321145	0.93994140625
66.5056978320893	0.93994140625
66.515697832064	0.93994140625
66.5256978320388	0.93994140625
66.5356978320135	0.93994140625
66.5456978319883	0.93994140625
66.555697831963	0.93994140625
66.5656978319378	0.93994140625
66.5756978319125	0.93994140625
66.5856978318873	0.93994140625
66.595697831862	0.93994140625
66.6056978318368	0.93994140625
66.6156978318115	0.93994140625
66.6256978317863	0.93994140625
66.635697831761	0.93994140625
66.6456978317358	0.93994140625
66.6556978317105	0.93994140625
66.6656978316853	0.93994140625
66.67569783166	0.93994140625
66.6856978316348	0.93994140625
66.6956978316096	0.93994140625
66.7056978315843	0.93994140625
66.7156978315591	0.93994140625
66.7256978315338	0.93994140625
66.7356978315086	0.93994140625
66.7456978314833	0.93994140625
66.7556978314581	0.93994140625
66.7656978314328	0.93994140625
66.7756978314076	0.93994140625
66.7856978313823	0.93994140625
66.7956978313571	0.93994140625
66.8056978313318	0.93963623046875
66.8156978313066	0.93963623046875
66.8256978312813	0.93963623046875
66.8356978312561	0.93963623046875
66.8456978312308	0.93963623046875
66.8556978312056	0.93963623046875
66.8656978311803	0.93963623046875
66.8756978311551	0.93963623046875
66.8856978311298	0.93963623046875
66.8956978311046	0.93963623046875
66.9056978310794	0.93963623046875
66.9156978310541	0.93963623046875
66.9256978310289	0.93963623046875
66.9356978310036	0.93963623046875
66.9456978309784	0.93963623046875
66.9556978309531	0.93963623046875
66.9656978309279	0.93963623046875
66.9756978309026	0.93963623046875
66.9856978308774	0.93963623046875
66.9956978308521	0.93963623046875
67.0056978308269	0.93963623046875
67.0156978308016	0.93963623046875
67.0256978307764	0.93963623046875
67.0356978307511	0.93963623046875
67.0456978307259	0.93963623046875
67.0556978307006	0.93963623046875
67.0656978306754	0.93963623046875
67.0756978306501	0.93963623046875
67.0856978306249	0.93963623046875
67.0956978305996	0.93963623046875
67.1056978305744	0.93963623046875
67.1156978305492	0.93963623046875
67.1256978305239	0.93963623046875
67.1356978304987	0.9393310546875
67.1456978304734	0.9393310546875
67.1556978304482	0.9393310546875
67.1656978304229	0.9393310546875
67.1756978303977	0.9393310546875
67.1856978303724	0.9393310546875
67.1956978303472	0.9393310546875
67.2056978303219	0.9393310546875
67.2156978302967	0.9393310546875
67.2256978302714	0.9393310546875
67.2356978302462	0.9393310546875
67.2456978302209	0.9393310546875
67.2556978301957	0.9393310546875
67.2656978301704	0.9393310546875
67.2756978301452	0.9393310546875
67.2856978301199	0.9393310546875
67.2956978300947	0.9393310546875
67.3056978300694	0.9393310546875
67.3156978300442	0.9393310546875
67.325697830019	0.9393310546875
67.3356978299937	0.9393310546875
67.3456978299685	0.9393310546875
67.3556978299432	0.9393310546875
67.365697829918	0.9393310546875
67.3756978298927	0.9393310546875
67.3856978298675	0.9393310546875
67.3956978298422	0.9393310546875
67.405697829817	0.9393310546875
67.4156978297917	0.9393310546875
67.4256978297665	0.9393310546875
67.4356978297412	0.9393310546875
67.445697829716	0.9393310546875
67.4556978296907	0.9393310546875
67.4656978296655	0.93902587890625
67.4756978296402	0.9393310546875
67.485697829615	0.93902587890625
67.4956978295897	0.93902587890625
67.5056978295645	0.93902587890625
67.5156978295392	0.93902587890625
67.525697829514	0.93902587890625
67.5356978294888	0.93902587890625
67.5456978294635	0.93902587890625
67.5556978294383	0.93902587890625
67.565697829413	0.93902587890625
67.5756978293878	0.93902587890625
67.5856978293625	0.93902587890625
67.5956978293373	0.93902587890625
67.605697829312	0.93902587890625
67.6156978292868	0.93902587890625
67.6256978292615	0.93902587890625
67.6356978292363	0.93902587890625
67.645697829211	0.93902587890625
67.6556978291858	0.93902587890625
67.6656978291605	0.93902587890625
67.6756978291353	0.93902587890625
67.68569782911	0.93902587890625
67.6956978290848	0.93902587890625
67.7056978290595	0.93902587890625
67.7156978290343	0.938720703125
67.7256978290091	0.93902587890625
67.7356978289838	0.938720703125
67.7456978289586	0.938720703125
67.7556978289333	0.938720703125
67.7656978289081	0.938720703125
67.7756978288828	0.938720703125
67.7856978288576	0.938720703125
67.7956978288323	0.938720703125
67.8056978288071	0.938720703125
67.8156978287818	0.938720703125
67.8256978287566	0.938720703125
67.8356978287313	0.938720703125
67.8456978287061	0.938720703125
67.8556978286808	0.938720703125
67.8656978286556	0.938720703125
67.8756978286303	0.938720703125
67.8856978286051	0.938720703125
67.8956978285798	0.938720703125
67.9056978285546	0.938720703125
67.9156978285293	0.938720703125
67.9256978285041	0.938720703125
67.9356978284789	0.938720703125
67.9456978284536	0.938720703125
67.9556978284284	0.93841552734375
67.9656978284031	0.93841552734375
67.9756978283779	0.938720703125
67.9856978283526	0.93841552734375
67.9956978283274	0.93841552734375
68.0056978283021	0.93841552734375
68.0156978282769	0.93841552734375
68.0256978282516	0.93841552734375
68.0356978282264	0.93841552734375
68.0456978282011	0.93841552734375
68.0556978281759	0.93841552734375
68.0656978281506	0.93841552734375
68.0756978281254	0.93841552734375
68.0856978281001	0.93841552734375
68.0956978280749	0.93841552734375
68.1056978280496	0.93841552734375
68.1156978280244	0.93841552734375
68.1256978279991	0.93841552734375
68.1356978279739	0.93841552734375
68.1456978279487	0.93841552734375
68.1556978279234	0.93841552734375
68.1656978278982	0.93841552734375
68.1756978278729	0.93841552734375
68.1856978278477	0.93841552734375
68.1956978278224	0.93841552734375
68.2056978277972	0.93841552734375
68.2156978277719	0.93841552734375
68.2256978277467	0.93841552734375
68.2356978277214	0.93841552734375
68.2456978276962	0.93841552734375
68.2556978276709	0.93841552734375
68.2656978276457	0.93841552734375
68.2756978276204	0.93841552734375
68.2856978275952	0.93841552734375
68.2956978275699	0.93841552734375
68.3056978275447	0.93841552734375
68.3156978275194	0.93841552734375
68.3256978274942	0.93841552734375
68.3356978274689	0.93841552734375
68.3456978274437	0.93841552734375
68.3556978274185	0.93841552734375
68.3656978273932	0.93841552734375
68.375697827368	0.93841552734375
68.3856978273427	0.93841552734375
68.3956978273175	0.93841552734375
68.4056978272922	0.93841552734375
68.415697827267	0.93841552734375
68.4256978272417	0.93841552734375
68.4356978272165	0.93841552734375
68.4456978271912	0.93841552734375
68.455697827166	0.93841552734375
68.4656978271407	0.93841552734375
68.4756978271155	0.93841552734375
68.4856978270902	0.93841552734375
68.495697827065	0.93841552734375
68.5056978270397	0.93841552734375
68.5156978270145	0.93841552734375
68.5256978269892	0.93841552734375
68.535697826964	0.93841552734375
68.5456978269387	0.93841552734375
68.5556978269135	0.93841552734375
68.5656978268883	0.93841552734375
68.575697826863	0.93841552734375
68.5856978268378	0.93841552734375
68.5956978268125	0.93841552734375
68.6056978267873	0.93841552734375
68.615697826762	0.93841552734375
68.6256978267368	0.93841552734375
68.6356978267115	0.93841552734375
68.6456978266863	0.93841552734375
68.655697826661	0.93841552734375
68.6656978266358	0.93841552734375
68.6756978266105	0.93841552734375
68.6856978265853	0.93841552734375
68.69569782656	0.93841552734375
68.7056978265348	0.93841552734375
68.7156978265095	0.93841552734375
68.7256978264843	0.93841552734375
68.735697826459	0.93841552734375
68.7456978264338	0.93841552734375
68.7556978264086	0.93841552734375
68.7656978263833	0.93841552734375
68.7756978263581	0.93841552734375
68.7856978263328	0.93841552734375
68.7956978263076	0.93841552734375
68.8056978262823	0.93841552734375
68.8156978262571	0.93841552734375
68.8256978262318	0.93841552734375
68.8356978262066	0.93841552734375
68.8456978261813	0.93841552734375
68.8556978261561	0.93841552734375
68.8656978261308	0.93841552734375
68.8756978261056	0.93841552734375
68.8856978260803	0.93841552734375
68.8956978260551	0.93841552734375
68.9056978260298	0.93841552734375
68.9156978260046	0.93841552734375
68.9256978259793	0.93841552734375
68.9356978259541	0.93841552734375
68.9456978259288	0.93841552734375
68.9556978259036	0.93841552734375
68.9656978258784	0.93841552734375
68.9756978258531	0.93841552734375
68.9856978258279	0.93841552734375
68.9956978258026	0.93841552734375
69.0056978257774	0.93841552734375
69.0156978257521	0.93841552734375
69.0256978257269	0.938720703125
69.0356978257016	0.938720703125
69.0456978256764	0.93841552734375
69.0556978256511	0.93841552734375
69.0656978256259	0.938720703125
69.0756978256006	0.938720703125
69.0856978255754	0.93841552734375
69.0956978255501	0.938720703125
69.1056978255249	0.938720703125
69.1156978254996	0.938720703125
69.1256978254744	0.938720703125
69.1356978254491	0.938720703125
69.1456978254239	0.938720703125
69.1556978253986	0.938720703125
69.1656978253734	0.938720703125
69.1756978253482	0.938720703125
69.1856978253229	0.938720703125
69.1956978252977	0.938720703125
69.2056978252724	0.938720703125
69.2156978252472	0.938720703125
69.2256978252219	0.938720703125
69.2356978251967	0.938720703125
69.2456978251714	0.938720703125
69.2556978251462	0.938720703125
69.2656978251209	0.938720703125
69.2756978250957	0.938720703125
69.2856978250704	0.938720703125
69.2956978250452	0.938720703125
69.3056978250199	0.938720703125
69.3156978249947	0.938720703125
69.3256978249694	0.938720703125
69.3356978249442	0.938720703125
69.3456978249189	0.938720703125
69.3556978248937	0.938720703125
69.3656978248684	0.938720703125
69.3756978248432	0.938720703125
69.385697824818	0.938720703125
69.3956978247927	0.938720703125
69.4056978247675	0.938720703125
69.4156978247422	0.938720703125
69.425697824717	0.938720703125
69.4356978246917	0.938720703125
69.4456978246665	0.93902587890625
69.4556978246412	0.938720703125
69.465697824616	0.938720703125
69.4756978245907	0.938720703125
69.4856978245655	0.93902587890625
69.4956978245402	0.93902587890625
69.505697824515	0.93902587890625
69.5156978244897	0.93902587890625
69.5256978244645	0.93902587890625
69.5356978244392	0.93902587890625
69.545697824414	0.93902587890625
69.5556978243887	0.93902587890625
69.5656978243635	0.93902587890625
69.5756978243382	0.93902587890625
69.585697824313	0.93902587890625
69.5956978242878	0.93902587890625
69.6056978242625	0.93902587890625
69.6156978242373	0.93902587890625
69.625697824212	0.93902587890625
69.6356978241868	0.93902587890625
69.6456978241615	0.93902587890625
69.6556978241363	0.93902587890625
69.665697824111	0.93902587890625
69.6756978240858	0.93902587890625
69.6856978240605	0.93902587890625
69.6956978240353	0.93902587890625
69.70569782401	0.93902587890625
69.7156978239848	0.93902587890625
69.7256978239595	0.93902587890625
69.7356978239343	0.93902587890625
69.745697823909	0.93902587890625
69.7556978238838	0.93902587890625
69.7656978238585	0.93902587890625
69.7756978238333	0.93902587890625
69.7856978238081	0.93902587890625
69.7956978237828	0.93902587890625
