Time (s)	WE(1).Potential (V)
80.7469167961336	0.9368896484375
80.7569167961084	0.9368896484375
80.7669167960831	0.9368896484375
80.7769167960579	0.93658447265625
80.7869167960326	0.93658447265625
80.7969167960074	0.93658447265625
80.8069167959821	0.93658447265625
80.8169167959569	0.93658447265625
80.8269167959317	0.93658447265625
80.8369167959064	0.93658447265625
80.8469167958812	0.93658447265625
80.8569167958559	0.93658447265625
80.8669167958307	0.93658447265625
80.8769167958054	0.93658447265625
80.8869167957802	0.93658447265625
80.8969167957549	0.93658447265625
80.9069167957297	0.93658447265625
80.9169167957044	0.93658447265625
80.9269167956792	0.93658447265625
80.9369167956539	0.93658447265625
80.9469167956287	0.93658447265625
80.9569167956034	0.93658447265625
80.9669167955782	0.93658447265625
80.9769167955529	0.93658447265625
80.9869167955277	0.93658447265625
80.9969167955024	0.93658447265625
81.0069167954772	0.93658447265625
81.0169167954519	0.93658447265625
81.0269167954267	0.93658447265625
81.0369167954015	0.93658447265625
81.0469167953762	0.93658447265625
81.056916795351	0.93658447265625
81.0669167953257	0.93658447265625
81.0769167953005	0.93658447265625
81.0869167952752	0.93658447265625
81.09691679525	0.93658447265625
81.1069167952247	0.93658447265625
81.1169167951995	0.93658447265625
81.1269167951742	0.93658447265625
81.136916795149	0.93658447265625
81.1469167951237	0.93658447265625
81.1569167950985	0.93658447265625
81.1669167950732	0.93658447265625
81.176916795048	0.93658447265625
81.1869167950227	0.93658447265625
81.1969167949975	0.93658447265625
81.2069167949722	0.93658447265625
81.216916794947	0.93658447265625
81.2269167949217	0.93658447265625
81.2369167948965	0.93658447265625
81.2469167948713	0.93658447265625
81.256916794846	0.93658447265625
81.2669167948208	0.93658447265625
81.2769167947955	0.93658447265625
81.2869167947703	0.93658447265625
81.296916794745	0.93658447265625
81.3069167947198	0.93658447265625
81.3169167946945	0.93658447265625
81.3269167946693	0.93658447265625
81.336916794644	0.93658447265625
81.3469167946188	0.93658447265625
81.3569167945935	0.93658447265625
81.3669167945683	0.936279296875
81.376916794543	0.93658447265625
81.3869167945178	0.936279296875
81.3969167944925	0.936279296875
81.4069167944673	0.93658447265625
81.416916794442	0.936279296875
81.4269167944168	0.93658447265625
81.4369167943915	0.936279296875
81.4469167943663	0.936279296875
81.4569167943411	0.93658447265625
81.4669167943158	0.936279296875
81.4769167942906	0.936279296875
81.4869167942653	0.936279296875
81.4969167942401	0.936279296875
81.5069167942148	0.936279296875
81.5169167941896	0.936279296875
81.5269167941643	0.936279296875
81.5369167941391	0.936279296875
81.5469167941138	0.936279296875
81.5569167940886	0.936279296875
81.5669167940633	0.936279296875
81.5769167940381	0.936279296875
81.5869167940128	0.936279296875
81.5969167939876	0.936279296875
81.6069167939623	0.936279296875
81.6169167939371	0.936279296875
81.6269167939118	0.936279296875
81.6369167938866	0.936279296875
81.6469167938614	0.936279296875
81.6569167938361	0.936279296875
81.6669167938109	0.936279296875
81.6769167937856	0.936279296875
81.6869167937604	0.936279296875
81.6969167937351	0.936279296875
81.7069167937099	0.936279296875
81.7169167936846	0.936279296875
81.7269167936594	0.936279296875
81.7369167936341	0.936279296875
81.7469167936089	0.936279296875
81.7569167935836	0.936279296875
81.7669167935584	0.936279296875
81.7769167935331	0.936279296875
81.7869167935079	0.936279296875
81.7969167934826	0.936279296875
81.8069167934574	0.936279296875
81.8169167934321	0.936279296875
81.8269167934069	0.936279296875
81.8369167933816	0.936279296875
81.8469167933564	0.936279296875
81.8569167933312	0.936279296875
81.8669167933059	0.936279296875
81.8769167932807	0.936279296875
81.8869167932554	0.936279296875
81.8969167932302	0.936279296875
81.9069167932049	0.936279296875
81.9169167931797	0.936279296875
81.9269167931544	0.936279296875
81.9369167931292	0.936279296875
81.9469167931039	0.936279296875
81.9569167930787	0.936279296875
81.9669167930534	0.936279296875
81.9769167930282	0.936279296875
81.9869167930029	0.936279296875
81.9969167929777	0.936279296875
82.0069167929524	0.936279296875
82.0169167929272	0.936279296875
82.0269167929019	0.936279296875
82.0369167928767	0.936279296875
82.0469167928514	0.936279296875
82.0569167928262	0.936279296875
82.066916792801	0.936279296875
82.0769167927757	0.936279296875
82.0869167927505	0.936279296875
82.0969167927252	0.936279296875
82.1069167927	0.936279296875
82.1169167926747	0.936279296875
82.1269167926495	0.93597412109375
82.1369167926242	0.936279296875
82.146916792599	0.93597412109375
82.1569167925737	0.93597412109375
82.1669167925485	0.93597412109375
82.1769167925232	0.93597412109375
82.186916792498	0.93597412109375
82.1969167924727	0.93597412109375
82.2069167924475	0.93597412109375
82.2169167924222	0.93597412109375
82.226916792397	0.93597412109375
82.2369167923717	0.93597412109375
82.2469167923465	0.93597412109375
82.2569167923212	0.93597412109375
82.266916792296	0.93597412109375
82.2769167922708	0.93597412109375
82.2869167922455	0.93597412109375
82.2969167922203	0.93597412109375
82.306916792195	0.93597412109375
82.3169167921698	0.93597412109375
82.3269167921445	0.93597412109375
82.3369167921193	0.93597412109375
82.346916792094	0.93597412109375
82.3569167920688	0.93597412109375
82.3669167920435	0.93597412109375
82.3769167920183	0.93597412109375
82.386916791993	0.93597412109375
82.3969167919678	0.93597412109375
82.4069167919425	0.93597412109375
82.4169167919173	0.93597412109375
82.426916791892	0.93597412109375
82.4369167918668	0.93597412109375
82.4469167918415	0.93597412109375
82.4569167918163	0.93597412109375
82.466916791791	0.93597412109375
82.4769167917658	0.93597412109375
82.4869167917406	0.93597412109375
82.4969167917153	0.93597412109375
82.5069167916901	0.93597412109375
82.5169167916648	0.93597412109375
82.5269167916396	0.93597412109375
82.5369167916143	0.93597412109375
82.5469167915891	0.93597412109375
82.5569167915638	0.93597412109375
82.5669167915386	0.93597412109375
82.5769167915133	0.93597412109375
82.5869167914881	0.93597412109375
82.5969167914628	0.93597412109375
82.6069167914376	0.93597412109375
82.6169167914123	0.93597412109375
82.6269167913871	0.93597412109375
82.6369167913618	0.93597412109375
82.6469167913366	0.93597412109375
82.6569167913113	0.93597412109375
82.6669167912861	0.93597412109375
82.6769167912609	0.93597412109375
82.6869167912356	0.93597412109375
82.6969167912104	0.93597412109375
82.7069167911851	0.93597412109375
82.7169167911599	0.93597412109375
82.7269167911346	0.93597412109375
82.7369167911094	0.93597412109375
82.7469167910841	0.93597412109375
82.7569167910589	0.93597412109375
82.7669167910336	0.93597412109375
82.7769167910084	0.93597412109375
82.7869167909831	0.93597412109375
82.7969167909579	0.93597412109375
82.8069167909326	0.93597412109375
82.8169167909074	0.93597412109375
82.8269167908821	0.93597412109375
82.8369167908569	0.93597412109375
82.8469167908316	0.93597412109375
82.8569167908064	0.93597412109375
82.8669167907811	0.93597412109375
82.8769167907559	0.93597412109375
82.8869167907307	0.93597412109375
82.8969167907054	0.93597412109375
82.9069167906802	0.93597412109375
82.9169167906549	0.93597412109375
82.9269167906297	0.93597412109375
82.9369167906044	0.93597412109375
82.9469167905792	0.93597412109375
82.9569167905539	0.9356689453125
82.9669167905287	0.93597412109375
82.9769167905034	0.93597412109375
82.9869167904782	0.93597412109375
82.9969167904529	0.9356689453125
83.0069167904277	0.9356689453125
83.0169167904024	0.93597412109375
83.0269167903772	0.9356689453125
83.0369167903519	0.9356689453125
83.0469167903267	0.93597412109375
83.0569167903014	0.9356689453125
83.0669167902762	0.9356689453125
83.0769167902509	0.9356689453125
83.0869167902257	0.93597412109375
83.0969167902005	0.9356689453125
83.1069167901752	0.9356689453125
83.11691679015	0.9356689453125
83.1269167901247	0.9356689453125
83.1369167900995	0.93597412109375
83.1469167900742	0.9356689453125
83.156916790049	0.9356689453125
83.1669167900237	0.9356689453125
83.1769167899985	0.93597412109375
83.1869167899732	0.9356689453125
83.196916789948	0.9356689453125
83.2069167899227	0.93597412109375
83.2169167898975	0.9356689453125
83.2269167898722	0.9356689453125
83.236916789847	0.9356689453125
83.2469167898217	0.9356689453125
83.2569167897965	0.9356689453125
83.2669167897712	0.9356689453125
83.276916789746	0.9356689453125
83.2869167897207	0.93597412109375
83.2969167896955	0.93597412109375
83.3069167896703	0.9356689453125
83.316916789645	0.9356689453125
83.3269167896198	0.9356689453125
83.3369167895945	0.9356689453125
83.3469167895693	0.9356689453125
83.356916789544	0.9356689453125
83.3669167895188	0.9356689453125
83.3769167894935	0.93597412109375
83.3869167894683	0.93597412109375
83.396916789443	0.9356689453125
83.4069167894178	0.9356689453125
83.4169167893925	0.9356689453125
83.4269167893673	0.9356689453125
83.436916789342	0.9356689453125
83.4469167893168	0.9356689453125
83.4569167892915	0.93597412109375
83.4669167892663	0.93597412109375
83.476916789241	0.9356689453125
83.4869167892158	0.93597412109375
83.4969167891905	0.93597412109375
83.5069167891653	0.93597412109375
83.5169167891401	0.9356689453125
83.5269167891148	0.93597412109375
83.5369167890896	0.93597412109375
83.5469167890643	0.93597412109375
83.5569167890391	0.9356689453125
83.5669167890138	0.93597412109375
83.5769167889886	0.93597412109375
83.5869167889633	0.93597412109375
83.5969167889381	0.93597412109375
83.6069167889128	0.93597412109375
83.6169167888876	0.93597412109375
83.6269167888623	0.93597412109375
83.6369167888371	0.93597412109375
83.6469167888118	0.93597412109375
83.6569167887866	0.93597412109375
83.6669167887613	0.93597412109375
83.6769167887361	0.93597412109375
83.6869167887108	0.93597412109375
83.6969167886856	0.93597412109375
83.7069167886604	0.93597412109375
83.7169167886351	0.93597412109375
83.7269167886099	0.93597412109375
83.7369167885846	0.93597412109375
83.7469167885594	0.93597412109375
83.7569167885341	0.93597412109375
83.7669167885089	0.93597412109375
83.7769167884836	0.93597412109375
83.7869167884584	0.93597412109375
83.7969167884331	0.93597412109375
83.8069167884079	0.93597412109375
83.8169167883826	0.93597412109375
83.8269167883574	0.93597412109375
83.8369167883321	0.93597412109375
83.8469167883069	0.93597412109375
83.8569167882816	0.93597412109375
83.8669167882564	0.93597412109375
83.8769167882311	0.93597412109375
83.8869167882059	0.93597412109375
83.8969167881806	0.93597412109375
83.9069167881554	0.93597412109375
83.9169167881302	0.93597412109375
83.9269167881049	0.93597412109375
83.9369167880797	0.93597412109375
83.9469167880544	0.93597412109375
83.9569167880292	0.93597412109375
83.9669167880039	0.93597412109375
83.9769167879787	0.93597412109375
83.9869167879534	0.93597412109375
83.9969167879282	0.93597412109375
84.0069167879029	0.93597412109375
84.0169167878777	0.93597412109375
84.0269167878524	0.93597412109375
84.0369167878272	0.93597412109375
84.0469167878019	0.93597412109375
84.0569167877767	0.93597412109375
84.0669167877514	0.93597412109375
84.0769167877262	0.93597412109375
84.0869167877009	0.93597412109375
84.0969167876757	0.93597412109375
84.1069167876504	0.93597412109375
84.1169167876252	0.93597412109375
84.1269167876	0.93597412109375
84.1369167875747	0.93597412109375
84.1469167875495	0.93597412109375
84.1569167875242	0.93597412109375
84.166916787499	0.93597412109375
84.1769167874737	0.93597412109375
84.1869167874485	0.93597412109375
84.1969167874232	0.93597412109375
84.206916787398	0.93597412109375
84.2169167873727	0.93597412109375
84.2269167873475	0.93597412109375
84.2369167873222	0.93597412109375
84.246916787297	0.93597412109375
84.2569167872717	0.93597412109375
84.2669167872465	0.93597412109375
84.2769167872212	0.93597412109375
84.286916787196	0.93597412109375
84.2969167871707	0.93597412109375
84.3069167871455	0.93597412109375
84.3169167871202	0.93597412109375
84.326916787095	0.93597412109375
84.3369167870698	0.93597412109375
84.3469167870445	0.93597412109375
84.3569167870193	0.93597412109375
84.366916786994	0.93597412109375
84.3769167869688	0.93597412109375
84.3869167869435	0.93597412109375
84.3969167869183	0.93597412109375
84.406916786893	0.93597412109375
84.4169167868678	0.93597412109375
84.4269167868425	0.936279296875
84.4369167868173	0.93597412109375
84.446916786792	0.936279296875
84.4569167867668	0.93597412109375
84.4669167867415	0.936279296875
84.4769167867163	0.936279296875
84.486916786691	0.936279296875
84.4969167866658	0.936279296875
84.5069167866405	0.936279296875
84.5169167866153	0.936279296875
84.52691678659	0.936279296875
84.5369167865648	0.936279296875
84.5469167865396	0.936279296875
84.5569167865143	0.936279296875
84.5669167864891	0.936279296875
84.5769167864638	0.936279296875
84.5869167864386	0.936279296875
84.5969167864133	0.936279296875
84.6069167863881	0.936279296875
84.6169167863628	0.936279296875
84.6269167863376	0.936279296875
84.6369167863123	0.936279296875
84.6469167862871	0.936279296875
84.6569167862618	0.936279296875
84.6669167862366	0.936279296875
84.6769167862113	0.936279296875
84.6869167861861	0.936279296875
84.6969167861608	0.936279296875
84.7069167861356	0.936279296875
84.7169167861103	0.936279296875
84.7269167860851	0.936279296875
84.7369167860599	0.936279296875
84.7469167860346	0.936279296875
84.7569167860094	0.936279296875
84.7669167859841	0.936279296875
84.7769167859589	0.936279296875
84.7869167859336	0.936279296875
84.7969167859084	0.936279296875
84.8069167858831	0.936279296875
84.8169167858579	0.93658447265625
84.8269167858326	0.936279296875
84.8369167858074	0.936279296875
84.8469167857821	0.93658447265625
84.8569167857569	0.93658447265625
84.8669167857316	0.93658447265625
84.8769167857064	0.936279296875
84.8869167856811	0.93658447265625
84.8969167856559	0.93658447265625
84.9069167856306	0.93658447265625
84.9169167856054	0.93658447265625
84.9269167855801	0.93658447265625
84.9369167855549	0.93658447265625
84.9469167855297	0.93658447265625
84.9569167855044	0.93658447265625
84.9669167854792	0.93658447265625
84.9769167854539	0.93658447265625
84.9869167854287	0.93658447265625
84.9969167854034	0.93658447265625
85.0069167853782	0.93658447265625
85.0169167853529	0.93658447265625
85.0269167853277	0.93658447265625
85.0369167853024	0.93658447265625
85.0469167852772	0.93658447265625
85.0569167852519	0.93658447265625
85.0669167852267	0.93658447265625
85.0769167852014	0.93658447265625
85.0869167851762	0.93658447265625
85.0969167851509	0.93658447265625
85.1069167851257	0.93658447265625
85.1169167851004	0.93658447265625
85.1269167850752	0.93658447265625
85.1369167850499	0.93658447265625
85.1469167850247	0.93658447265625
85.1569167849995	0.93658447265625
85.1669167849742	0.93658447265625
85.176916784949	0.93658447265625
85.1869167849237	0.93658447265625
85.1969167848985	0.93658447265625
85.2069167848732	0.93658447265625
85.216916784848	0.93658447265625
85.2269167848227	0.93658447265625
85.2369167847975	0.93658447265625
85.2469167847722	0.93658447265625
85.256916784747	0.93658447265625
85.2669167847217	0.93658447265625
85.2769167846965	0.93658447265625
85.2869167846712	0.93658447265625
85.296916784646	0.93658447265625
85.3069167846207	0.93658447265625
85.3169167845955	0.93658447265625
85.3269167845702	0.93658447265625
85.336916784545	0.93658447265625
85.3469167845197	0.9368896484375
85.3569167844945	0.9368896484375
85.3669167844693	0.93658447265625
85.376916784444	0.9368896484375
85.3869167844188	0.9368896484375
85.3969167843935	0.9368896484375
85.4069167843683	0.9368896484375
85.416916784343	0.9368896484375
85.4269167843178	0.9368896484375
85.4369167842925	0.9368896484375
85.4469167842673	0.9368896484375
85.456916784242	0.9368896484375
85.4669167842168	0.9368896484375
85.4769167841915	0.9368896484375
85.4869167841663	0.9368896484375
85.496916784141	0.9368896484375
85.5069167841158	0.9368896484375
85.5169167840905	0.9368896484375
85.5269167840653	0.9368896484375
85.53691678404	0.9368896484375
85.5469167840148	0.9368896484375
85.5569167839895	0.9368896484375
85.5669167839643	0.9368896484375
85.5769167839391	0.9368896484375
85.5869167839138	0.9368896484375
85.5969167838886	0.9368896484375
85.6069167838633	0.9368896484375
85.6169167838381	0.9368896484375
85.6269167838128	0.9368896484375
85.6369167837876	0.9368896484375
85.6469167837623	0.9368896484375
85.6569167837371	0.9368896484375
85.6669167837118	0.9368896484375
85.6769167836866	0.9368896484375
85.6869167836613	0.9368896484375
85.6969167836361	0.9368896484375
85.7069167836108	0.9368896484375
85.7169167835856	0.9368896484375
85.7269167835603	0.9368896484375
85.7369167835351	0.9368896484375
