Time (s)	WE(1).Potential (V)
33.0535819165477	0.89111328125
33.0635819165225	0.89111328125
33.0735819164972	0.89111328125
33.083581916472	0.89141845703125
33.0935819164467	0.89141845703125
33.1035819164215	0.89141845703125
33.1135819163962	0.89141845703125
33.123581916371	0.89141845703125
33.1335819163457	0.8917236328125
33.1435819163205	0.8917236328125
33.1535819162953	0.8917236328125
33.16358191627	0.8917236328125
33.1735819162448	0.8917236328125
33.1835819162195	0.8917236328125
33.1935819161943	0.8917236328125
33.203581916169	0.8917236328125
33.2135819161438	0.89202880859375
33.2235819161185	0.89202880859375
33.2335819160933	0.89202880859375
33.243581916068	0.89202880859375
33.2535819160428	0.89202880859375
33.2635819160175	0.89202880859375
33.2735819159923	0.892333984375
33.283581915967	0.892333984375
33.2935819159418	0.892333984375
33.3035819159165	0.892333984375
33.3135819158913	0.892333984375
33.323581915866	0.892333984375
33.3335819158408	0.89263916015625
33.3435819158155	0.89263916015625
33.3535819157903	0.89263916015625
33.3635819157651	0.89263916015625
33.3735819157398	0.89263916015625
33.3835819157146	0.89263916015625
33.3935819156893	0.89263916015625
33.4035819156641	0.89263916015625
33.4135819156388	0.8929443359375
33.4235819156136	0.8929443359375
33.4335819155883	0.8929443359375
33.4435819155631	0.8929443359375
33.4535819155378	0.8929443359375
33.4635819155126	0.8929443359375
33.4735819154873	0.89324951171875
33.4835819154621	0.89324951171875
33.4935819154368	0.89324951171875
33.5035819154116	0.89324951171875
33.5135819153863	0.89324951171875
33.5235819153611	0.89324951171875
33.5335819153358	0.89324951171875
33.5435819153106	0.89324951171875
33.5535819152853	0.8935546875
33.5635819152601	0.8935546875
33.5735819152349	0.8935546875
33.5835819152096	0.8935546875
33.5935819151844	0.8935546875
33.6035819151591	0.8935546875
33.6135819151339	0.8935546875
33.6235819151086	0.89385986328125
33.6335819150834	0.89385986328125
33.6435819150581	0.89385986328125
33.6535819150329	0.89385986328125
33.6635819150076	0.89385986328125
33.6735819149824	0.89385986328125
33.6835819149571	0.89385986328125
33.6935819149319	0.8941650390625
33.7035819149066	0.8941650390625
33.7135819148814	0.8941650390625
33.7235819148561	0.8941650390625
33.7335819148309	0.8941650390625
33.7435819148056	0.8941650390625
33.7535819147804	0.8941650390625
33.7635819147552	0.8941650390625
33.7735819147299	0.89447021484375
33.7835819147047	0.89447021484375
33.7935819146794	0.89447021484375
33.8035819146542	0.89447021484375
33.8135819146289	0.89447021484375
33.8235819146037	0.89447021484375
33.8335819145784	0.894775390625
33.8435819145532	0.89447021484375
33.8535819145279	0.894775390625
33.8635819145027	0.894775390625
33.8735819144774	0.894775390625
33.8835819144522	0.894775390625
33.8935819144269	0.894775390625
33.9035819144017	0.894775390625
33.9135819143764	0.89508056640625
33.9235819143512	0.89508056640625
33.9335819143259	0.89508056640625
33.9435819143007	0.89508056640625
33.9535819142754	0.89508056640625
33.9635819142502	0.89508056640625
33.973581914225	0.89508056640625
33.9835819141997	0.89508056640625
33.9935819141745	0.89508056640625
34.0035819141492	0.8953857421875
34.013581914124	0.8953857421875
34.0235819140987	0.8953857421875
34.0335819140735	0.8953857421875
34.0435819140482	0.8953857421875
34.053581914023	0.8953857421875
34.0635819139977	0.8953857421875
34.0735819139725	0.89569091796875
34.0835819139472	0.89569091796875
34.093581913922	0.89569091796875
34.1035819138967	0.89569091796875
34.1135819138715	0.89569091796875
34.1235819138462	0.89569091796875
34.133581913821	0.89569091796875
34.1435819137957	0.89569091796875
34.1535819137705	0.89599609375
34.1635819137452	0.89599609375
34.17358191372	0.89599609375
34.1835819136948	0.89599609375
34.1935819136695	0.89599609375
34.2035819136443	0.89599609375
34.213581913619	0.89599609375
34.2235819135938	0.89599609375
34.2335819135685	0.89599609375
34.2435819135433	0.89630126953125
34.253581913518	0.89630126953125
34.2635819134928	0.89630126953125
34.2735819134675	0.89630126953125
34.2835819134423	0.89630126953125
34.293581913417	0.89630126953125
34.3035819133918	0.89630126953125
34.3135819133665	0.8966064453125
34.3235819133413	0.8966064453125
34.333581913316	0.8966064453125
34.3435819132908	0.8966064453125
34.3535819132655	0.8966064453125
34.3635819132403	0.8966064453125
34.373581913215	0.8966064453125
34.3835819131898	0.8966064453125
34.3935819131646	0.8966064453125
34.4035819131393	0.89691162109375
34.4135819131141	0.89691162109375
34.4235819130888	0.89691162109375
34.4335819130636	0.89691162109375
34.4435819130383	0.89691162109375
34.4535819130131	0.89691162109375
34.4635819129878	0.89691162109375
34.4735819129626	0.89691162109375
34.4835819129373	0.897216796875
34.4935819129121	0.89691162109375
34.5035819128868	0.897216796875
34.5135819128616	0.897216796875
34.5235819128363	0.897216796875
34.5335819128111	0.897216796875
34.5435819127858	0.897216796875
34.5535819127606	0.897216796875
34.5635819127353	0.897216796875
34.5735819127101	0.897216796875
34.5835819126848	0.897216796875
34.5935819126596	0.89752197265625
34.6035819126344	0.89752197265625
34.6135819126091	0.89752197265625
34.6235819125839	0.89752197265625
34.6335819125586	0.89752197265625
34.6435819125334	0.89752197265625
34.6535819125081	0.89752197265625
34.6635819124829	0.89752197265625
34.6735819124576	0.89752197265625
34.6835819124324	0.8978271484375
34.6935819124071	0.8978271484375
34.7035819123819	0.8978271484375
34.7135819123566	0.8978271484375
34.7235819123314	0.8978271484375
34.7335819123061	0.8978271484375
34.7435819122809	0.8978271484375
34.7535819122556	0.8978271484375
34.7635819122304	0.8978271484375
34.7735819122051	0.8978271484375
34.7835819121799	0.8978271484375
34.7935819121547	0.8978271484375
34.8035819121294	0.89813232421875
34.8135819121042	0.89813232421875
34.8235819120789	0.89813232421875
34.8335819120537	0.89813232421875
34.8435819120284	0.89813232421875
34.8535819120032	0.89813232421875
34.8635819119779	0.89813232421875
34.8735819119527	0.89813232421875
34.8835819119274	0.89813232421875
34.8935819119022	0.89813232421875
34.9035819118769	0.8984375
34.9135819118517	0.8984375
34.9235819118264	0.8984375
34.9335819118012	0.8984375
34.9435819117759	0.8984375
34.9535819117507	0.8984375
34.9635819117254	0.8984375
34.9735819117002	0.8984375
34.9835819116749	0.8984375
34.9935819116497	0.8984375
35.0035819116245	0.8984375
35.0135819115992	0.8984375
35.023581911574	0.8984375
35.0335819115487	0.8984375
35.0435819115235	0.89874267578125
35.0535819114982	0.89874267578125
35.063581911473	0.89874267578125
35.0735819114477	0.89874267578125
35.0835819114225	0.89874267578125
35.0935819113972	0.89874267578125
35.103581911372	0.89874267578125
35.1135819113467	0.89874267578125
35.1235819113215	0.89874267578125
35.1335819112962	0.89874267578125
35.143581911271	0.89874267578125
35.1535819112457	0.89874267578125
35.1635819112205	0.89874267578125
35.1735819111952	0.8990478515625
35.18358191117	0.8990478515625
35.1935819111447	0.8990478515625
35.2035819111195	0.8990478515625
35.2135819110943	0.8990478515625
35.223581911069	0.8990478515625
35.2335819110438	0.8990478515625
35.2435819110185	0.8990478515625
35.2535819109933	0.8990478515625
35.263581910968	0.8990478515625
35.2735819109428	0.8990478515625
35.2835819109175	0.8990478515625
35.2935819108923	0.8990478515625
35.303581910867	0.8990478515625
35.3135819108418	0.8990478515625
35.3235819108165	0.8990478515625
35.3335819107913	0.89935302734375
35.343581910766	0.89935302734375
35.3535819107408	0.89935302734375
35.3635819107155	0.89935302734375
35.3735819106903	0.89935302734375
35.383581910665	0.89935302734375
35.3935819106398	0.89935302734375
35.4035819106145	0.89935302734375
35.4135819105893	0.89935302734375
35.4235819105641	0.89935302734375
35.4335819105388	0.89935302734375
35.4435819105136	0.89935302734375
35.4535819104883	0.89935302734375
35.4635819104631	0.89935302734375
35.4735819104378	0.899658203125
35.4835819104126	0.899658203125
35.4935819103873	0.899658203125
35.5035819103621	0.899658203125
35.5135819103368	0.899658203125
35.5235819103116	0.899658203125
35.5335819102863	0.899658203125
35.5435819102611	0.899658203125
35.5535819102358	0.899658203125
35.5635819102106	0.899658203125
35.5735819101853	0.899658203125
35.5835819101601	0.899658203125
35.5935819101348	0.899658203125
35.6035819101096	0.899658203125
35.6135819100843	0.899658203125
35.6235819100591	0.899658203125
35.6335819100339	0.89996337890625
35.6435819100086	0.89996337890625
35.6535819099834	0.89996337890625
35.6635819099581	0.89996337890625
35.6735819099329	0.89996337890625
35.6835819099076	0.89996337890625
35.6935819098824	0.89996337890625
35.7035819098571	0.89996337890625
35.7135819098319	0.89996337890625
35.7235819098066	0.89996337890625
35.7335819097814	0.89996337890625
35.7435819097561	0.89996337890625
35.7535819097309	0.89996337890625
35.7635819097056	0.89996337890625
35.7735819096804	0.89996337890625
35.7835819096551	0.9002685546875
35.7935819096299	0.9002685546875
35.8035819096046	0.9002685546875
35.8135819095794	0.9002685546875
35.8235819095542	0.9002685546875
35.8335819095289	0.9002685546875
35.8435819095037	0.9002685546875
35.8535819094784	0.9002685546875
35.8635819094532	0.9002685546875
35.8735819094279	0.9002685546875
35.8835819094027	0.9002685546875
35.8935819093774	0.9002685546875
35.9035819093522	0.9002685546875
35.9135819093269	0.9002685546875
35.9235819093017	0.9002685546875
35.9335819092764	0.9002685546875
35.9435819092512	0.90057373046875
35.9535819092259	0.90057373046875
35.9635819092007	0.90057373046875
35.9735819091754	0.90057373046875
35.9835819091502	0.90057373046875
35.9935819091249	0.90057373046875
36.0035819090997	0.90057373046875
36.0135819090744	0.90057373046875
36.0235819090492	0.90057373046875
36.033581909024	0.90057373046875
36.0435819089987	0.90057373046875
36.0535819089735	0.90057373046875
36.0635819089482	0.90057373046875
36.073581908923	0.90057373046875
36.0835819088977	0.90057373046875
36.0935819088725	0.90057373046875
36.1035819088472	0.90057373046875
36.113581908822	0.90057373046875
36.1235819087967	0.90087890625
36.1335819087715	0.90087890625
36.1435819087462	0.90087890625
36.153581908721	0.90087890625
36.1635819086957	0.90087890625
36.1735819086705	0.90087890625
36.1835819086452	0.90087890625
36.19358190862	0.90087890625
36.2035819085947	0.90087890625
36.2135819085695	0.90087890625
36.2235819085442	0.90087890625
36.233581908519	0.90087890625
36.2435819084938	0.90087890625
36.2535819084685	0.90087890625
36.2635819084433	0.90087890625
36.273581908418	0.90087890625
36.2835819083928	0.90087890625
36.2935819083675	0.90087890625
36.3035819083423	0.90118408203125
36.313581908317	0.90118408203125
36.3235819082918	0.90118408203125
36.3335819082665	0.90118408203125
36.3435819082413	0.90118408203125
36.353581908216	0.90118408203125
36.3635819081908	0.90118408203125
36.3735819081655	0.90118408203125
36.3835819081403	0.90118408203125
36.393581908115	0.90118408203125
36.4035819080898	0.90118408203125
36.4135819080645	0.90118408203125
36.4235819080393	0.90118408203125
36.433581908014	0.90118408203125
36.4435819079888	0.90118408203125
36.4535819079636	0.90118408203125
36.4635819079383	0.90118408203125
36.4735819079131	0.90118408203125
36.4835819078878	0.90118408203125
36.4935819078626	0.9014892578125
36.5035819078373	0.90118408203125
36.5135819078121	0.90118408203125
36.5235819077868	0.90118408203125
36.5335819077616	0.90118408203125
36.5435819077363	0.9014892578125
36.5535819077111	0.90118408203125
36.5635819076858	0.9014892578125
36.5735819076606	0.9014892578125
36.5835819076353	0.9014892578125
36.5935819076101	0.9014892578125
36.6035819075848	0.9014892578125
36.6135819075596	0.9014892578125
36.6235819075343	0.9014892578125
36.6335819075091	0.9014892578125
36.6435819074838	0.9014892578125
36.6535819074586	0.9014892578125
36.6635819074334	0.9014892578125
36.6735819074081	0.9014892578125
36.6835819073829	0.9014892578125
36.6935819073576	0.9014892578125
36.7035819073324	0.9014892578125
36.7135819073071	0.9014892578125
36.7235819072819	0.9014892578125
36.7335819072566	0.9014892578125
36.7435819072314	0.9014892578125
36.7535819072061	0.9014892578125
36.7635819071809	0.9014892578125
36.7735819071556	0.9014892578125
36.7835819071304	0.90179443359375
36.7935819071051	0.9014892578125
36.8035819070799	0.90179443359375
36.8135819070546	0.90179443359375
36.8235819070294	0.90179443359375
36.8335819070041	0.90179443359375
36.8435819069789	0.90179443359375
36.8535819069537	0.90179443359375
36.8635819069284	0.90179443359375
36.8735819069032	0.90179443359375
36.8835819068779	0.90179443359375
36.8935819068527	0.90179443359375
36.9035819068274	0.90179443359375
36.9135819068022	0.90179443359375
36.9235819067769	0.90179443359375
36.9335819067517	0.90179443359375
36.9435819067264	0.90179443359375
36.9535819067012	0.90179443359375
36.9635819066759	0.90179443359375
36.9735819066507	0.90179443359375
36.9835819066254	0.90179443359375
36.9935819066002	0.90179443359375
37.0035819065749	0.90179443359375
37.0135819065497	0.90179443359375
37.0235819065244	0.90179443359375
37.0335819064992	0.90179443359375
37.0435819064739	0.90179443359375
37.0535819064487	0.90179443359375
37.0635819064235	0.90179443359375
37.0735819063982	0.90179443359375
37.083581906373	0.902099609375
37.0935819063477	0.90179443359375
37.1035819063225	0.902099609375
37.1135819062972	0.902099609375
37.123581906272	0.902099609375
37.1335819062467	0.902099609375
37.1435819062215	0.902099609375
37.1535819061962	0.902099609375
37.163581906171	0.902099609375
37.1735819061457	0.902099609375
37.1835819061205	0.902099609375
37.1935819060952	0.902099609375
37.20358190607	0.902099609375
37.2135819060447	0.902099609375
37.2235819060195	0.902099609375
37.2335819059942	0.902099609375
37.243581905969	0.902099609375
37.2535819059437	0.902099609375
37.2635819059185	0.902099609375
37.2735819058933	0.902099609375
37.283581905868	0.902099609375
37.2935819058428	0.902099609375
37.3035819058175	0.902099609375
37.3135819057923	0.902099609375
37.323581905767	0.902099609375
37.3335819057418	0.902099609375
37.3435819057165	0.902099609375
37.3535819056913	0.902099609375
37.363581905666	0.902099609375
37.3735819056408	0.902099609375
37.3835819056155	0.902099609375
37.3935819055903	0.902099609375
37.403581905565	0.902099609375
37.4135819055398	0.90240478515625
37.4235819055145	0.90240478515625
37.4335819054893	0.90240478515625
37.443581905464	0.90240478515625
37.4535819054388	0.90240478515625
37.4635819054135	0.90240478515625
37.4735819053883	0.90240478515625
37.4835819053631	0.90240478515625
37.4935819053378	0.90240478515625
37.5035819053126	0.90240478515625
37.5135819052873	0.90240478515625
37.5235819052621	0.90240478515625
37.5335819052368	0.90240478515625
37.5435819052116	0.90240478515625
37.5535819051863	0.90240478515625
37.5635819051611	0.90240478515625
37.5735819051358	0.90240478515625
37.5835819051106	0.90240478515625
37.5935819050853	0.90240478515625
37.6035819050601	0.90240478515625
37.6135819050348	0.90240478515625
37.6235819050096	0.90240478515625
37.6335819049843	0.90240478515625
37.6435819049591	0.90240478515625
37.6535819049338	0.9027099609375
37.6635819049086	0.9027099609375
37.6735819048833	0.9027099609375
37.6835819048581	0.9027099609375
37.6935819048329	0.9027099609375
37.7035819048076	0.9027099609375
37.7135819047824	0.9027099609375
37.7235819047571	0.9027099609375
37.7335819047319	0.9027099609375
37.7435819047066	0.9027099609375
37.7535819046814	0.9027099609375
37.7635819046561	0.9027099609375
37.7735819046309	0.9027099609375
37.7835819046056	0.9027099609375
37.7935819045804	0.9027099609375
37.8035819045551	0.9027099609375
37.8135819045299	0.9027099609375
37.8235819045046	0.9027099609375
37.8335819044794	0.9027099609375
37.8435819044541	0.9027099609375
37.8535819044289	0.9027099609375
37.8635819044036	0.9027099609375
37.8735819043784	0.9027099609375
37.8835819043532	0.9027099609375
37.8935819043279	0.90301513671875
37.9035819043027	0.90301513671875
37.9135819042774	0.90301513671875
37.9235819042522	0.90301513671875
37.9335819042269	0.90301513671875
37.9435819042017	0.90301513671875
37.9535819041764	0.90301513671875
37.9635819041512	0.90301513671875
37.9735819041259	0.90301513671875
37.9835819041007	0.90301513671875
37.9935819040754	0.90301513671875
38.0035819040502	0.90301513671875
38.0135819040249	0.90301513671875
38.0235819039997	0.90301513671875
38.0335819039744	0.90301513671875
38.0435819039492	0.90301513671875
