Time (s)	WE(1).Potential (V)
1.24604099685405	0.357940673828125
1.2560409968288	0.367401123046875
1.26604099680355	0.3746337890625
1.27604099677831	0.380645751953125
1.28604099675306	0.3858642578125
1.29604099672781	0.390594482421875
1.30604099670256	0.3948974609375
1.31604099667732	0.39886474609375
1.32604099665207	0.40252685546875
1.33604099662682	0.406005859375
1.34604099660157	0.4093017578125
1.35604099657633	0.412353515625
1.36604099655108	0.415283203125
1.37604099652583	0.418121337890625
1.38604099650058	0.42083740234375
1.39604099647534	0.423370361328125
1.40604099645009	0.425811767578125
1.41604099642484	0.428253173828125
1.42604099639959	0.430572509765625
1.43604099637435	0.432830810546875
1.4460409963491	0.434967041015625
1.45604099632385	0.43707275390625
1.4660409962986	0.43914794921875
1.47604099627335	0.441192626953125
1.48604099624811	0.443115234375
1.49604099622286	0.445037841796875
1.50604099619761	0.4468994140625
1.51604099617236	0.448760986328125
1.52604099614712	0.450531005859375
1.53604099612187	0.4522705078125
1.54604099609662	0.45391845703125
1.55604099607137	0.45562744140625
1.56604099604613	0.457244873046875
1.57604099602088	0.458831787109375
1.58604099599563	0.460418701171875
1.59604099597038	0.462005615234375
1.60604099594514	0.4635009765625
1.61604099591989	0.4649658203125
1.62604099589464	0.4664306640625
1.63604099586939	0.467926025390625
1.64604099584415	0.46929931640625
1.6560409958189	0.470703125
1.66604099579365	0.472076416015625
1.6760409957684	0.473480224609375
1.68604099574316	0.474853515625
1.69604099571791	0.476165771484375
1.70604099569266	0.477447509765625
1.71604099566741	0.478790283203125
1.72604099564217	0.480072021484375
1.73604099561692	0.4813232421875
1.74604099559167	0.482574462890625
1.75604099556642	0.48388671875
1.76604099554118	0.48504638671875
1.77604099551593	0.486236572265625
1.78604099549068	0.487457275390625
1.79604099546543	0.48870849609375
1.80604099544018	0.4898681640625
1.81604099541494	0.49102783203125
1.82604099538969	0.4921875
1.83604099536444	0.49334716796875
1.84604099533919	0.494476318359375
1.85604099531395	0.49560546875
1.8660409952887	0.496734619140625
1.87604099526345	0.49786376953125
1.8860409952382	0.49896240234375
1.89604099521296	0.4998779296875
1.90604099518771	0.5010986328125
1.91604099516246	0.50201416015625
1.92604099513721	0.50323486328125
1.93604099511197	0.504150390625
1.94604099508672	0.50537109375
1.95604099506147	0.50628662109375
1.96604099503622	0.50750732421875
1.97604099501098	0.5084228515625
1.98604099498573	0.50933837890625
1.99604099496048	0.51055908203125
2.00604099493523	0.511474609375
2.01604099490999	0.5126953125
2.02604099488474	0.51361083984375
2.03604099485949	0.5145263671875
2.04604099483424	0.5157470703125
2.056040994809	0.51666259765625
2.06604099478375	0.517578125
2.0760409947585	0.51849365234375
2.08604099473325	0.5194091796875
2.09604099470801	0.52032470703125
2.10604099468276	0.521240234375
2.11604099465751	0.5224609375
2.12604099463226	0.52337646484375
2.13604099460701	0.5242919921875
2.14604099458177	0.52520751953125
2.15604099455652	0.526123046875
2.16604099453127	0.52703857421875
2.17604099450602	0.5279541015625
2.18604099448078	0.52886962890625
2.19604099445553	0.52978515625
2.20604099443028	0.53070068359375
2.21604099440503	0.5316162109375
2.22604099437979	0.53253173828125
2.23604099435454	0.533447265625
2.24604099432929	0.53436279296875
2.25604099430404	0.5352783203125
2.2660409942788	0.53619384765625
2.27604099425355	0.53680419921875
2.2860409942283	0.5377197265625
2.29604099420305	0.53863525390625
2.30604099417781	0.53955078125
2.31604099415256	0.54046630859375
2.32604099412731	0.5413818359375
2.33604099410206	0.54229736328125
2.34604099407682	0.54290771484375
2.35604099405157	0.5438232421875
2.36604099402632	0.54473876953125
2.37604099400107	0.545654296875
2.38604099397583	0.54656982421875
2.39604099395058	0.54718017578125
2.40604099392533	0.548095703125
2.41604099390008	0.5487060546875
2.42604099387484	0.54962158203125
2.43604099384959	0.550537109375
2.44604099382434	0.5511474609375
2.45604099379909	0.55206298828125
2.46604099377385	0.552978515625
2.4760409937486	0.5535888671875
2.48604099372335	0.55450439453125
2.4960409936981	0.555419921875
2.50604099367285	0.5560302734375
2.51604099364761	0.55694580078125
2.52604099362236	0.557861328125
2.53604099359711	0.5584716796875
2.54604099357186	0.55938720703125
2.55604099354662	0.55999755859375
2.56604099352137	0.5609130859375
2.57604099349612	0.56182861328125
2.58604099347087	0.56243896484375
2.59604099344563	0.5633544921875
2.60604099342038	0.56396484375
2.61604099339513	0.56488037109375
2.62604099336988	0.5657958984375
2.63604099334464	0.56640625
2.64604099331939	0.56732177734375
2.65604099329414	0.56793212890625
2.66604099326889	0.56884765625
2.67604099324365	0.5694580078125
2.6860409932184	0.57037353515625
2.69604099319315	0.57098388671875
2.7060409931679	0.57159423828125
2.71604099314266	0.572509765625
2.72604099311741	0.5731201171875
2.73604099309216	0.57403564453125
2.74604099306691	0.57464599609375
2.75604099304167	0.5755615234375
2.76604099301642	0.576171875
2.77604099299117	0.57708740234375
2.78604099296592	0.57769775390625
2.79604099294068	0.57830810546875
2.80604099291543	0.5792236328125
2.81604099289018	0.579833984375
2.82604099286493	0.58074951171875
2.83604099283968	0.58135986328125
2.84604099281444	0.58197021484375
2.85604099278919	0.5828857421875
2.86604099276394	0.58349609375
2.87604099273869	0.5841064453125
2.88604099271345	0.58502197265625
2.8960409926882	0.58563232421875
2.90604099266295	0.5865478515625
2.9160409926377	0.587158203125
2.92604099261246	0.5877685546875
2.93604099258721	0.58868408203125
2.94604099256196	0.58929443359375
2.95604099253671	0.58990478515625
2.96604099251147	0.59051513671875
2.97604099248622	0.5914306640625
2.98604099246097	0.592041015625
2.99604099243572	0.5926513671875
3.00604099241048	0.59326171875
3.01604099238523	0.59417724609375
3.02604099235998	0.59478759765625
3.03604099233473	0.59539794921875
3.04604099230949	0.5963134765625
3.05604099228424	0.596923828125
3.06604099225899	0.5975341796875
3.07604099223374	0.59814453125
3.0860409922085	0.5987548828125
3.09604099218325	0.59967041015625
3.106040992158	0.60028076171875
3.11604099213275	0.60089111328125
3.12604099210751	0.60150146484375
3.13604099208226	0.6024169921875
3.14604099205701	0.60302734375
3.15604099203176	0.6036376953125
3.16604099200651	0.604248046875
3.17604099198127	0.6048583984375
3.18604099195602	0.60546875
3.19604099193077	0.60638427734375
3.20604099190552	0.60699462890625
3.21604099188028	0.60760498046875
3.22604099185503	0.60821533203125
3.23604099182978	0.60882568359375
3.24604099180453	0.60943603515625
3.25604099177929	0.61004638671875
3.26604099175404	0.61065673828125
3.27604099172879	0.611572265625
3.28604099170354	0.6121826171875
3.2960409916783	0.61279296875
3.30604099165305	0.6134033203125
3.3160409916278	0.614013671875
3.32604099160255	0.6146240234375
3.33604099157731	0.615234375
3.34604099155206	0.6158447265625
3.35604099152681	0.616455078125
3.36604099150156	0.6170654296875
3.37604099147632	0.61767578125
3.38604099145107	0.6182861328125
3.39604099142582	0.61920166015625
3.40604099140057	0.61981201171875
3.41604099137533	0.62042236328125
3.42604099135008	0.62103271484375
3.43604099132483	0.62164306640625
3.44604099129958	0.62225341796875
3.45604099127434	0.62286376953125
3.46604099124909	0.62347412109375
3.47604099122384	0.62408447265625
3.48604099119859	0.62469482421875
3.49604099117334	0.625
3.5060409911481	0.6256103515625
3.51604099112285	0.626220703125
3.5260409910976	0.6268310546875
3.53604099107235	0.62744140625
3.54604099104711	0.6280517578125
3.55604099102186	0.628662109375
3.56604099099661	0.6292724609375
3.57604099097136	0.6298828125
3.58604099094612	0.6304931640625
3.59604099092087	0.631103515625
3.60604099089562	0.6317138671875
3.61604099087037	0.63232421875
3.62604099084513	0.6329345703125
3.63604099081988	0.633544921875
3.64604099079463	0.6341552734375
3.65604099076938	0.63446044921875
3.66604099074414	0.63507080078125
3.67604099071889	0.63568115234375
3.68604099069364	0.63629150390625
3.69604099066839	0.63690185546875
3.70604099064315	0.63751220703125
3.7160409906179	0.63812255859375
3.72604099059265	0.63873291015625
3.7360409905674	0.6390380859375
3.74604099054216	0.6396484375
3.75604099051691	0.6402587890625
3.76604099049166	0.640869140625
3.77604099046641	0.6414794921875
3.78604099044117	0.64178466796875
3.79604099041592	0.64239501953125
3.80604099039067	0.64300537109375
3.81604099036542	0.64361572265625
3.82604099034018	0.64422607421875
3.83604099031493	0.64483642578125
3.84604099028968	0.64544677734375
3.85604099026443	0.64605712890625
3.86604099023918	0.6463623046875
3.87604099021394	0.64697265625
3.88604099018869	0.6475830078125
3.89604099016344	0.648193359375
3.90604099013819	0.64849853515625
3.91604099011295	0.64910888671875
3.9260409900877	0.64971923828125
3.93604099006245	0.65032958984375
3.9460409900372	0.650634765625
3.95604099001196	0.6512451171875
3.96604098998671	0.65185546875
3.97604098996146	0.6524658203125
3.98604098993621	0.65277099609375
3.99604098991097	0.65338134765625
4.00604098988572	0.65399169921875
4.01604098986047	0.65460205078125
4.02604098983522	0.6549072265625
4.03604098980998	0.655517578125
4.04604098978473	0.6561279296875
4.05604098975948	0.65673828125
4.06604098973423	0.65704345703125
4.07604098970899	0.65765380859375
4.08604098968374	0.65826416015625
4.09604098965849	0.6585693359375
4.10604098963324	0.6591796875
4.116040989608	0.6597900390625
4.12604098958275	0.66009521484375
4.1360409895575	0.66070556640625
4.14604098953225	0.66131591796875
4.15604098950701	0.66162109375
4.16604098948176	0.6622314453125
4.17604098945651	0.662841796875
4.18604098943126	0.66314697265625
4.19604098940601	0.66375732421875
4.20604098938077	0.66436767578125
4.21604098935552	0.66497802734375
4.22604098933027	0.665283203125
4.23604098930502	0.6658935546875
4.24604098927978	0.66619873046875
4.25604098925453	0.66680908203125
4.26604098922928	0.66741943359375
4.27604098920403	0.667724609375
4.28604098917879	0.6683349609375
4.29604098915354	0.66864013671875
4.30604098912829	0.66925048828125
4.31604098910304	0.66986083984375
4.3260409890778	0.670166015625
4.33604098905255	0.6707763671875
4.3460409890273	0.67108154296875
4.35604098900205	0.67169189453125
4.36604098897681	0.67230224609375
4.37604098895156	0.672607421875
4.38604098892631	0.6732177734375
4.39604098890106	0.67352294921875
4.40604098887582	0.67413330078125
4.41604098885057	0.67474365234375
4.42604098882532	0.675048828125
4.43604098880007	0.67535400390625
4.44604098877483	0.67596435546875
4.45604098874958	0.67657470703125
4.46604098872433	0.6768798828125
4.47604098869908	0.677490234375
4.48604098867384	0.67779541015625
4.49604098864859	0.67840576171875
4.50604098862334	0.6787109375
4.51604098859809	0.6793212890625
4.52604098857284	0.67962646484375
4.5360409885476	0.68023681640625
4.54604098852235	0.6805419921875
4.5560409884971	0.68115234375
4.56604098847185	0.68145751953125
4.57604098844661	0.68206787109375
4.58604098842136	0.682373046875
4.59604098839611	0.6829833984375
4.60604098837086	0.68328857421875
4.61604098834562	0.68389892578125
4.62604098832037	0.6842041015625
4.63604098829512	0.684814453125
4.64604098826987	0.68511962890625
4.65604098824463	0.6854248046875
4.66604098821938	0.68603515625
4.67604098819413	0.68634033203125
4.68604098816888	0.68695068359375
4.69604098814364	0.687255859375
4.70604098811839	0.6878662109375
4.71604098809314	0.68817138671875
4.72604098806789	0.6884765625
4.73604098804265	0.6890869140625
4.7460409880174	0.689697265625
4.75604098799215	0.69000244140625
4.7660409879669	0.6903076171875
4.77604098794166	0.69091796875
4.78604098791641	0.69122314453125
4.79604098789116	0.6915283203125
4.80604098786591	0.692138671875
4.81604098784067	0.69244384765625
4.82604098781542	0.69305419921875
4.83604098779017	0.693359375
4.84604098776492	0.69366455078125
4.85604098773968	0.69427490234375
4.86604098771443	0.694580078125
4.87604098768918	0.69488525390625
4.88604098766393	0.69549560546875
4.89604098763868	0.69580078125
4.90604098761344	0.6964111328125
4.91604098758819	0.69671630859375
4.92604098756294	0.697021484375
4.93604098753769	0.6976318359375
4.94604098751245	0.69793701171875
4.9560409874872	0.6982421875
4.96604098746195	0.6988525390625
4.9760409874367	0.69915771484375
4.98604098741146	0.699462890625
4.99604098738621	0.7000732421875
5.00604098736096	0.70037841796875
5.01604098733571	0.70068359375
5.02604098731047	0.70098876953125
5.03604098728522	0.70159912109375
5.04604098725997	0.701904296875
5.05604098723472	0.7025146484375
5.06604098720948	0.70281982421875
5.07604098718423	0.703125
5.08604098715898	0.70343017578125
5.09604098713373	0.7037353515625
5.10604098710849	0.704345703125
5.11604098708324	0.70465087890625
5.12604098705799	0.7049560546875
5.13604098703274	0.70526123046875
5.1460409870075	0.70587158203125
5.15604098698225	0.7061767578125
5.166040986957	0.70648193359375
5.17604098693175	0.706787109375
5.18604098690651	0.7073974609375
5.19604098688126	0.70770263671875
5.20604098685601	0.7080078125
5.21604098683076	0.70831298828125
5.22604098680551	0.70892333984375
5.23604098678027	0.709228515625
5.24604098675502	0.70953369140625
5.25604098672977	0.7098388671875
5.26604098670452	0.71044921875
5.27604098667928	0.71075439453125
5.28604098665403	0.7110595703125
5.29604098662878	0.71136474609375
5.30604098660353	0.711669921875
5.31604098657829	0.7122802734375
5.32604098655304	0.71258544921875
5.33604098652779	0.712890625
5.34604098650254	0.71319580078125
5.3560409864773	0.71380615234375
5.36604098645205	0.714111328125
5.3760409864268	0.71441650390625
5.38604098640155	0.7147216796875
5.39604098637631	0.71502685546875
5.40604098635106	0.71533203125
5.41604098632581	0.7159423828125
5.42604098630056	0.71624755859375
5.43604098627532	0.716552734375
5.44604098625007	0.71685791015625
5.45604098622482	0.7171630859375
5.46604098619957	0.71746826171875
5.47604098617433	0.71807861328125
5.48604098614908	0.7183837890625
5.49604098612383	0.71868896484375
5.50604098609858	0.718994140625
5.51604098607334	0.71929931640625
5.52604098604809	0.7196044921875
5.53604098602284	0.72021484375
5.54604098599759	0.72052001953125
5.55604098597234	0.7208251953125
5.5660409859471	0.72113037109375
5.57604098592185	0.721435546875
5.5860409858966	0.72174072265625
5.59604098587135	0.7220458984375
5.60604098584611	0.72265625
5.61604098582086	0.72296142578125
5.62604098579561	0.7232666015625
5.63604098577036	0.72357177734375
5.64604098574512	0.723876953125
5.65604098571987	0.72418212890625
5.66604098569462	0.7244873046875
5.67604098566937	0.72479248046875
5.68604098564413	0.72509765625
5.69604098561888	0.7257080078125
5.70604098559363	0.7257080078125
5.71604098556838	0.726318359375
5.72604098554314	0.72662353515625
5.73604098551789	0.7269287109375
5.74604098549264	0.72723388671875
5.75604098546739	0.7275390625
5.76604098544215	0.72784423828125
5.7760409854169	0.7281494140625
5.78604098539165	0.72845458984375
5.7960409853664	0.728759765625
5.80604098534116	0.72906494140625
5.81604098531591	0.7293701171875
5.82604098529066	0.72967529296875
5.83604098526541	0.72998046875
5.84604098524017	0.7305908203125
5.85604098521492	0.73089599609375
5.86604098518967	0.731201171875
5.87604098516442	0.73150634765625
5.88604098513918	0.7318115234375
5.89604098511393	0.73211669921875
5.90604098508868	0.732421875
5.91604098506343	0.73272705078125
5.92604098503818	0.7330322265625
5.93604098501294	0.73333740234375
5.94604098498769	0.733642578125
5.95604098496244	0.73394775390625
5.96604098493719	0.7342529296875
5.97604098491195	0.73455810546875
5.9860409848867	0.73486328125
5.99604098486145	0.73516845703125
6.0060409848362	0.7354736328125
6.01604098481096	0.73577880859375
6.02604098478571	0.736083984375
6.03604098476046	0.73638916015625
6.04604098473521	0.7366943359375
6.05604098470997	0.73699951171875
6.06604098468472	0.7373046875
6.07604098465947	0.73760986328125
6.08604098463422	0.7379150390625
6.09604098460898	0.73822021484375
6.10604098458373	0.738525390625
6.11604098455848	0.73883056640625
6.12604098453323	0.7391357421875
6.13604098450799	0.73944091796875
6.14604098448274	0.73974609375
6.15604098445749	0.74005126953125
6.16604098443224	0.7403564453125
6.176040984407	0.74066162109375
6.18604098438175	0.740966796875
6.1960409843565	0.74127197265625
6.20604098433125	0.7415771484375
6.21604098430601	0.74188232421875
6.22604098428076	0.7421875
6.23604098425551	0.74249267578125
