Time (s)	WE(1).Potential (V)
69.7947278237853	0.6829833984375
69.80472782376	0.6829833984375
69.8147278237348	0.6829833984375
69.8247278237095	0.6829833984375
69.8347278236843	0.6829833984375
69.844727823659	0.6829833984375
69.8547278236338	0.6829833984375
69.8647278236085	0.6829833984375
69.8747278235833	0.6829833984375
69.884727823558	0.6829833984375
69.8947278235328	0.6829833984375
69.9047278235075	0.6829833984375
69.9147278234823	0.6829833984375
69.924727823457	0.6829833984375
69.9347278234318	0.6829833984375
69.9447278234065	0.6829833984375
69.9547278233813	0.6829833984375
69.964727823356	0.6829833984375
69.9747278233308	0.6829833984375
69.9847278233055	0.6829833984375
69.9947278232803	0.6829833984375
70.0047278232551	0.6829833984375
70.0147278232298	0.6829833984375
70.0247278232046	0.6829833984375
70.0347278231793	0.6829833984375
70.0447278231541	0.6829833984375
70.0547278231288	0.6829833984375
70.0647278231036	0.6829833984375
70.0747278230783	0.6829833984375
70.0847278230531	0.6829833984375
70.0947278230278	0.6829833984375
70.1047278230026	0.6829833984375
70.1147278229773	0.6829833984375
70.1247278229521	0.6829833984375
70.1347278229268	0.6829833984375
70.1447278229016	0.6829833984375
70.1547278228763	0.6829833984375
70.1647278228511	0.6829833984375
70.1747278228258	0.6829833984375
70.1847278228006	0.6829833984375
70.1947278227753	0.6829833984375
70.2047278227501	0.6829833984375
70.2147278227249	0.6829833984375
70.2247278226996	0.6829833984375
70.2347278226744	0.6829833984375
70.2447278226491	0.6829833984375
70.2547278226239	0.6829833984375
70.2647278225986	0.6829833984375
70.2747278225734	0.6829833984375
70.2847278225481	0.6829833984375
70.2947278225229	0.6829833984375
70.3047278224976	0.6829833984375
70.3147278224724	0.6829833984375
70.3247278224471	0.6829833984375
70.3347278224219	0.6829833984375
70.3447278223966	0.6829833984375
70.3547278223714	0.6829833984375
70.3647278223461	0.6829833984375
70.3747278223209	0.6829833984375
70.3847278222956	0.6829833984375
70.3947278222704	0.6829833984375
70.4047278222451	0.6829833984375
70.4147278222199	0.6829833984375
70.4247278221947	0.6829833984375
70.4347278221694	0.6829833984375
70.4447278221442	0.6829833984375
70.4547278221189	0.6829833984375
70.4647278220937	0.6829833984375
70.4747278220684	0.6829833984375
70.4847278220432	0.6829833984375
70.4947278220179	0.6829833984375
70.5047278219927	0.6829833984375
70.5147278219674	0.68328857421875
70.5247278219422	0.68328857421875
70.5347278219169	0.68328857421875
70.5447278218917	0.6829833984375
70.5547278218664	0.68328857421875
70.5647278218412	0.68328857421875
70.5747278218159	0.68328857421875
70.5847278217907	0.68328857421875
70.5947278217654	0.68328857421875
70.6047278217402	0.68328857421875
70.614727821715	0.68328857421875
70.6247278216897	0.68328857421875
70.6347278216645	0.68328857421875
70.6447278216392	0.68328857421875
70.654727821614	0.68328857421875
70.6647278215887	0.68328857421875
70.6747278215635	0.68328857421875
70.6847278215382	0.68328857421875
70.694727821513	0.68328857421875
70.7047278214877	0.68328857421875
70.7147278214625	0.68328857421875
70.7247278214372	0.68328857421875
70.734727821412	0.68328857421875
70.7447278213867	0.68328857421875
70.7547278213615	0.68328857421875
70.7647278213362	0.68328857421875
70.774727821311	0.68328857421875
70.7847278212857	0.68328857421875
70.7947278212605	0.68328857421875
70.8047278212352	0.68328857421875
70.81472782121	0.68328857421875
70.8247278211848	0.68328857421875
70.8347278211595	0.68328857421875
70.8447278211343	0.68328857421875
70.854727821109	0.68328857421875
70.8647278210838	0.68328857421875
70.8747278210585	0.68328857421875
70.8847278210333	0.68328857421875
70.894727821008	0.68328857421875
70.9047278209828	0.68328857421875
70.9147278209575	0.68328857421875
70.9247278209323	0.68328857421875
70.934727820907	0.68328857421875
70.9447278208818	0.68328857421875
70.9547278208565	0.68328857421875
70.9647278208313	0.68328857421875
70.974727820806	0.68328857421875
70.9847278207808	0.68328857421875
70.9947278207555	0.68328857421875
71.0047278207303	0.68328857421875
71.014727820705	0.68328857421875
71.0247278206798	0.68328857421875
71.0347278206546	0.68328857421875
71.0447278206293	0.68328857421875
71.0547278206041	0.68328857421875
71.0647278205788	0.68328857421875
71.0747278205536	0.68328857421875
71.0847278205283	0.68328857421875
71.0947278205031	0.68328857421875
71.1047278204778	0.68328857421875
71.1147278204526	0.68328857421875
71.1247278204273	0.68328857421875
71.1347278204021	0.68328857421875
71.1447278203768	0.68328857421875
71.1547278203516	0.68328857421875
71.1647278203263	0.68328857421875
71.1747278203011	0.68328857421875
71.1847278202758	0.68328857421875
71.1947278202506	0.68328857421875
71.2047278202253	0.68328857421875
71.2147278202001	0.68328857421875
71.2247278201748	0.68328857421875
71.2347278201496	0.68328857421875
71.2447278201244	0.68328857421875
71.2547278200991	0.68328857421875
71.2647278200739	0.68328857421875
71.2747278200486	0.68328857421875
71.2847278200234	0.68328857421875
71.2947278199981	0.68328857421875
71.3047278199729	0.68328857421875
71.3147278199476	0.68328857421875
71.3247278199224	0.68328857421875
71.3347278198971	0.68328857421875
71.3447278198719	0.68328857421875
71.3547278198466	0.68328857421875
71.3647278198214	0.68328857421875
71.3747278197961	0.68328857421875
71.3847278197709	0.68328857421875
71.3947278197456	0.68328857421875
71.4047278197204	0.68328857421875
71.4147278196951	0.68328857421875
71.4247278196699	0.68328857421875
71.4347278196446	0.68328857421875
71.4447278196194	0.68328857421875
71.4547278195942	0.68328857421875
71.4647278195689	0.68328857421875
71.4747278195437	0.68328857421875
71.4847278195184	0.68328857421875
71.4947278194932	0.68359375
71.5047278194679	0.68328857421875
71.5147278194427	0.68328857421875
71.5247278194174	0.68328857421875
71.5347278193922	0.68359375
71.5447278193669	0.68359375
71.5547278193417	0.68359375
71.5647278193164	0.68359375
71.5747278192912	0.68359375
71.5847278192659	0.68359375
71.5947278192407	0.68359375
71.6047278192154	0.68359375
71.6147278191902	0.68359375
71.6247278191649	0.68359375
71.6347278191397	0.68359375
71.6447278191145	0.68359375
71.6547278190892	0.68359375
71.664727819064	0.68359375
71.6747278190387	0.68359375
71.6847278190135	0.68359375
71.6947278189882	0.68359375
71.704727818963	0.68359375
71.7147278189377	0.68359375
71.7247278189125	0.68359375
71.7347278188872	0.68359375
71.744727818862	0.68359375
71.7547278188367	0.68359375
71.7647278188115	0.68359375
71.7747278187862	0.68359375
71.784727818761	0.68359375
71.7947278187357	0.68359375
71.8047278187105	0.68359375
71.8147278186852	0.68359375
71.82472781866	0.68359375
71.8347278186347	0.68359375
71.8447278186095	0.68359375
71.8547278185843	0.68359375
71.864727818559	0.68359375
71.8747278185338	0.68359375
71.8847278185085	0.68359375
71.8947278184833	0.68359375
71.904727818458	0.68359375
71.9147278184328	0.68359375
71.9247278184075	0.68359375
71.9347278183823	0.68359375
71.944727818357	0.68359375
71.9547278183318	0.68359375
71.9647278183065	0.68359375
71.9747278182813	0.68359375
71.984727818256	0.68359375
71.9947278182308	0.68359375
72.0047278182055	0.68359375
72.0147278181803	0.68359375
72.024727818155	0.68359375
72.0347278181298	0.68359375
72.0447278181045	0.68359375
72.0547278180793	0.68359375
72.0647278180541	0.68359375
72.0747278180288	0.68359375
72.0847278180036	0.68359375
72.0947278179783	0.68359375
72.1047278179531	0.68359375
72.1147278179278	0.68359375
72.1247278179026	0.68389892578125
72.1347278178773	0.68389892578125
72.1447278178521	0.68359375
72.1547278178268	0.68389892578125
72.1647278178016	0.68389892578125
72.1747278177763	0.68389892578125
72.1847278177511	0.68389892578125
72.1947278177258	0.68389892578125
72.2047278177006	0.68389892578125
72.2147278176753	0.68389892578125
72.2247278176501	0.68389892578125
72.2347278176248	0.68389892578125
72.2447278175996	0.68389892578125
72.2547278175743	0.68389892578125
72.2647278175491	0.68389892578125
72.2747278175239	0.68389892578125
72.2847278174986	0.68389892578125
72.2947278174734	0.68389892578125
72.3047278174481	0.68389892578125
72.3147278174229	0.68389892578125
72.3247278173976	0.68389892578125
72.3347278173724	0.68389892578125
72.3447278173471	0.68389892578125
72.3547278173219	0.68389892578125
72.3647278172966	0.68389892578125
72.3747278172714	0.68389892578125
72.3847278172461	0.68389892578125
72.3947278172209	0.68389892578125
72.4047278171956	0.68389892578125
72.4147278171704	0.68389892578125
72.4247278171451	0.68389892578125
72.4347278171199	0.68389892578125
72.4447278170946	0.68389892578125
72.4547278170694	0.68389892578125
72.4647278170441	0.68389892578125
72.4747278170189	0.68389892578125
72.4847278169937	0.68389892578125
72.4947278169684	0.68389892578125
72.5047278169432	0.68389892578125
72.5147278169179	0.68389892578125
72.5247278168927	0.68389892578125
72.5347278168674	0.68389892578125
72.5447278168422	0.68389892578125
72.5547278168169	0.68389892578125
72.5647278167917	0.68389892578125
72.5747278167664	0.68389892578125
72.5847278167412	0.68389892578125
72.5947278167159	0.68389892578125
72.6047278166907	0.68389892578125
72.6147278166654	0.68389892578125
72.6247278166402	0.68389892578125
72.6347278166149	0.68389892578125
72.6447278165897	0.68389892578125
72.6547278165644	0.68389892578125
72.6647278165392	0.68389892578125
72.674727816514	0.68389892578125
72.6847278164887	0.68389892578125
72.6947278164635	0.68389892578125
72.7047278164382	0.68389892578125
72.714727816413	0.68389892578125
72.7247278163877	0.68389892578125
72.7347278163625	0.68389892578125
72.7447278163372	0.68389892578125
72.754727816312	0.68389892578125
72.7647278162867	0.6842041015625
72.7747278162615	0.6842041015625
72.7847278162362	0.6842041015625
72.794727816211	0.6842041015625
72.8047278161857	0.6842041015625
72.8147278161605	0.6842041015625
72.8247278161352	0.6842041015625
72.83472781611	0.6842041015625
72.8447278160847	0.6842041015625
72.8547278160595	0.6842041015625
72.8647278160342	0.6842041015625
72.874727816009	0.6842041015625
72.8847278159838	0.6842041015625
72.8947278159585	0.6842041015625
72.9047278159333	0.6842041015625
72.914727815908	0.6842041015625
72.9247278158828	0.6842041015625
72.9347278158575	0.6842041015625
72.9447278158323	0.6842041015625
72.954727815807	0.6842041015625
72.9647278157818	0.6842041015625
72.9747278157565	0.6842041015625
72.9847278157313	0.6842041015625
72.994727815706	0.6842041015625
73.0047278156808	0.6842041015625
73.0147278156555	0.6842041015625
73.0247278156303	0.6842041015625
73.034727815605	0.6842041015625
73.0447278155798	0.6842041015625
73.0547278155545	0.6842041015625
73.0647278155293	0.6842041015625
73.074727815504	0.6842041015625
73.0847278154788	0.6842041015625
73.0947278154536	0.6842041015625
73.1047278154283	0.6842041015625
73.1147278154031	0.6842041015625
73.1247278153778	0.6842041015625
73.1347278153526	0.6842041015625
73.1447278153273	0.6842041015625
73.1547278153021	0.6842041015625
73.1647278152768	0.6842041015625
73.1747278152516	0.6842041015625
73.1847278152263	0.6842041015625
73.1947278152011	0.6842041015625
73.2047278151758	0.6842041015625
73.2147278151506	0.6842041015625
73.2247278151253	0.6842041015625
73.2347278151001	0.6842041015625
73.2447278150748	0.6842041015625
73.2547278150496	0.6842041015625
73.2647278150243	0.6842041015625
73.2747278149991	0.6842041015625
73.2847278149738	0.6842041015625
73.2947278149486	0.6842041015625
73.3047278149234	0.6842041015625
73.3147278148981	0.6842041015625
73.3247278148729	0.6842041015625
73.3347278148476	0.6842041015625
73.3447278148224	0.6842041015625
73.3547278147971	0.6842041015625
73.3647278147719	0.6842041015625
73.3747278147466	0.6842041015625
73.3847278147214	0.6842041015625
73.3947278146961	0.6842041015625
73.4047278146709	0.6842041015625
73.4147278146456	0.6842041015625
73.4247278146204	0.6842041015625
73.4347278145951	0.6842041015625
73.4447278145699	0.6842041015625
73.4547278145446	0.6842041015625
73.4647278145194	0.6842041015625
73.4747278144941	0.68450927734375
73.4847278144689	0.6842041015625
73.4947278144436	0.68450927734375
73.5047278144184	0.68450927734375
73.5147278143932	0.6842041015625
73.5247278143679	0.68450927734375
73.5347278143427	0.68450927734375
73.5447278143174	0.68450927734375
73.5547278142922	0.68450927734375
73.5647278142669	0.68450927734375
73.5747278142417	0.68450927734375
73.5847278142164	0.68450927734375
73.5947278141912	0.68450927734375
73.6047278141659	0.68450927734375
73.6147278141407	0.68450927734375
73.6247278141154	0.68450927734375
73.6347278140902	0.68450927734375
73.6447278140649	0.68450927734375
73.6547278140397	0.68450927734375
73.6647278140144	0.68450927734375
73.6747278139892	0.68450927734375
73.6847278139639	0.68450927734375
73.6947278139387	0.68450927734375
73.7047278139135	0.68450927734375
73.7147278138882	0.68450927734375
73.724727813863	0.68450927734375
73.7347278138377	0.68450927734375
73.7447278138125	0.68450927734375
73.7547278137872	0.68450927734375
73.764727813762	0.68450927734375
73.7747278137367	0.68450927734375
73.7847278137115	0.68450927734375
73.7947278136862	0.68450927734375
73.804727813661	0.68450927734375
73.8147278136357	0.68450927734375
73.8247278136105	0.68450927734375
73.8347278135852	0.68450927734375
73.84472781356	0.68450927734375
73.8547278135347	0.68450927734375
73.8647278135095	0.68450927734375
73.8747278134842	0.68450927734375
73.884727813459	0.68450927734375
73.8947278134337	0.68450927734375
73.9047278134085	0.68450927734375
73.9147278133833	0.68450927734375
73.924727813358	0.68450927734375
73.9347278133328	0.68450927734375
73.9447278133075	0.68450927734375
73.9547278132823	0.68450927734375
73.964727813257	0.68450927734375
73.9747278132318	0.68450927734375
73.9847278132065	0.68450927734375
73.9947278131813	0.68450927734375
74.004727813156	0.68450927734375
74.0147278131308	0.68450927734375
74.0247278131055	0.68450927734375
74.0347278130803	0.68450927734375
74.044727813055	0.68450927734375
74.0547278130298	0.68450927734375
74.0647278130045	0.68450927734375
74.0747278129793	0.68450927734375
74.084727812954	0.68450927734375
74.0947278129288	0.68450927734375
74.1047278129035	0.68450927734375
74.1147278128783	0.68450927734375
74.1247278128531	0.68450927734375
74.1347278128278	0.68450927734375
74.1447278128026	0.68450927734375
74.1547278127773	0.68450927734375
74.1647278127521	0.68450927734375
74.1747278127268	0.68450927734375
74.1847278127016	0.68450927734375
74.1947278126763	0.68450927734375
74.2047278126511	0.68450927734375
74.2147278126258	0.68450927734375
74.2247278126006	0.68450927734375
74.2347278125753	0.68450927734375
74.2447278125501	0.68450927734375
74.2547278125248	0.68450927734375
74.2647278124996	0.684814453125
74.2747278124743	0.684814453125
74.2847278124491	0.684814453125
74.2947278124238	0.684814453125
74.3047278123986	0.684814453125
74.3147278123733	0.684814453125
74.3247278123481	0.684814453125
74.3347278123229	0.684814453125
74.3447278122976	0.684814453125
74.3547278122724	0.684814453125
74.3647278122471	0.684814453125
74.3747278122219	0.684814453125
74.3847278121966	0.684814453125
74.3947278121714	0.684814453125
74.4047278121461	0.684814453125
74.4147278121209	0.684814453125
74.4247278120956	0.684814453125
74.4347278120704	0.684814453125
74.4447278120451	0.684814453125
74.4547278120199	0.684814453125
74.4647278119946	0.684814453125
74.4747278119694	0.684814453125
74.4847278119441	0.684814453125
74.4947278119189	0.684814453125
74.5047278118936	0.684814453125
74.5147278118684	0.684814453125
74.5247278118431	0.684814453125
74.5347278118179	0.684814453125
74.5447278117927	0.684814453125
74.5547278117674	0.684814453125
74.5647278117422	0.684814453125
74.5747278117169	0.684814453125
74.5847278116917	0.684814453125
74.5947278116664	0.684814453125
74.6047278116412	0.684814453125
74.6147278116159	0.684814453125
74.6247278115907	0.684814453125
74.6347278115654	0.684814453125
74.6447278115402	0.684814453125
74.6547278115149	0.684814453125
74.6647278114897	0.684814453125
74.6747278114644	0.684814453125
74.6847278114392	0.684814453125
74.6947278114139	0.684814453125
74.7047278113887	0.684814453125
74.7147278113634	0.684814453125
74.7247278113382	0.684814453125
74.734727811313	0.684814453125
74.7447278112877	0.684814453125
74.7547278112625	0.684814453125
74.7647278112372	0.684814453125
74.774727811212	0.684814453125
74.7847278111867	0.684814453125
