Time (s)	WE(1).Potential (V)
97.2133417545599	1.12945556640625
97.2233417545347	1.12945556640625
97.2333417545094	1.12945556640625
97.2433417544842	1.1297607421875
97.2533417544589	1.1297607421875
97.2633417544337	1.12945556640625
97.2733417544084	1.12945556640625
97.2833417543832	1.1297607421875
97.2933417543579	1.1297607421875
97.3033417543327	1.12945556640625
97.3133417543074	1.12945556640625
97.3233417542822	1.1297607421875
97.3333417542569	1.1297607421875
97.3433417542317	1.1297607421875
97.3533417542064	1.1297607421875
97.3633417541812	1.1297607421875
97.3733417541559	1.1297607421875
97.3833417541307	1.1297607421875
97.3933417541054	1.1297607421875
97.4033417540802	1.1297607421875
97.413341754055	1.13006591796875
97.4233417540297	1.1297607421875
97.4333417540045	1.1297607421875
97.4433417539792	1.1297607421875
97.453341753954	1.13006591796875
97.4633417539287	1.1297607421875
97.4733417539035	1.1297607421875
97.4833417538782	1.13006591796875
97.493341753853	1.13006591796875
97.5033417538277	1.1297607421875
97.5133417538025	1.1297607421875
97.5233417537772	1.13006591796875
97.533341753752	1.13006591796875
97.5433417537267	1.13006591796875
97.5533417537015	1.1297607421875
97.5633417536762	1.13006591796875
97.573341753651	1.13006591796875
97.5833417536257	1.13006591796875
97.5933417536005	1.1297607421875
97.6033417535753	1.13006591796875
97.61334175355	1.13006591796875
97.6233417535248	1.13006591796875
97.6333417534995	1.1297607421875
97.6433417534743	1.13006591796875
97.653341753449	1.13006591796875
97.6633417534238	1.13006591796875
97.6733417533985	1.13006591796875
97.6833417533733	1.13006591796875
97.693341753348	1.13037109375
97.7033417533228	1.13037109375
97.7133417532975	1.13006591796875
97.7233417532723	1.13006591796875
97.733341753247	1.13037109375
97.7433417532218	1.13037109375
97.7533417531965	1.13006591796875
97.7633417531713	1.13006591796875
97.773341753146	1.13037109375
97.7833417531208	1.13037109375
97.7933417530955	1.13006591796875
97.8033417530703	1.13006591796875
97.8133417530451	1.13037109375
97.8233417530198	1.13037109375
97.8333417529946	1.13006591796875
97.8433417529693	1.13006591796875
97.8533417529441	1.13037109375
97.8633417529188	1.13037109375
97.8733417528936	1.13037109375
97.8833417528683	1.13037109375
97.8933417528431	1.13037109375
97.9033417528178	1.13067626953125
97.9133417527926	1.13037109375
97.9233417527673	1.13037109375
97.9333417527421	1.13067626953125
97.9433417527168	1.13067626953125
97.9533417526916	1.13037109375
97.9633417526663	1.13037109375
97.9733417526411	1.13067626953125
97.9833417526158	1.13067626953125
97.9933417525906	1.13067626953125
98.0033417525653	1.13037109375
98.0133417525401	1.13067626953125
98.0233417525149	1.13067626953125
98.0333417524896	1.13067626953125
98.0433417524644	1.13067626953125
98.0533417524391	1.13067626953125
98.0633417524139	1.13067626953125
98.0733417523886	1.13067626953125
98.0833417523634	1.13067626953125
98.0933417523381	1.13067626953125
98.1033417523129	1.1309814453125
98.1133417522876	1.13067626953125
98.1233417522624	1.13067626953125
98.1333417522371	1.13067626953125
98.1433417522119	1.1309814453125
98.1533417521866	1.1309814453125
98.1633417521614	1.13067626953125
98.1733417521361	1.13067626953125
98.1833417521109	1.1309814453125
98.1933417520856	1.1309814453125
98.2033417520604	1.13067626953125
98.2133417520351	1.1309814453125
98.2233417520099	1.1309814453125
98.2333417519847	1.1309814453125
98.2433417519594	1.1309814453125
98.2533417519342	1.1309814453125
98.2633417519089	1.1309814453125
98.2733417518837	1.1309814453125
98.2833417518584	1.1309814453125
98.2933417518332	1.1309814453125
98.3033417518079	1.13128662109375
98.3133417517827	1.13128662109375
98.3233417517574	1.1309814453125
98.3333417517322	1.1309814453125
98.3433417517069	1.13128662109375
98.3533417516817	1.13128662109375
98.3633417516564	1.1309814453125
98.3733417516312	1.1309814453125
98.3833417516059	1.13128662109375
98.3933417515807	1.13128662109375
98.4033417515554	1.13128662109375
98.4133417515302	1.13128662109375
98.4233417515049	1.13128662109375
98.4333417514797	1.131591796875
98.4433417514545	1.13128662109375
98.4533417514292	1.13128662109375
98.463341751404	1.13128662109375
98.4733417513787	1.131591796875
98.4833417513535	1.131591796875
98.4933417513282	1.13128662109375
98.503341751303	1.131591796875
98.5133417512777	1.131591796875
98.5233417512525	1.131591796875
98.5333417512272	1.13128662109375
98.543341751202	1.131591796875
98.5533417511767	1.131591796875
98.5633417511515	1.131591796875
98.5733417511262	1.13128662109375
98.583341751101	1.131591796875
98.5933417510757	1.131591796875
98.6033417510505	1.131591796875
98.6133417510252	1.131591796875
98.623341751	1.131591796875
98.6333417509748	1.13189697265625
98.6433417509495	1.131591796875
98.6533417509243	1.131591796875
98.663341750899	1.131591796875
98.6733417508738	1.13189697265625
98.6833417508485	1.13189697265625
98.6933417508233	1.131591796875
98.703341750798	1.131591796875
98.7133417507728	1.13189697265625
98.7233417507475	1.13189697265625
98.7333417507223	1.131591796875
98.743341750697	1.13189697265625
98.7533417506718	1.13189697265625
98.7633417506465	1.13189697265625
98.7733417506213	1.13189697265625
98.783341750596	1.13189697265625
98.7933417505708	1.13189697265625
98.8033417505455	1.13189697265625
98.8133417505203	1.13189697265625
98.823341750495	1.13189697265625
98.8333417504698	1.13189697265625
98.8433417504446	1.1322021484375
98.8533417504193	1.13189697265625
98.8633417503941	1.13189697265625
98.8733417503688	1.13189697265625
98.8833417503436	1.1322021484375
98.8933417503183	1.13189697265625
98.9033417502931	1.13189697265625
98.9133417502678	1.1322021484375
98.9233417502426	1.1322021484375
98.9333417502173	1.1322021484375
98.9433417501921	1.13189697265625
98.9533417501668	1.1322021484375
98.9633417501416	1.1322021484375
98.9733417501163	1.1322021484375
98.9833417500911	1.13189697265625
98.9933417500658	1.1322021484375
99.0033417500406	1.13250732421875
99.0133417500153	1.1322021484375
99.0233417499901	1.1322021484375
99.0333417499648	1.1322021484375
99.0433417499396	1.13250732421875
99.0533417499144	1.1322021484375
99.0633417498891	1.1322021484375
99.0733417498639	1.1322021484375
99.0833417498386	1.13250732421875
99.0933417498134	1.13250732421875
99.1033417497881	1.1322021484375
99.1133417497629	1.13250732421875
99.1233417497376	1.13250732421875
99.1333417497124	1.13250732421875
99.1433417496871	1.13250732421875
99.1533417496619	1.13250732421875
99.1633417496366	1.13250732421875
99.1733417496114	1.13250732421875
99.1833417495861	1.13250732421875
99.1933417495609	1.13250732421875
99.2033417495356	1.1328125
99.2133417495104	1.13250732421875
99.2233417494851	1.13250732421875
99.2333417494599	1.13250732421875
99.2433417494346	1.1328125
99.2533417494094	1.1328125
99.2633417493842	1.13250732421875
99.2733417493589	1.13250732421875
99.2833417493337	1.1328125
99.2933417493084	1.1328125
99.3033417492832	1.13250732421875
99.3133417492579	1.13250732421875
99.3233417492327	1.1328125
99.3333417492074	1.1328125
99.3433417491822	1.13250732421875
99.3533417491569	1.13250732421875
99.3633417491317	1.1328125
99.3733417491064	1.1328125
99.3833417490812	1.1328125
99.3933417490559	1.1328125
99.4033417490307	1.1328125
99.4133417490054	1.13311767578125
99.4233417489802	1.1328125
99.4333417489549	1.1328125
99.4433417489297	1.1328125
99.4533417489044	1.13311767578125
99.4633417488792	1.1328125
99.473341748854	1.1328125
99.4833417488287	1.1328125
99.4933417488035	1.13311767578125
99.5033417487782	1.13311767578125
99.513341748753	1.1328125
99.5233417487277	1.13311767578125
99.5333417487025	1.13311767578125
99.5433417486772	1.13311767578125
99.553341748652	1.13311767578125
99.5633417486267	1.13311767578125
99.5733417486015	1.13311767578125
99.5833417485762	1.13311767578125
99.593341748551	1.13311767578125
99.6033417485257	1.13311767578125
99.6133417485005	1.13311767578125
99.6233417484752	1.13311767578125
99.63334174845	1.13311767578125
99.6433417484247	1.13311767578125
99.6533417483995	1.1334228515625
99.6633417483743	1.1334228515625
99.673341748349	1.13311767578125
99.6833417483238	1.13311767578125
99.6933417482985	1.1334228515625
99.7033417482733	1.1334228515625
99.713341748248	1.13311767578125
99.7233417482228	1.1334228515625
99.7333417481975	1.1334228515625
99.7433417481723	1.1334228515625
99.753341748147	1.1334228515625
99.7633417481218	1.1334228515625
99.7733417480965	1.1334228515625
99.7833417480713	1.1334228515625
99.793341748046	1.1334228515625
99.8033417480208	1.1334228515625
99.8133417479955	1.1334228515625
99.8233417479703	1.13372802734375
99.833341747945	1.1334228515625
99.8433417479198	1.1334228515625
99.8533417478945	1.1334228515625
99.8633417478693	1.13372802734375
99.8733417478441	1.1334228515625
99.8833417478188	1.1334228515625
99.8933417477936	1.13372802734375
99.9033417477683	1.13372802734375
99.9133417477431	1.13372802734375
99.9233417477178	1.1334228515625
99.9333417476926	1.13372802734375
99.9433417476673	1.13372802734375
99.9533417476421	1.13372802734375
99.9633417476168	1.1334228515625
99.9733417475916	1.13372802734375
99.9833417475663	1.13372802734375
99.9933417475411	1.13372802734375
100.003341747516	1.13372802734375
100.013341747491	1.13372802734375
100.023341747465	1.134033203125
100.03334174744	1.13372802734375
100.043341747415	1.13372802734375
100.05334174739	1.13372802734375
100.063341747364	1.134033203125
100.073341747339	1.134033203125
100.083341747314	1.13372802734375
100.093341747289	1.13372802734375
100.103341747263	1.134033203125
100.113341747238	1.134033203125
100.123341747213	1.13372802734375
100.133341747188	1.134033203125
100.143341747162	1.134033203125
100.153341747137	1.134033203125
100.163341747112	1.134033203125
100.173341747087	1.134033203125
100.183341747061	1.134033203125
100.193341747036	1.134033203125
100.203341747011	1.134033203125
100.213341746986	1.134033203125
100.22334174696	1.134033203125
100.233341746935	1.134033203125
100.24334174691	1.134033203125
100.253341746885	1.134033203125
100.263341746859	1.134033203125
100.273341746834	1.13433837890625
100.283341746809	1.134033203125
100.293341746784	1.134033203125
100.303341746758	1.134033203125
100.313341746733	1.13433837890625
100.323341746708	1.13433837890625
100.333341746683	1.134033203125
100.343341746657	1.13433837890625
100.353341746632	1.13433837890625
100.363341746607	1.13433837890625
100.373341746582	1.134033203125
100.383341746556	1.13433837890625
100.393341746531	1.13433837890625
100.403341746506	1.13433837890625
100.413341746481	1.13433837890625
100.423341746455	1.13433837890625
100.43334174643	1.13433837890625
100.443341746405	1.13433837890625
100.45334174638	1.13433837890625
100.463341746354	1.13433837890625
100.473341746329	1.13433837890625
100.483341746304	1.13433837890625
100.493341746279	1.13433837890625
100.503341746253	1.13433837890625
100.513341746228	1.13433837890625
100.523341746203	1.13433837890625
100.533341746178	1.13433837890625
100.543341746152	1.13433837890625
100.553341746127	1.13433837890625
100.563341746102	1.1346435546875
100.573341746077	1.13433837890625
100.583341746051	1.13433837890625
100.593341746026	1.1346435546875
100.603341746001	1.1346435546875
100.613341745976	1.13433837890625
100.62334174595	1.13433837890625
100.633341745925	1.1346435546875
100.6433417459	1.1346435546875
100.653341745875	1.1346435546875
100.663341745849	1.13433837890625
100.673341745824	1.1346435546875
100.683341745799	1.1346435546875
100.693341745774	1.1346435546875
100.703341745749	1.13433837890625
100.713341745723	1.1346435546875
100.723341745698	1.1346435546875
100.733341745673	1.1346435546875
100.743341745648	1.1346435546875
100.753341745622	1.1346435546875
100.763341745597	1.1346435546875
100.773341745572	1.1346435546875
100.783341745547	1.1346435546875
100.793341745521	1.1346435546875
100.803341745496	1.1346435546875
100.813341745471	1.1346435546875
100.823341745446	1.1346435546875
100.83334174542	1.1346435546875
100.843341745395	1.13494873046875
100.85334174537	1.13494873046875
100.863341745345	1.1346435546875
100.873341745319	1.1346435546875
100.883341745294	1.13494873046875
100.893341745269	1.13494873046875
100.903341745244	1.1346435546875
100.913341745218	1.1346435546875
100.923341745193	1.13494873046875
100.933341745168	1.13494873046875
100.943341745143	1.1346435546875
100.953341745117	1.1346435546875
100.963341745092	1.13494873046875
100.973341745067	1.13494873046875
100.983341745042	1.13494873046875
100.993341745016	1.1346435546875
101.003341744991	1.13494873046875
101.013341744966	1.13494873046875
101.023341744941	1.13494873046875
101.033341744915	1.1346435546875
101.04334174489	1.13494873046875
101.053341744865	1.13494873046875
101.06334174484	1.13494873046875
101.073341744814	1.13494873046875
101.083341744789	1.13494873046875
101.093341744764	1.13525390625
101.103341744739	1.13494873046875
101.113341744713	1.13494873046875
101.123341744688	1.13494873046875
101.133341744663	1.13525390625
101.143341744638	1.13494873046875
101.153341744612	1.13494873046875
101.163341744587	1.13494873046875
101.173341744562	1.13525390625
101.183341744537	1.13494873046875
101.193341744511	1.13494873046875
101.203341744486	1.13494873046875
101.213341744461	1.13525390625
101.223341744436	1.13525390625
101.23334174441	1.13494873046875
101.243341744385	1.13494873046875
101.25334174436	1.13525390625
101.263341744335	1.13525390625
101.273341744309	1.13494873046875
101.283341744284	1.13525390625
101.293341744259	1.13525390625
101.303341744234	1.13525390625
101.313341744208	1.13525390625
101.323341744183	1.13525390625
101.333341744158	1.13525390625
101.343341744133	1.13525390625
101.353341744107	1.13525390625
101.363341744082	1.13525390625
101.373341744057	1.13525390625
101.383341744032	1.13525390625
101.393341744006	1.13525390625
101.403341743981	1.13525390625
101.413341743956	1.13525390625
101.423341743931	1.13525390625
101.433341743905	1.13525390625
101.44334174388	1.13525390625
101.453341743855	1.13525390625
101.46334174383	1.13555908203125
101.473341743804	1.13525390625
101.483341743779	1.13525390625
101.493341743754	1.13525390625
101.503341743729	1.13555908203125
101.513341743703	1.13525390625
101.523341743678	1.13525390625
101.533341743653	1.13555908203125
101.543341743628	1.13555908203125
101.553341743602	1.13555908203125
101.563341743577	1.13525390625
101.573341743552	1.13555908203125
101.583341743527	1.13555908203125
101.593341743501	1.13555908203125
101.603341743476	1.13525390625
101.613341743451	1.13555908203125
101.623341743426	1.13555908203125
101.6333417434	1.13555908203125
101.643341743375	1.13525390625
101.65334174335	1.13555908203125
101.663341743325	1.13555908203125
101.673341743299	1.13555908203125
101.683341743274	1.13555908203125
101.693341743249	1.13555908203125
101.703341743224	1.13555908203125
101.713341743198	1.13555908203125
101.723341743173	1.13555908203125
101.733341743148	1.13555908203125
101.743341743123	1.1358642578125
101.753341743098	1.13555908203125
101.763341743072	1.13555908203125
101.773341743047	1.13555908203125
101.783341743022	1.1358642578125
101.793341742997	1.1358642578125
101.803341742971	1.13555908203125
101.813341742946	1.13555908203125
101.823341742921	1.1358642578125
101.833341742896	1.1358642578125
101.84334174287	1.13555908203125
101.853341742845	1.13555908203125
101.86334174282	1.1358642578125
101.873341742795	1.1358642578125
101.883341742769	1.1358642578125
101.893341742744	1.13555908203125
101.903341742719	1.1358642578125
101.913341742694	1.1358642578125
101.923341742668	1.1358642578125
101.933341742643	1.13555908203125
101.943341742618	1.1358642578125
101.953341742593	1.1358642578125
101.963341742567	1.1358642578125
101.973341742542	1.13555908203125
101.983341742517	1.1358642578125
101.993341742492	1.1358642578125
102.003341742466	1.1358642578125
102.013341742441	1.13555908203125
102.023341742416	1.1358642578125
102.033341742391	1.13616943359375
102.043341742365	1.1358642578125
102.05334174234	1.1358642578125
102.063341742315	1.1358642578125
102.07334174229	1.13616943359375
102.083341742264	1.1358642578125
102.093341742239	1.1358642578125
102.103341742214	1.1358642578125
102.113341742189	1.13616943359375
102.123341742163	1.1358642578125
102.133341742138	1.1358642578125
102.143341742113	1.1358642578125
102.153341742088	1.13616943359375
102.163341742062	1.13616943359375
102.173341742037	1.1358642578125
102.183341742012	1.1358642578125
102.193341741987	1.13616943359375
102.203341741961	1.13616943359375
