Time (s)	WE(1).Potential (V)
33.0920169164507	0.9136962890625
33.1020169164254	0.9136962890625
33.1120169164002	0.9136962890625
33.1220169163749	0.9136962890625
33.1320169163497	0.91400146484375
33.1420169163245	0.91400146484375
33.1520169162992	0.91400146484375
33.162016916274	0.91400146484375
33.1720169162487	0.91400146484375
33.1820169162235	0.91400146484375
33.1920169161982	0.914306640625
33.202016916173	0.914306640625
33.2120169161477	0.914306640625
33.2220169161225	0.914306640625
33.2320169160972	0.914306640625
33.242016916072	0.914306640625
33.2520169160467	0.91461181640625
33.2620169160215	0.91461181640625
33.2720169159962	0.91461181640625
33.282016915971	0.91461181640625
33.2920169159457	0.91461181640625
33.3020169159205	0.91461181640625
33.3120169158952	0.91461181640625
33.32201691587	0.9149169921875
33.3320169158447	0.9149169921875
33.3420169158195	0.9149169921875
33.3520169157943	0.9149169921875
33.362016915769	0.9149169921875
33.3720169157438	0.9149169921875
33.3820169157185	0.91522216796875
33.3920169156933	0.91522216796875
33.402016915668	0.91522216796875
33.4120169156428	0.91522216796875
33.4220169156175	0.91522216796875
33.4320169155923	0.91522216796875
33.442016915567	0.91522216796875
33.4520169155418	0.91552734375
33.4620169155165	0.91552734375
33.4720169154913	0.91552734375
33.482016915466	0.91552734375
33.4920169154408	0.91552734375
33.5020169154155	0.91552734375
33.5120169153903	0.91583251953125
33.522016915365	0.91583251953125
33.5320169153398	0.91583251953125
33.5420169153145	0.91583251953125
33.5520169152893	0.91583251953125
33.5620169152641	0.91583251953125
33.5720169152388	0.91583251953125
33.5820169152136	0.9161376953125
33.5920169151883	0.9161376953125
33.6020169151631	0.9161376953125
33.6120169151378	0.9161376953125
33.6220169151126	0.9161376953125
33.6320169150873	0.9161376953125
33.6420169150621	0.91644287109375
33.6520169150368	0.91644287109375
33.6620169150116	0.91644287109375
33.6720169149863	0.91644287109375
33.6820169149611	0.91644287109375
33.6920169149358	0.91644287109375
33.7020169149106	0.916748046875
33.7120169148853	0.916748046875
33.7220169148601	0.916748046875
33.7320169148348	0.916748046875
33.7420169148096	0.916748046875
33.7520169147843	0.916748046875
33.7620169147591	0.91705322265625
33.7720169147339	0.91705322265625
33.7820169147086	0.91705322265625
33.7920169146834	0.91705322265625
33.8020169146581	0.91705322265625
33.8120169146329	0.91705322265625
33.8220169146076	0.9173583984375
33.8320169145824	0.9173583984375
33.8420169145571	0.9173583984375
33.8520169145319	0.9173583984375
33.8620169145066	0.9173583984375
33.8720169144814	0.9173583984375
33.8820169144561	0.9173583984375
33.8920169144309	0.9173583984375
33.9020169144056	0.91766357421875
33.9120169143804	0.91766357421875
33.9220169143551	0.91766357421875
33.9320169143299	0.91766357421875
33.9420169143046	0.91766357421875
33.9520169142794	0.91796875
33.9620169142541	0.91796875
33.9720169142289	0.91796875
33.9820169142037	0.91796875
33.9920169141784	0.91796875
34.0020169141532	0.91796875
34.0120169141279	0.91796875
34.0220169141027	0.91827392578125
34.0320169140774	0.91827392578125
34.0420169140522	0.91827392578125
34.0520169140269	0.91827392578125
34.0620169140017	0.91827392578125
34.0720169139764	0.91827392578125
34.0820169139512	0.91827392578125
34.0920169139259	0.9185791015625
34.1020169139007	0.9185791015625
34.1120169138754	0.9185791015625
34.1220169138502	0.9185791015625
34.1320169138249	0.9185791015625
34.1420169137997	0.9185791015625
34.1520169137744	0.91888427734375
34.1620169137492	0.91888427734375
34.172016913724	0.91888427734375
34.1820169136987	0.91888427734375
34.1920169136735	0.91888427734375
34.2020169136482	0.91888427734375
34.212016913623	0.91888427734375
34.2220169135977	0.919189453125
34.2320169135725	0.919189453125
34.2420169135472	0.919189453125
34.252016913522	0.919189453125
34.2620169134967	0.919189453125
34.2720169134715	0.919189453125
34.2820169134462	0.91949462890625
34.292016913421	0.91949462890625
34.3020169133957	0.91949462890625
34.3120169133705	0.91949462890625
34.3220169133452	0.91949462890625
34.33201691332	0.91949462890625
34.3420169132947	0.91949462890625
34.3520169132695	0.9197998046875
34.3620169132442	0.9197998046875
34.372016913219	0.9197998046875
34.3820169131938	0.9197998046875
34.3920169131685	0.9197998046875
34.4020169131433	0.9197998046875
34.412016913118	0.9197998046875
34.4220169130928	0.92010498046875
34.4320169130675	0.92010498046875
34.4420169130423	0.92010498046875
34.452016913017	0.92010498046875
34.4620169129918	0.92010498046875
34.4720169129665	0.92010498046875
34.4820169129413	0.92041015625
34.492016912916	0.92041015625
34.5020169128908	0.92041015625
34.5120169128655	0.92041015625
34.5220169128403	0.92041015625
34.532016912815	0.92041015625
34.5420169127898	0.92041015625
34.5520169127645	0.92071533203125
34.5620169127393	0.92071533203125
34.572016912714	0.92071533203125
34.5820169126888	0.92071533203125
34.5920169126636	0.92071533203125
34.6020169126383	0.92071533203125
34.6120169126131	0.9210205078125
34.6220169125878	0.9210205078125
34.6320169125626	0.9210205078125
34.6420169125373	0.9210205078125
34.6520169125121	0.9210205078125
34.6620169124868	0.9210205078125
34.6720169124616	0.9210205078125
34.6820169124363	0.92132568359375
34.6920169124111	0.92132568359375
34.7020169123858	0.92132568359375
34.7120169123606	0.92132568359375
34.7220169123353	0.92132568359375
34.7320169123101	0.92132568359375
34.7420169122848	0.921630859375
34.7520169122596	0.921630859375
34.7620169122343	0.921630859375
34.7720169122091	0.921630859375
34.7820169121838	0.921630859375
34.7920169121586	0.921630859375
34.8020169121334	0.921630859375
34.8120169121081	0.92193603515625
34.8220169120829	0.92193603515625
34.8320169120576	0.92193603515625
34.8420169120324	0.92193603515625
34.8520169120071	0.92193603515625
34.8620169119819	0.92193603515625
34.8720169119566	0.92193603515625
34.8820169119314	0.9222412109375
34.8920169119061	0.9222412109375
34.9020169118809	0.9222412109375
34.9120169118556	0.9222412109375
34.9220169118304	0.9222412109375
34.9320169118051	0.9222412109375
34.9420169117799	0.92254638671875
34.9520169117546	0.92254638671875
34.9620169117294	0.92254638671875
34.9720169117041	0.92254638671875
34.9820169116789	0.92254638671875
34.9920169116536	0.92254638671875
35.0020169116284	0.92254638671875
35.0120169116032	0.9228515625
35.0220169115779	0.9228515625
35.0320169115527	0.9228515625
35.0420169115274	0.9228515625
35.0520169115022	0.9228515625
35.0620169114769	0.9228515625
35.0720169114517	0.92315673828125
35.0820169114264	0.92315673828125
35.0920169114012	0.92315673828125
35.1020169113759	0.92315673828125
35.1120169113507	0.92315673828125
35.1220169113254	0.92315673828125
35.1320169113002	0.9234619140625
35.1420169112749	0.9234619140625
35.1520169112497	0.9234619140625
35.1620169112244	0.9234619140625
35.1720169111992	0.9234619140625
35.1820169111739	0.9234619140625
35.1920169111487	0.9234619140625
35.2020169111235	0.92376708984375
35.2120169110982	0.92376708984375
35.222016911073	0.92376708984375
35.2320169110477	0.92376708984375
35.2420169110225	0.92376708984375
35.2520169109972	0.92376708984375
35.262016910972	0.924072265625
35.2720169109467	0.924072265625
35.2820169109215	0.924072265625
35.2920169108962	0.924072265625
35.302016910871	0.924072265625
35.3120169108457	0.924072265625
35.3220169108205	0.92437744140625
35.3320169107952	0.92437744140625
35.34201691077	0.92437744140625
35.3520169107447	0.92437744140625
35.3620169107195	0.92437744140625
35.3720169106942	0.92437744140625
35.382016910669	0.9246826171875
35.3920169106437	0.9246826171875
35.4020169106185	0.9246826171875
35.4120169105933	0.9246826171875
35.422016910568	0.9246826171875
35.4320169105428	0.9246826171875
35.4420169105175	0.92498779296875
35.4520169104923	0.92498779296875
35.462016910467	0.92498779296875
35.4720169104418	0.92498779296875
35.4820169104165	0.92498779296875
35.4920169103913	0.92498779296875
35.502016910366	0.92498779296875
35.5120169103408	0.92529296875
35.5220169103155	0.92529296875
35.5320169102903	0.92529296875
35.542016910265	0.92529296875
35.5520169102398	0.92529296875
35.5620169102145	0.92529296875
35.5720169101893	0.92559814453125
35.582016910164	0.92559814453125
35.5920169101388	0.92559814453125
35.6020169101135	0.92559814453125
35.6120169100883	0.92559814453125
35.6220169100631	0.92559814453125
35.6320169100378	0.9259033203125
35.6420169100126	0.9259033203125
35.6520169099873	0.9259033203125
35.6620169099621	0.9259033203125
35.6720169099368	0.9259033203125
35.6820169099116	0.9259033203125
35.6920169098863	0.9259033203125
35.7020169098611	0.92620849609375
35.7120169098358	0.92620849609375
35.7220169098106	0.92620849609375
35.7320169097853	0.92620849609375
35.7420169097601	0.92620849609375
35.7520169097348	0.92620849609375
35.7620169097096	0.92620849609375
35.7720169096843	0.926513671875
35.7820169096591	0.926513671875
35.7920169096338	0.926513671875
35.8020169096086	0.926513671875
35.8120169095833	0.926513671875
35.8220169095581	0.926513671875
35.8320169095329	0.92681884765625
35.8420169095076	0.92681884765625
35.8520169094824	0.92681884765625
35.8620169094571	0.92681884765625
35.8720169094319	0.92681884765625
35.8820169094066	0.92681884765625
35.8920169093814	0.9271240234375
35.9020169093561	0.9271240234375
35.9120169093309	0.9271240234375
35.9220169093056	0.9271240234375
35.9320169092804	0.9271240234375
35.9420169092551	0.9271240234375
35.9520169092299	0.9271240234375
35.9620169092046	0.92742919921875
35.9720169091794	0.92742919921875
35.9820169091541	0.92742919921875
35.9920169091289	0.92742919921875
36.0020169091036	0.92742919921875
36.0120169090784	0.92742919921875
36.0220169090531	0.92742919921875
36.0320169090279	0.927734375
36.0420169090027	0.927734375
36.0520169089774	0.927734375
36.0620169089522	0.927734375
36.0720169089269	0.927734375
36.0820169089017	0.927734375
36.0920169088764	0.927734375
36.1020169088512	0.92803955078125
36.1120169088259	0.92803955078125
36.1220169088007	0.92803955078125
36.1320169087754	0.92803955078125
36.1420169087502	0.92803955078125
36.1520169087249	0.92803955078125
36.1620169086997	0.9283447265625
36.1720169086744	0.9283447265625
36.1820169086492	0.9283447265625
36.1920169086239	0.9283447265625
36.2020169085987	0.9283447265625
36.2120169085734	0.9283447265625
36.2220169085482	0.9283447265625
36.232016908523	0.92864990234375
36.2420169084977	0.92864990234375
36.2520169084725	0.92864990234375
36.2620169084472	0.92864990234375
36.272016908422	0.92864990234375
36.2820169083967	0.92864990234375
36.2920169083715	0.928955078125
36.3020169083462	0.928955078125
36.312016908321	0.928955078125
36.3220169082957	0.928955078125
36.3320169082705	0.928955078125
36.3420169082452	0.928955078125
36.35201690822	0.928955078125
36.3620169081947	0.92926025390625
36.3720169081695	0.92926025390625
36.3820169081442	0.92926025390625
36.392016908119	0.92926025390625
36.4020169080937	0.92926025390625
36.4120169080685	0.92926025390625
36.4220169080432	0.92926025390625
36.432016908018	0.9295654296875
36.4420169079928	0.9295654296875
36.4520169079675	0.9295654296875
36.4620169079423	0.9295654296875
36.472016907917	0.9295654296875
36.4820169078918	0.9295654296875
36.4920169078665	0.9295654296875
36.5020169078413	0.92987060546875
36.512016907816	0.92987060546875
36.5220169077908	0.92987060546875
36.5320169077655	0.92987060546875
36.5420169077403	0.92987060546875
36.552016907715	0.93017578125
36.5620169076898	0.93017578125
36.5720169076645	0.93017578125
36.5820169076393	0.93017578125
36.592016907614	0.93017578125
36.6020169075888	0.93017578125
36.6120169075635	0.93017578125
36.6220169075383	0.93048095703125
36.632016907513	0.93048095703125
36.6420169074878	0.93048095703125
36.6520169074626	0.93048095703125
36.6620169074373	0.93048095703125
36.6720169074121	0.93048095703125
36.6820169073868	0.93048095703125
36.6920169073616	0.9307861328125
36.7020169073363	0.9307861328125
36.7120169073111	0.9307861328125
36.7220169072858	0.9307861328125
36.7320169072606	0.9307861328125
36.7420169072353	0.9307861328125
36.7520169072101	0.9307861328125
36.7620169071848	0.93109130859375
36.7720169071596	0.93109130859375
36.7820169071343	0.93109130859375
36.7920169071091	0.93109130859375
36.8020169070838	0.93109130859375
36.8120169070586	0.93109130859375
36.8220169070333	0.93109130859375
36.8320169070081	0.931396484375
36.8420169069828	0.931396484375
36.8520169069576	0.931396484375
36.8620169069324	0.931396484375
36.8720169069071	0.931396484375
36.8820169068819	0.931396484375
36.8920169068566	0.931396484375
36.9020169068314	0.93170166015625
36.9120169068061	0.93170166015625
36.9220169067809	0.93170166015625
36.9320169067556	0.93170166015625
36.9420169067304	0.93170166015625
36.9520169067051	0.93170166015625
36.9620169066799	0.93170166015625
36.9720169066546	0.93170166015625
36.9820169066294	0.9320068359375
36.9920169066041	0.9320068359375
37.0020169065789	0.9320068359375
37.0120169065536	0.9320068359375
37.0220169065284	0.9320068359375
37.0320169065031	0.9320068359375
37.0420169064779	0.93231201171875
37.0520169064526	0.93231201171875
37.0620169064274	0.93231201171875
37.0720169064022	0.93231201171875
37.0820169063769	0.93231201171875
37.0920169063517	0.93231201171875
37.1020169063264	0.93231201171875
37.1120169063012	0.93231201171875
37.1220169062759	0.9326171875
37.1320169062507	0.9326171875
37.1420169062254	0.9326171875
37.1520169062002	0.9326171875
37.1620169061749	0.9326171875
37.1720169061497	0.9326171875
37.1820169061244	0.9326171875
37.1920169060992	0.93292236328125
37.2020169060739	0.93292236328125
37.2120169060487	0.93292236328125
37.2220169060234	0.93292236328125
37.2320169059982	0.93292236328125
37.2420169059729	0.93292236328125
37.2520169059477	0.93292236328125
37.2620169059225	0.93292236328125
37.2720169058972	0.9332275390625
37.282016905872	0.9332275390625
37.2920169058467	0.9332275390625
37.3020169058215	0.9332275390625
37.3120169057962	0.9332275390625
37.322016905771	0.9332275390625
37.3320169057457	0.9332275390625
37.3420169057205	0.9332275390625
37.3520169056952	0.93353271484375
37.36201690567	0.93353271484375
37.3720169056447	0.93353271484375
37.3820169056195	0.93353271484375
37.3920169055942	0.93353271484375
37.402016905569	0.93353271484375
37.4120169055437	0.93353271484375
37.4220169055185	0.93353271484375
37.4320169054932	0.933837890625
37.442016905468	0.933837890625
37.4520169054427	0.933837890625
37.4620169054175	0.933837890625
37.4720169053923	0.933837890625
37.482016905367	0.933837890625
37.4920169053418	0.933837890625
37.5020169053165	0.93414306640625
37.5120169052913	0.93414306640625
37.522016905266	0.93414306640625
37.5320169052408	0.93414306640625
37.5420169052155	0.93414306640625
37.5520169051903	0.93414306640625
37.562016905165	0.93414306640625
37.5720169051398	0.93414306640625
37.5820169051145	0.93414306640625
37.5920169050893	0.9344482421875
37.602016905064	0.9344482421875
37.6120169050388	0.9344482421875
37.6220169050135	0.9344482421875
37.6320169049883	0.9344482421875
37.642016904963	0.9344482421875
37.6520169049378	0.9344482421875
37.6620169049125	0.9344482421875
37.6720169048873	0.93475341796875
37.6820169048621	0.93475341796875
37.6920169048368	0.93475341796875
37.7020169048116	0.93475341796875
37.7120169047863	0.93475341796875
37.7220169047611	0.93475341796875
37.7320169047358	0.93475341796875
37.7420169047106	0.93475341796875
37.7520169046853	0.93505859375
37.7620169046601	0.93505859375
37.7720169046348	0.93505859375
37.7820169046096	0.93505859375
37.7920169045843	0.93505859375
37.8020169045591	0.93505859375
37.8120169045338	0.93505859375
37.8220169045086	0.93505859375
37.8320169044833	0.93505859375
37.8420169044581	0.93536376953125
37.8520169044328	0.93536376953125
37.8620169044076	0.93536376953125
37.8720169043823	0.93536376953125
37.8820169043571	0.93536376953125
37.8920169043319	0.93536376953125
37.9020169043066	0.93536376953125
37.9120169042814	0.93536376953125
37.9220169042561	0.93536376953125
37.9320169042309	0.9356689453125
37.9420169042056	0.9356689453125
37.9520169041804	0.9356689453125
37.9620169041551	0.9356689453125
37.9720169041299	0.9356689453125
37.9820169041046	0.9356689453125
37.9920169040794	0.9356689453125
38.0020169040541	0.9356689453125
38.0120169040289	0.9356689453125
38.0220169040036	0.93597412109375
38.0320169039784	0.93597412109375
38.0420169039531	0.93597412109375
38.0520169039279	0.93597412109375
38.0620169039026	0.93597412109375
38.0720169038774	0.93597412109375
38.0820169038521	0.93597412109375
