Time (s)	WE(1).Potential (V)
17.1020289568215	0.80963134765625
17.1120289567963	0.80963134765625
17.122028956771	0.8099365234375
17.1320289567458	0.8099365234375
17.1420289567205	0.8099365234375
17.1520289566953	0.8099365234375
17.16202895667	0.8099365234375
17.1720289566448	0.81024169921875
17.1820289566195	0.81024169921875
17.1920289565943	0.81024169921875
17.2020289565691	0.81024169921875
17.2120289565438	0.810546875
17.2220289565186	0.810546875
17.2320289564933	0.810546875
17.2420289564681	0.810546875
17.2520289564428	0.810546875
17.2620289564176	0.81085205078125
17.2720289563923	0.81085205078125
17.2820289563671	0.81085205078125
17.2920289563418	0.81085205078125
17.3020289563166	0.8111572265625
17.3120289562913	0.8111572265625
17.3220289562661	0.8111572265625
17.3320289562408	0.8111572265625
17.3420289562156	0.8111572265625
17.3520289561903	0.81146240234375
17.3620289561651	0.81146240234375
17.3720289561398	0.81146240234375
17.3820289561146	0.81146240234375
17.3920289560893	0.81146240234375
17.4020289560641	0.811767578125
17.4120289560389	0.811767578125
17.4220289560136	0.811767578125
17.4320289559884	0.811767578125
17.4420289559631	0.811767578125
17.4520289559379	0.81207275390625
17.4620289559126	0.81207275390625
17.4720289558874	0.81207275390625
17.4820289558621	0.81207275390625
17.4920289558369	0.8123779296875
17.5020289558116	0.8123779296875
17.5120289557864	0.8123779296875
17.5220289557611	0.8123779296875
17.5320289557359	0.8123779296875
17.5420289557106	0.8123779296875
17.5520289556854	0.81268310546875
17.5620289556601	0.81268310546875
17.5720289556349	0.81268310546875
17.5820289556096	0.81268310546875
17.5920289555844	0.81298828125
17.6020289555591	0.81298828125
17.6120289555339	0.81298828125
17.6220289555087	0.81298828125
17.6320289554834	0.81298828125
17.6420289554582	0.81329345703125
17.6520289554329	0.81329345703125
17.6620289554077	0.81329345703125
17.6720289553824	0.81329345703125
17.6820289553572	0.81329345703125
17.6920289553319	0.8135986328125
17.7020289553067	0.8135986328125
17.7120289552814	0.8135986328125
17.7220289552562	0.8135986328125
17.7320289552309	0.8135986328125
17.7420289552057	0.81390380859375
17.7520289551804	0.81390380859375
17.7620289551552	0.81390380859375
17.7720289551299	0.81390380859375
17.7820289551047	0.814208984375
17.7920289550794	0.814208984375
17.8020289550542	0.814208984375
17.8120289550289	0.814208984375
17.8220289550037	0.81451416015625
17.8320289549785	0.81451416015625
17.8420289549532	0.81451416015625
17.852028954928	0.81451416015625
17.8620289549027	0.81451416015625
17.8720289548775	0.8148193359375
17.8820289548522	0.8148193359375
17.892028954827	0.8148193359375
17.9020289548017	0.8148193359375
17.9120289547765	0.8148193359375
17.9220289547512	0.81512451171875
17.932028954726	0.81512451171875
17.9420289547007	0.81512451171875
17.9520289546755	0.81512451171875
17.9620289546502	0.8154296875
17.972028954625	0.8154296875
17.9820289545997	0.8154296875
17.9920289545745	0.8154296875
18.0020289545492	0.8154296875
18.012028954524	0.81573486328125
18.0220289544988	0.81573486328125
18.0320289544735	0.81573486328125
18.0420289544483	0.81573486328125
18.052028954423	0.8160400390625
18.0620289543978	0.8160400390625
18.0720289543725	0.8160400390625
18.0820289543473	0.8160400390625
18.092028954322	0.8160400390625
18.1020289542968	0.81634521484375
18.1120289542715	0.81634521484375
18.1220289542463	0.81634521484375
18.132028954221	0.81634521484375
18.1420289541958	0.816650390625
18.1520289541705	0.816650390625
18.1620289541453	0.816650390625
18.17202895412	0.816650390625
18.1820289540948	0.816650390625
18.1920289540695	0.81695556640625
18.2020289540443	0.81695556640625
18.212028954019	0.81695556640625
18.2220289539938	0.81695556640625
18.2320289539686	0.8172607421875
18.2420289539433	0.8172607421875
18.2520289539181	0.8172607421875
18.2620289538928	0.8172607421875
18.2720289538676	0.8172607421875
18.2820289538423	0.81756591796875
18.2920289538171	0.81756591796875
18.3020289537918	0.81756591796875
18.3120289537666	0.81756591796875
18.3220289537413	0.81787109375
18.3320289537161	0.81787109375
18.3420289536908	0.81787109375
18.3520289536656	0.81787109375
18.3620289536403	0.81787109375
18.3720289536151	0.81817626953125
18.3820289535898	0.81817626953125
18.3920289535646	0.81817626953125
18.4020289535393	0.81817626953125
18.4120289535141	0.8184814453125
18.4220289534888	0.8184814453125
18.4320289534636	0.8184814453125
18.4420289534384	0.8184814453125
18.4520289534131	0.8184814453125
18.4620289533879	0.81878662109375
18.4720289533626	0.81878662109375
18.4820289533374	0.81878662109375
18.4920289533121	0.81878662109375
18.5020289532869	0.819091796875
18.5120289532616	0.819091796875
18.5220289532364	0.819091796875
18.5320289532111	0.819091796875
18.5420289531859	0.819091796875
18.5520289531606	0.81939697265625
18.5620289531354	0.81939697265625
18.5720289531101	0.81939697265625
18.5820289530849	0.81939697265625
18.5920289530596	0.8197021484375
18.6020289530344	0.8197021484375
18.6120289530091	0.8197021484375
18.6220289529839	0.8197021484375
18.6320289529586	0.8197021484375
18.6420289529334	0.82000732421875
18.6520289529082	0.82000732421875
18.6620289528829	0.82000732421875
18.6720289528577	0.82000732421875
18.6820289528324	0.8203125
18.6920289528072	0.8203125
18.7020289527819	0.8203125
18.7120289527567	0.8203125
18.7220289527314	0.8203125
18.7320289527062	0.82061767578125
18.7420289526809	0.82061767578125
18.7520289526557	0.82061767578125
18.7620289526304	0.82061767578125
18.7720289526052	0.8209228515625
18.7820289525799	0.8209228515625
18.7920289525547	0.8209228515625
18.8020289525294	0.8209228515625
18.8120289525042	0.82122802734375
18.8220289524789	0.82122802734375
18.8320289524537	0.82122802734375
18.8420289524284	0.82122802734375
18.8520289524032	0.82122802734375
18.862028952378	0.821533203125
18.8720289523527	0.821533203125
18.8820289523275	0.821533203125
18.8920289523022	0.821533203125
18.902028952277	0.82183837890625
18.9120289522517	0.82183837890625
18.9220289522265	0.82183837890625
18.9320289522012	0.82183837890625
18.942028952176	0.82183837890625
18.9520289521507	0.8221435546875
18.9620289521255	0.8221435546875
18.9720289521002	0.8221435546875
18.982028952075	0.8221435546875
18.9920289520497	0.82244873046875
19.0020289520245	0.82244873046875
19.0120289519992	0.82244873046875
19.022028951974	0.82244873046875
19.0320289519487	0.82244873046875
19.0420289519235	0.82275390625
19.0520289518983	0.82275390625
19.062028951873	0.82275390625
19.0720289518478	0.82275390625
19.0820289518225	0.82275390625
19.0920289517973	0.82305908203125
19.102028951772	0.82305908203125
19.1120289517468	0.82305908203125
19.1220289517215	0.82305908203125
19.1320289516963	0.8233642578125
19.142028951671	0.8233642578125
19.1520289516458	0.8233642578125
19.1620289516205	0.8233642578125
19.1720289515953	0.8233642578125
19.18202895157	0.82366943359375
19.1920289515448	0.82366943359375
19.2020289515195	0.82366943359375
19.2120289514943	0.82366943359375
19.222028951469	0.823974609375
19.2320289514438	0.823974609375
19.2420289514185	0.823974609375
19.2520289513933	0.823974609375
19.2620289513681	0.823974609375
19.2720289513428	0.82427978515625
19.2820289513176	0.82427978515625
19.2920289512923	0.82427978515625
19.3020289512671	0.82427978515625
19.3120289512418	0.8245849609375
19.3220289512166	0.8245849609375
19.3320289511913	0.8245849609375
19.3420289511661	0.8245849609375
19.3520289511408	0.8245849609375
19.3620289511156	0.82489013671875
19.3720289510903	0.82489013671875
19.3820289510651	0.82489013671875
19.3920289510398	0.82489013671875
19.4020289510146	0.8251953125
19.4120289509893	0.8251953125
19.4220289509641	0.8251953125
19.4320289509388	0.8251953125
19.4420289509136	0.8251953125
19.4520289508883	0.82550048828125
19.4620289508631	0.82550048828125
19.4720289508379	0.82550048828125
19.4820289508126	0.82550048828125
19.4920289507874	0.8258056640625
19.5020289507621	0.8258056640625
19.5120289507369	0.8258056640625
19.5220289507116	0.8258056640625
19.5320289506864	0.8258056640625
19.5420289506611	0.82611083984375
19.5520289506359	0.82611083984375
19.5620289506106	0.82611083984375
19.5720289505854	0.82611083984375
19.5820289505601	0.826416015625
19.5920289505349	0.826416015625
19.6020289505096	0.826416015625
19.6120289504844	0.826416015625
19.6220289504591	0.826416015625
19.6320289504339	0.82672119140625
19.6420289504086	0.82672119140625
19.6520289503834	0.82672119140625
19.6620289503581	0.82672119140625
19.6720289503329	0.8270263671875
19.6820289503077	0.8270263671875
19.6920289502824	0.8270263671875
19.7020289502572	0.8270263671875
19.7120289502319	0.8270263671875
19.7220289502067	0.82733154296875
19.7320289501814	0.82733154296875
19.7420289501562	0.82733154296875
19.7520289501309	0.82733154296875
19.7620289501057	0.82763671875
19.7720289500804	0.82763671875
19.7820289500552	0.82763671875
19.7920289500299	0.82763671875
19.8020289500047	0.82794189453125
19.8120289499794	0.82794189453125
19.8220289499542	0.82794189453125
19.8320289499289	0.82794189453125
19.8420289499037	0.82794189453125
19.8520289498784	0.8282470703125
19.8620289498532	0.8282470703125
19.8720289498279	0.8282470703125
19.8820289498027	0.8282470703125
19.8920289497775	0.82855224609375
19.9020289497522	0.82855224609375
19.912028949727	0.82855224609375
19.9220289497017	0.82855224609375
19.9320289496765	0.828857421875
19.9420289496512	0.828857421875
19.952028949626	0.828857421875
19.9620289496007	0.828857421875
19.9720289495755	0.82916259765625
19.9820289495502	0.82916259765625
19.992028949525	0.82916259765625
20.0020289494997	0.82916259765625
20.0120289494745	0.82916259765625
20.0220289494492	0.8294677734375
20.032028949424	0.8294677734375
20.0420289493987	0.8294677734375
20.0520289493735	0.8294677734375
20.0620289493482	0.82977294921875
20.072028949323	0.82977294921875
20.0820289492978	0.82977294921875
20.0920289492725	0.82977294921875
20.1020289492473	0.82977294921875
20.112028949222	0.830078125
20.1220289491968	0.830078125
20.1320289491715	0.830078125
20.1420289491463	0.830078125
20.152028949121	0.83038330078125
20.1620289490958	0.83038330078125
20.1720289490705	0.83038330078125
20.1820289490453	0.83038330078125
20.19202894902	0.8306884765625
20.2020289489948	0.8306884765625
20.2120289489695	0.8306884765625
20.2220289489443	0.8306884765625
20.232028948919	0.83099365234375
20.2420289488938	0.83099365234375
20.2520289488685	0.83099365234375
20.2620289488433	0.83099365234375
20.272028948818	0.831298828125
20.2820289487928	0.831298828125
20.2920289487676	0.831298828125
20.3020289487423	0.831298828125
20.3120289487171	0.83160400390625
20.3220289486918	0.83160400390625
20.3320289486666	0.83160400390625
20.3420289486413	0.83160400390625
20.3520289486161	0.83160400390625
20.3620289485908	0.8319091796875
20.3720289485656	0.8319091796875
20.3820289485403	0.8319091796875
20.3920289485151	0.8319091796875
20.4020289484898	0.83221435546875
20.4120289484646	0.83221435546875
20.4220289484393	0.83221435546875
20.4320289484141	0.83221435546875
20.4420289483888	0.83251953125
20.4520289483636	0.83251953125
20.4620289483383	0.83251953125
20.4720289483131	0.83251953125
20.4820289482878	0.83282470703125
20.4920289482626	0.83282470703125
20.5020289482374	0.83282470703125
20.5120289482121	0.83282470703125
20.5220289481869	0.8331298828125
20.5320289481616	0.8331298828125
20.5420289481364	0.8331298828125
20.5520289481111	0.8331298828125
20.5620289480859	0.83343505859375
20.5720289480606	0.83343505859375
20.5820289480354	0.83343505859375
20.5920289480101	0.83343505859375
20.6020289479849	0.83343505859375
20.6120289479596	0.833740234375
20.6220289479344	0.833740234375
20.6320289479091	0.833740234375
20.6420289478839	0.833740234375
20.6520289478586	0.833740234375
20.6620289478334	0.83404541015625
20.6720289478081	0.83404541015625
20.6820289477829	0.83404541015625
20.6920289477576	0.83404541015625
20.7020289477324	0.8343505859375
20.7120289477072	0.8343505859375
20.7220289476819	0.8343505859375
20.7320289476567	0.8343505859375
20.7420289476314	0.83465576171875
20.7520289476062	0.83465576171875
20.7620289475809	0.83465576171875
20.7720289475557	0.83465576171875
20.7820289475304	0.83465576171875
20.7920289475052	0.8349609375
20.8020289474799	0.8349609375
20.8120289474547	0.8349609375
20.8220289474294	0.8349609375
20.8320289474042	0.83526611328125
20.8420289473789	0.83526611328125
20.8520289473537	0.83526611328125
20.8620289473284	0.83526611328125
20.8720289473032	0.83526611328125
20.8820289472779	0.8355712890625
20.8920289472527	0.8355712890625
20.9020289472274	0.8355712890625
20.9120289472022	0.8355712890625
20.922028947177	0.83587646484375
20.9320289471517	0.83587646484375
20.9420289471265	0.83587646484375
20.9520289471012	0.83587646484375
20.962028947076	0.836181640625
20.9720289470507	0.836181640625
20.9820289470255	0.836181640625
20.9920289470002	0.836181640625
21.002028946975	0.83648681640625
21.0120289469497	0.83648681640625
21.0220289469245	0.83648681640625
21.0320289468992	0.83648681640625
21.042028946874	0.83648681640625
21.0520289468487	0.8367919921875
21.0620289468235	0.8367919921875
21.0720289467982	0.8367919921875
21.082028946773	0.83709716796875
21.0920289467477	0.83709716796875
21.1020289467225	0.83709716796875
21.1120289466973	0.83709716796875
21.122028946672	0.83709716796875
21.1320289466468	0.83740234375
21.1420289466215	0.83740234375
21.1520289465963	0.83740234375
21.162028946571	0.83740234375
21.1720289465458	0.83770751953125
21.1820289465205	0.83770751953125
21.1920289464953	0.83770751953125
21.20202894647	0.83770751953125
21.2120289464448	0.83770751953125
21.2220289464195	0.8380126953125
21.2320289463943	0.8380126953125
21.242028946369	0.8380126953125
21.2520289463438	0.8380126953125
21.2620289463185	0.83831787109375
21.2720289462933	0.83831787109375
21.282028946268	0.83831787109375
21.2920289462428	0.83831787109375
21.3020289462175	0.838623046875
21.3120289461923	0.838623046875
21.3220289461671	0.838623046875
21.3320289461418	0.838623046875
21.3420289461166	0.83892822265625
21.3520289460913	0.83892822265625
21.3620289460661	0.83892822265625
21.3720289460408	0.83892822265625
21.3820289460156	0.8392333984375
21.3920289459903	0.8392333984375
21.4020289459651	0.8392333984375
21.4120289459398	0.8392333984375
21.4220289459146	0.83953857421875
21.4320289458893	0.83953857421875
21.4420289458641	0.83953857421875
21.4520289458388	0.83953857421875
21.4620289458136	0.83984375
21.4720289457883	0.83984375
21.4820289457631	0.83984375
21.4920289457378	0.83984375
21.5020289457126	0.83984375
21.5120289456873	0.84014892578125
21.5220289456621	0.84014892578125
21.5320289456369	0.84014892578125
21.5420289456116	0.84014892578125
21.5520289455864	0.8404541015625
21.5620289455611	0.8404541015625
21.5720289455359	0.8404541015625
21.5820289455106	0.8404541015625
21.5920289454854	0.84075927734375
21.6020289454601	0.84075927734375
21.6120289454349	0.84075927734375
21.6220289454096	0.84075927734375
21.6320289453844	0.841064453125
21.6420289453591	0.841064453125
21.6520289453339	0.841064453125
21.6620289453086	0.841064453125
21.6720289452834	0.84136962890625
21.6820289452581	0.84136962890625
21.6920289452329	0.84136962890625
21.7020289452076	0.84136962890625
21.7120289451824	0.8416748046875
21.7220289451571	0.8416748046875
21.7320289451319	0.8416748046875
21.7420289451067	0.8416748046875
21.7520289450814	0.8416748046875
21.7620289450562	0.84197998046875
21.7720289450309	0.84197998046875
21.7820289450057	0.84197998046875
21.7920289449804	0.84197998046875
21.8020289449552	0.84228515625
21.8120289449299	0.84228515625
21.8220289449047	0.84228515625
21.8320289448794	0.84259033203125
21.8420289448542	0.84259033203125
21.8520289448289	0.84259033203125
21.8620289448037	0.84259033203125
21.8720289447784	0.8428955078125
21.8820289447532	0.8428955078125
21.8920289447279	0.8428955078125
21.9020289447027	0.8428955078125
21.9120289446774	0.84320068359375
21.9220289446522	0.84320068359375
21.9320289446269	0.84320068359375
21.9420289446017	0.84320068359375
21.9520289445765	0.843505859375
21.9620289445512	0.843505859375
21.972028944526	0.843505859375
21.9820289445007	0.843505859375
21.9920289444755	0.84381103515625
22.0020289444502	0.84381103515625
22.012028944425	0.84381103515625
22.0220289443997	0.84381103515625
22.0320289443745	0.8441162109375
22.0420289443492	0.8441162109375
22.052028944324	0.8441162109375
22.0620289442987	0.8441162109375
22.0720289442735	0.8441162109375
22.0820289442482	0.84442138671875
22.092028944223	0.84442138671875
