Time (s)	WE(1).Potential (V)
96.3523357567337	0.8636474609375
96.3623357567085	0.8636474609375
96.3723357566832	0.8636474609375
96.382335756658	0.8636474609375
96.3923357566327	0.8636474609375
96.4023357566075	0.8636474609375
96.4123357565823	0.8636474609375
96.422335756557	0.86395263671875
96.4323357565318	0.86395263671875
96.4423357565065	0.8636474609375
96.4523357564813	0.86395263671875
96.462335756456	0.86395263671875
96.4723357564308	0.86395263671875
96.4823357564055	0.86395263671875
96.4923357563803	0.86395263671875
96.502335756355	0.86395263671875
96.5123357563298	0.86395263671875
96.5223357563045	0.86395263671875
96.5323357562793	0.86395263671875
96.542335756254	0.86395263671875
96.5523357562288	0.86395263671875
96.5623357562035	0.86395263671875
96.5723357561783	0.86395263671875
96.582335756153	0.86395263671875
96.5923357561278	0.86395263671875
96.6023357561025	0.86395263671875
96.6123357560773	0.86395263671875
96.6223357560521	0.86395263671875
96.6323357560268	0.86395263671875
96.6423357560016	0.86395263671875
96.6523357559763	0.86395263671875
96.6623357559511	0.86395263671875
96.6723357559258	0.86395263671875
96.6823357559006	0.86395263671875
96.6923357558753	0.86395263671875
96.7023357558501	0.86395263671875
96.7123357558248	0.86395263671875
96.7223357557996	0.86395263671875
96.7323357557743	0.86395263671875
96.7423357557491	0.86395263671875
96.7523357557238	0.86395263671875
96.7623357556986	0.86395263671875
96.7723357556733	0.86395263671875
96.7823357556481	0.86395263671875
96.7923357556228	0.86395263671875
96.8023357555976	0.86395263671875
96.8123357555723	0.86395263671875
96.8223357555471	0.86395263671875
96.8323357555219	0.86395263671875
96.8423357554966	0.86395263671875
96.8523357554714	0.86395263671875
96.8623357554461	0.86395263671875
96.8723357554209	0.86395263671875
96.8823357553956	0.86395263671875
96.8923357553704	0.86395263671875
96.9023357553451	0.86395263671875
96.9123357553199	0.86395263671875
96.9223357552946	0.86395263671875
96.9323357552694	0.86395263671875
96.9423357552441	0.8642578125
96.9523357552189	0.86395263671875
96.9623357551936	0.8642578125
96.9723357551684	0.8642578125
96.9823357551431	0.8642578125
96.9923357551179	0.8642578125
97.0023357550926	0.8642578125
97.0123357550674	0.8642578125
97.0223357550421	0.8642578125
97.0323357550169	0.8642578125
97.0423357549917	0.8642578125
97.0523357549664	0.8642578125
97.0623357549412	0.8642578125
97.0723357549159	0.8642578125
97.0823357548907	0.8642578125
97.0923357548654	0.8642578125
97.1023357548402	0.8642578125
97.1123357548149	0.8642578125
97.1223357547897	0.8642578125
97.1323357547644	0.8642578125
97.1423357547392	0.8642578125
97.1523357547139	0.8642578125
97.1623357546887	0.8642578125
97.1723357546634	0.8642578125
97.1823357546382	0.8642578125
97.1923357546129	0.8642578125
97.2023357545877	0.8642578125
97.2123357545624	0.8642578125
97.2223357545372	0.8642578125
97.232335754512	0.8642578125
97.2423357544867	0.8642578125
97.2523357544615	0.8642578125
97.2623357544362	0.8642578125
97.272335754411	0.8642578125
97.2823357543857	0.8642578125
97.2923357543605	0.8642578125
97.3023357543352	0.8642578125
97.31233575431	0.8642578125
97.3223357542847	0.8642578125
97.3323357542595	0.8642578125
97.3423357542342	0.8642578125
97.352335754209	0.8642578125
97.3623357541837	0.8642578125
97.3723357541585	0.8642578125
97.3823357541332	0.8642578125
97.392335754108	0.8642578125
97.4023357540827	0.8642578125
97.4123357540575	0.8642578125
97.4223357540322	0.8642578125
97.432335754007	0.8642578125
97.4423357539818	0.8642578125
97.4523357539565	0.8642578125
97.4623357539313	0.8642578125
97.472335753906	0.86456298828125
97.4823357538808	0.86456298828125
97.4923357538555	0.8642578125
97.5023357538303	0.86456298828125
97.512335753805	0.86456298828125
97.5223357537798	0.86456298828125
97.5323357537545	0.86456298828125
97.5423357537293	0.86456298828125
97.552335753704	0.86456298828125
97.5623357536788	0.86456298828125
97.5723357536535	0.86456298828125
97.5823357536283	0.86456298828125
97.592335753603	0.86456298828125
97.6023357535778	0.86456298828125
97.6123357535525	0.86456298828125
97.6223357535273	0.86456298828125
97.632335753502	0.86456298828125
97.6423357534768	0.86456298828125
97.6523357534516	0.86456298828125
97.6623357534263	0.86456298828125
97.6723357534011	0.86456298828125
97.6823357533758	0.86456298828125
97.6923357533506	0.86456298828125
97.7023357533253	0.86456298828125
97.7123357533001	0.86456298828125
97.7223357532748	0.86456298828125
97.7323357532496	0.86456298828125
97.7423357532243	0.86456298828125
97.7523357531991	0.86456298828125
97.7623357531738	0.86456298828125
97.7723357531486	0.86456298828125
97.7823357531233	0.86456298828125
97.7923357530981	0.86456298828125
97.8023357530728	0.86456298828125
97.8123357530476	0.86456298828125
97.8223357530223	0.86456298828125
97.8323357529971	0.86456298828125
97.8423357529718	0.86456298828125
97.8523357529466	0.86456298828125
97.8623357529214	0.86456298828125
97.8723357528961	0.86456298828125
97.8823357528709	0.8648681640625
97.8923357528456	0.8648681640625
97.9023357528204	0.86456298828125
97.9123357527951	0.8648681640625
97.9223357527699	0.8648681640625
97.9323357527446	0.8648681640625
97.9423357527194	0.8648681640625
97.9523357526941	0.8648681640625
97.9623357526689	0.8648681640625
97.9723357526436	0.8648681640625
97.9823357526184	0.8648681640625
97.9923357525931	0.8648681640625
98.0023357525679	0.8648681640625
98.0123357525426	0.8648681640625
98.0223357525174	0.8648681640625
98.0323357524921	0.8648681640625
98.0423357524669	0.8648681640625
98.0523357524416	0.8648681640625
98.0623357524164	0.8648681640625
98.0723357523912	0.8648681640625
98.0823357523659	0.8648681640625
98.0923357523407	0.8648681640625
98.1023357523154	0.8648681640625
98.1123357522902	0.8648681640625
98.1223357522649	0.8648681640625
98.1323357522397	0.8648681640625
98.1423357522144	0.8648681640625
98.1523357521892	0.8648681640625
98.1623357521639	0.8648681640625
98.1723357521387	0.8648681640625
98.1823357521134	0.8648681640625
98.1923357520882	0.8648681640625
98.2023357520629	0.8648681640625
98.2123357520377	0.8648681640625
98.2223357520124	0.8648681640625
98.2323357519872	0.8648681640625
98.2423357519619	0.8648681640625
98.2523357519367	0.8648681640625
98.2623357519115	0.8648681640625
98.2723357518862	0.8648681640625
98.282335751861	0.8648681640625
98.2923357518357	0.8648681640625
98.3023357518105	0.8648681640625
98.3123357517852	0.8648681640625
98.32233575176	0.8648681640625
98.3323357517347	0.8648681640625
98.3423357517095	0.8648681640625
98.3523357516842	0.8648681640625
98.362335751659	0.8648681640625
98.3723357516337	0.8648681640625
98.3823357516085	0.8648681640625
98.3923357515832	0.8648681640625
98.402335751558	0.8648681640625
98.4123357515327	0.86517333984375
98.4223357515075	0.86517333984375
98.4323357514822	0.8648681640625
98.442335751457	0.8648681640625
98.4523357514317	0.86517333984375
98.4623357514065	0.86517333984375
98.4723357513813	0.86517333984375
98.482335751356	0.86517333984375
98.4923357513308	0.86517333984375
98.5023357513055	0.86517333984375
98.5123357512803	0.86517333984375
98.522335751255	0.86517333984375
98.5323357512298	0.86517333984375
98.5423357512045	0.86517333984375
98.5523357511793	0.86517333984375
98.562335751154	0.86517333984375
98.5723357511288	0.86517333984375
98.5823357511035	0.86517333984375
98.5923357510783	0.86517333984375
98.602335751053	0.86517333984375
98.6123357510278	0.86517333984375
98.6223357510025	0.86517333984375
98.6323357509773	0.86517333984375
98.642335750952	0.86517333984375
98.6523357509268	0.86517333984375
98.6623357509015	0.86517333984375
98.6723357508763	0.86517333984375
98.6823357508511	0.86517333984375
98.6923357508258	0.86517333984375
98.7023357508006	0.86517333984375
98.7123357507753	0.86517333984375
98.7223357507501	0.86517333984375
98.7323357507248	0.86517333984375
98.7423357506996	0.86517333984375
98.7523357506743	0.86517333984375
98.7623357506491	0.86517333984375
98.7723357506238	0.86517333984375
98.7823357505986	0.86517333984375
98.7923357505733	0.86517333984375
98.8023357505481	0.86517333984375
98.8123357505228	0.86517333984375
98.8223357504976	0.86517333984375
98.8323357504723	0.86517333984375
98.8423357504471	0.86517333984375
98.8523357504218	0.86517333984375
98.8623357503966	0.86517333984375
98.8723357503713	0.86517333984375
98.8823357503461	0.86517333984375
98.8923357503209	0.86517333984375
98.9023357502956	0.86517333984375
98.9123357502704	0.86517333984375
98.9223357502451	0.86517333984375
98.9323357502199	0.86517333984375
98.9423357501946	0.86517333984375
98.9523357501694	0.86517333984375
98.9623357501441	0.86517333984375
98.9723357501189	0.86517333984375
98.9823357500936	0.86517333984375
98.9923357500684	0.86517333984375
99.0023357500431	0.86517333984375
99.0123357500179	0.86517333984375
99.0223357499926	0.86517333984375
99.0323357499674	0.86517333984375
99.0423357499421	0.86517333984375
99.0523357499169	0.865478515625
99.0623357498916	0.86517333984375
99.0723357498664	0.86517333984375
99.0823357498411	0.86517333984375
99.0923357498159	0.865478515625
99.1023357497907	0.86517333984375
99.1123357497654	0.86517333984375
99.1223357497402	0.86517333984375
99.1323357497149	0.86517333984375
99.1423357496897	0.865478515625
99.1523357496644	0.86517333984375
99.1623357496392	0.865478515625
99.1723357496139	0.865478515625
99.1823357495887	0.865478515625
99.1923357495634	0.865478515625
99.2023357495382	0.86517333984375
99.2123357495129	0.865478515625
99.2223357494877	0.865478515625
99.2323357494624	0.865478515625
99.2423357494372	0.865478515625
99.2523357494119	0.865478515625
99.2623357493867	0.865478515625
99.2723357493614	0.865478515625
99.2823357493362	0.865478515625
99.292335749311	0.865478515625
99.3023357492857	0.865478515625
99.3123357492605	0.865478515625
99.3223357492352	0.865478515625
99.33233574921	0.865478515625
99.3423357491847	0.865478515625
99.3523357491595	0.865478515625
99.3623357491342	0.865478515625
99.372335749109	0.865478515625
99.3823357490837	0.865478515625
99.3923357490585	0.865478515625
99.4023357490332	0.865478515625
99.412335749008	0.865478515625
99.4223357489827	0.865478515625
99.4323357489575	0.865478515625
99.4423357489322	0.865478515625
99.452335748907	0.865478515625
99.4623357488817	0.865478515625
99.4723357488565	0.865478515625
99.4823357488312	0.865478515625
99.492335748806	0.865478515625
99.5023357487808	0.865478515625
99.5123357487555	0.865478515625
99.5223357487303	0.865478515625
99.532335748705	0.865478515625
99.5423357486798	0.865478515625
99.5523357486545	0.865478515625
99.5623357486293	0.865478515625
99.572335748604	0.865478515625
99.5823357485788	0.865478515625
99.5923357485535	0.865478515625
99.6023357485283	0.865478515625
99.612335748503	0.865478515625
99.6223357484778	0.865478515625
99.6323357484525	0.865478515625
99.6423357484273	0.865478515625
99.652335748402	0.865478515625
99.6623357483768	0.865478515625
99.6723357483515	0.865478515625
99.6823357483263	0.865478515625
99.692335748301	0.865478515625
99.7023357482758	0.865478515625
99.7123357482506	0.865478515625
99.7223357482253	0.865478515625
99.7323357482001	0.865478515625
99.7423357481748	0.865478515625
99.7523357481496	0.865478515625
99.7623357481243	0.865478515625
99.7723357480991	0.865478515625
99.7823357480738	0.865478515625
99.7923357480486	0.865478515625
99.8023357480233	0.865478515625
99.8123357479981	0.865478515625
99.8223357479728	0.865478515625
99.8323357479476	0.865478515625
99.8423357479223	0.865478515625
99.8523357478971	0.865478515625
99.8623357478718	0.865478515625
99.8723357478466	0.865478515625
99.8823357478213	0.865478515625
99.8923357477961	0.865478515625
99.9023357477708	0.86578369140625
99.9123357477456	0.865478515625
99.9223357477204	0.865478515625
99.9323357476951	0.865478515625
99.9423357476699	0.865478515625
99.9523357476446	0.865478515625
99.9623357476194	0.865478515625
99.9723357475941	0.86578369140625
99.9823357475689	0.86578369140625
99.9923357475436	0.86578369140625
100.002335747518	0.86578369140625
100.012335747493	0.86578369140625
100.022335747468	0.86578369140625
100.032335747443	0.865478515625
100.042335747417	0.865478515625
100.052335747392	0.86578369140625
100.062335747367	0.86578369140625
100.072335747342	0.86578369140625
100.082335747316	0.86578369140625
100.092335747291	0.86578369140625
100.102335747266	0.86578369140625
100.112335747241	0.86578369140625
100.122335747215	0.86578369140625
100.13233574719	0.86578369140625
100.142335747165	0.86578369140625
100.15233574714	0.86578369140625
100.162335747114	0.86578369140625
100.172335747089	0.86578369140625
100.182335747064	0.86578369140625
100.192335747039	0.86578369140625
100.202335747013	0.86578369140625
100.212335746988	0.86578369140625
100.222335746963	0.86578369140625
100.232335746938	0.86578369140625
100.242335746912	0.86578369140625
100.252335746887	0.86578369140625
100.262335746862	0.86578369140625
100.272335746837	0.86578369140625
100.282335746811	0.86578369140625
100.292335746786	0.86578369140625
100.302335746761	0.86578369140625
100.312335746736	0.86578369140625
100.32233574671	0.86578369140625
100.332335746685	0.86578369140625
100.34233574666	0.86578369140625
100.352335746635	0.86578369140625
100.362335746609	0.86578369140625
100.372335746584	0.86578369140625
100.382335746559	0.86578369140625
100.392335746534	0.86578369140625
100.402335746508	0.86578369140625
100.412335746483	0.86578369140625
100.422335746458	0.86578369140625
100.432335746433	0.86578369140625
100.442335746407	0.86578369140625
100.452335746382	0.86578369140625
100.462335746357	0.86578369140625
100.472335746332	0.86578369140625
100.482335746306	0.86578369140625
100.492335746281	0.86578369140625
100.502335746256	0.86578369140625
100.512335746231	0.86578369140625
100.522335746205	0.86578369140625
100.53233574618	0.86578369140625
100.542335746155	0.86578369140625
100.55233574613	0.86578369140625
100.562335746105	0.86578369140625
100.572335746079	0.86578369140625
100.582335746054	0.86578369140625
100.592335746029	0.86578369140625
100.602335746004	0.86578369140625
100.612335745978	0.86578369140625
100.622335745953	0.86578369140625
100.632335745928	0.86578369140625
100.642335745903	0.86578369140625
100.652335745877	0.86578369140625
100.662335745852	0.86578369140625
100.672335745827	0.86578369140625
100.682335745802	0.86578369140625
100.692335745776	0.86578369140625
100.702335745751	0.86578369140625
100.712335745726	0.86578369140625
100.722335745701	0.86578369140625
100.732335745675	0.86578369140625
100.74233574565	0.86578369140625
100.752335745625	0.86578369140625
100.7623357456	0.86578369140625
100.772335745574	0.86578369140625
100.782335745549	0.86578369140625
100.792335745524	0.86578369140625
100.802335745499	0.86578369140625
100.812335745473	0.86578369140625
100.822335745448	0.86578369140625
100.832335745423	0.86578369140625
100.842335745398	0.86578369140625
100.852335745372	0.86578369140625
100.862335745347	0.86578369140625
100.872335745322	0.86578369140625
100.882335745297	0.86578369140625
100.892335745271	0.86578369140625
100.902335745246	0.86578369140625
100.912335745221	0.86578369140625
100.922335745196	0.86578369140625
100.93233574517	0.86578369140625
100.942335745145	0.86578369140625
100.95233574512	0.86578369140625
100.962335745095	0.86578369140625
100.972335745069	0.86578369140625
100.982335745044	0.86578369140625
100.992335745019	0.86578369140625
101.002335744994	0.86578369140625
101.012335744968	0.86578369140625
101.022335744943	0.86578369140625
101.032335744918	0.86578369140625
101.042335744893	0.86578369140625
101.052335744867	0.86578369140625
101.062335744842	0.86578369140625
101.072335744817	0.86578369140625
101.082335744792	0.86578369140625
101.092335744766	0.86578369140625
101.102335744741	0.86578369140625
101.112335744716	0.8660888671875
101.122335744691	0.86578369140625
101.132335744665	0.8660888671875
101.14233574464	0.86578369140625
101.152335744615	0.86578369140625
101.16233574459	0.86578369140625
101.172335744564	0.86578369140625
101.182335744539	0.86578369140625
101.192335744514	0.8660888671875
101.202335744489	0.8660888671875
101.212335744463	0.8660888671875
101.222335744438	0.86578369140625
101.232335744413	0.8660888671875
101.242335744388	0.8660888671875
101.252335744362	0.8660888671875
101.262335744337	0.8660888671875
101.272335744312	0.8660888671875
101.282335744287	0.8660888671875
101.292335744261	0.8660888671875
101.302335744236	0.8660888671875
101.312335744211	0.8660888671875
101.322335744186	0.8660888671875
101.33233574416	0.8660888671875
101.342335744135	0.8660888671875
