Time (s)	WE(1).Potential (V)
144.10889263616	0.8880615234375
144.118892636135	0.8880615234375
144.12889263611	0.8880615234375
144.138892636084	0.8880615234375
144.148892636059	0.8880615234375
144.158892636034	0.8880615234375
144.168892636009	0.8880615234375
144.178892635983	0.8880615234375
144.188892635958	0.8880615234375
144.198892635933	0.8880615234375
144.208892635908	0.8880615234375
144.218892635882	0.8880615234375
144.228892635857	0.8880615234375
144.238892635832	0.8880615234375
144.248892635807	0.8880615234375
144.258892635781	0.8880615234375
144.268892635756	0.8880615234375
144.278892635731	0.8880615234375
144.288892635706	0.8880615234375
144.29889263568	0.8880615234375
144.308892635655	0.8880615234375
144.31889263563	0.8880615234375
144.328892635605	0.8880615234375
144.338892635579	0.8880615234375
144.348892635554	0.8880615234375
144.358892635529	0.8880615234375
144.368892635504	0.8880615234375
144.378892635478	0.8880615234375
144.388892635453	0.8880615234375
144.398892635428	0.8880615234375
144.408892635403	0.8880615234375
144.418892635377	0.8880615234375
144.428892635352	0.8880615234375
144.438892635327	0.8880615234375
144.448892635302	0.8880615234375
144.458892635276	0.8880615234375
144.468892635251	0.8880615234375
144.478892635226	0.8880615234375
144.488892635201	0.8880615234375
144.498892635175	0.8880615234375
144.50889263515	0.8880615234375
144.518892635125	0.8880615234375
144.5288926351	0.8880615234375
144.538892635074	0.8880615234375
144.548892635049	0.8880615234375
144.558892635024	0.8880615234375
144.568892634999	0.8880615234375
144.578892634973	0.8880615234375
144.588892634948	0.8880615234375
144.598892634923	0.8880615234375
144.608892634898	0.8880615234375
144.618892634872	0.8880615234375
144.628892634847	0.8880615234375
144.638892634822	0.8880615234375
144.648892634797	0.8880615234375
144.658892634771	0.8880615234375
144.668892634746	0.8880615234375
144.678892634721	0.8880615234375
144.688892634696	0.8880615234375
144.69889263467	0.88836669921875
144.708892634645	0.8880615234375
144.71889263462	0.8880615234375
144.728892634595	0.8880615234375
144.738892634569	0.8880615234375
144.748892634544	0.8880615234375
144.758892634519	0.8880615234375
144.768892634494	0.8880615234375
144.778892634468	0.8880615234375
144.788892634443	0.8880615234375
144.798892634418	0.8880615234375
144.808892634393	0.8880615234375
144.818892634367	0.8880615234375
144.828892634342	0.8880615234375
144.838892634317	0.88836669921875
144.848892634292	0.88836669921875
144.858892634266	0.88836669921875
144.868892634241	0.88836669921875
144.878892634216	0.88836669921875
144.888892634191	0.8880615234375
144.898892634165	0.88836669921875
144.90889263414	0.88836669921875
144.918892634115	0.88836669921875
144.92889263409	0.8880615234375
144.938892634064	0.8880615234375
144.948892634039	0.88836669921875
144.958892634014	0.88836669921875
144.968892633989	0.88836669921875
144.978892633963	0.88836669921875
144.988892633938	0.88836669921875
144.998892633913	0.88836669921875
145.008892633888	0.88836669921875
145.018892633862	0.88836669921875
145.028892633837	0.88836669921875
145.038892633812	0.88836669921875
145.048892633787	0.88836669921875
145.058892633762	0.88836669921875
145.068892633736	0.88836669921875
145.078892633711	0.88836669921875
145.088892633686	0.88836669921875
145.098892633661	0.88836669921875
145.108892633635	0.88836669921875
145.11889263361	0.88836669921875
145.128892633585	0.88836669921875
145.13889263356	0.88836669921875
145.148892633534	0.88836669921875
145.158892633509	0.88836669921875
145.168892633484	0.88836669921875
145.178892633459	0.88836669921875
145.188892633433	0.88836669921875
145.198892633408	0.88836669921875
145.208892633383	0.88836669921875
145.218892633358	0.88836669921875
145.228892633332	0.88836669921875
145.238892633307	0.88836669921875
145.248892633282	0.88836669921875
145.258892633257	0.88836669921875
145.268892633231	0.88836669921875
145.278892633206	0.88836669921875
145.288892633181	0.88836669921875
145.298892633156	0.88836669921875
145.30889263313	0.88836669921875
145.318892633105	0.88836669921875
145.32889263308	0.88836669921875
145.338892633055	0.88836669921875
145.348892633029	0.88836669921875
145.358892633004	0.88836669921875
145.368892632979	0.88836669921875
145.378892632954	0.88836669921875
145.388892632928	0.88836669921875
145.398892632903	0.88836669921875
145.408892632878	0.88836669921875
145.418892632853	0.88836669921875
145.428892632827	0.88836669921875
145.438892632802	0.88836669921875
145.448892632777	0.88836669921875
145.458892632752	0.88836669921875
145.468892632726	0.88836669921875
145.478892632701	0.88836669921875
145.488892632676	0.88836669921875
145.498892632651	0.88836669921875
145.508892632625	0.88836669921875
145.5188926326	0.88836669921875
145.528892632575	0.88836669921875
145.53889263255	0.88836669921875
145.548892632524	0.88836669921875
145.558892632499	0.88836669921875
145.568892632474	0.88836669921875
145.578892632449	0.88836669921875
145.588892632423	0.88836669921875
145.598892632398	0.88836669921875
145.608892632373	0.88836669921875
145.618892632348	0.88836669921875
145.628892632322	0.88836669921875
145.638892632297	0.88836669921875
145.648892632272	0.88836669921875
145.658892632247	0.88836669921875
145.668892632221	0.88836669921875
145.678892632196	0.88836669921875
145.688892632171	0.88836669921875
145.698892632146	0.88836669921875
145.70889263212	0.88836669921875
145.718892632095	0.88836669921875
145.72889263207	0.88836669921875
145.738892632045	0.88836669921875
145.748892632019	0.88836669921875
145.758892631994	0.88836669921875
145.768892631969	0.88836669921875
145.778892631944	0.88836669921875
145.788892631918	0.88836669921875
145.798892631893	0.88836669921875
145.808892631868	0.88836669921875
145.818892631843	0.88836669921875
145.828892631817	0.88836669921875
145.838892631792	0.888671875
145.848892631767	0.888671875
145.858892631742	0.888671875
145.868892631716	0.888671875
145.878892631691	0.888671875
145.888892631666	0.888671875
145.898892631641	0.888671875
145.908892631615	0.888671875
145.91889263159	0.888671875
145.928892631565	0.888671875
145.93889263154	0.888671875
145.948892631514	0.888671875
145.958892631489	0.888671875
145.968892631464	0.888671875
145.978892631439	0.888671875
145.988892631413	0.888671875
145.998892631388	0.888671875
146.008892631363	0.888671875
146.018892631338	0.888671875
146.028892631312	0.888671875
146.038892631287	0.888671875
146.048892631262	0.888671875
146.058892631237	0.888671875
146.068892631211	0.888671875
146.078892631186	0.888671875
146.088892631161	0.888671875
146.098892631136	0.888671875
146.108892631111	0.888671875
146.118892631085	0.888671875
146.12889263106	0.888671875
146.138892631035	0.888671875
146.14889263101	0.888671875
146.158892630984	0.888671875
146.168892630959	0.888671875
146.178892630934	0.888671875
146.188892630909	0.888671875
146.198892630883	0.888671875
146.208892630858	0.888671875
146.218892630833	0.888671875
146.228892630808	0.888671875
146.238892630782	0.888671875
146.248892630757	0.888671875
146.258892630732	0.888671875
146.268892630707	0.888671875
146.278892630681	0.888671875
146.288892630656	0.888671875
146.298892630631	0.888671875
146.308892630606	0.888671875
146.31889263058	0.888671875
146.328892630555	0.888671875
146.33889263053	0.888671875
146.348892630505	0.888671875
146.358892630479	0.888671875
146.368892630454	0.888671875
146.378892630429	0.888671875
146.388892630404	0.888671875
146.398892630378	0.888671875
146.408892630353	0.888671875
146.418892630328	0.888671875
146.428892630303	0.888671875
146.438892630277	0.888671875
146.448892630252	0.888671875
146.458892630227	0.888671875
146.468892630202	0.888671875
146.478892630176	0.888671875
146.488892630151	0.888671875
146.498892630126	0.888671875
146.508892630101	0.888671875
146.518892630075	0.888671875
146.52889263005	0.888671875
146.538892630025	0.888671875
146.54889263	0.88897705078125
146.558892629974	0.888671875
146.568892629949	0.88897705078125
146.578892629924	0.88897705078125
146.588892629899	0.88897705078125
146.598892629873	0.88897705078125
146.608892629848	0.88897705078125
146.618892629823	0.88897705078125
146.628892629798	0.88897705078125
146.638892629772	0.88897705078125
146.648892629747	0.88897705078125
146.658892629722	0.88897705078125
146.668892629697	0.88897705078125
146.678892629671	0.88897705078125
146.688892629646	0.88897705078125
146.698892629621	0.88897705078125
146.708892629596	0.88897705078125
146.71889262957	0.88897705078125
146.728892629545	0.88897705078125
146.73889262952	0.88897705078125
146.748892629495	0.88897705078125
146.758892629469	0.88897705078125
146.768892629444	0.88897705078125
146.778892629419	0.88897705078125
146.788892629394	0.88897705078125
146.798892629368	0.88897705078125
146.808892629343	0.88897705078125
146.818892629318	0.88897705078125
146.828892629293	0.88897705078125
146.838892629267	0.88897705078125
146.848892629242	0.88897705078125
146.858892629217	0.88897705078125
146.868892629192	0.88897705078125
146.878892629166	0.88897705078125
146.888892629141	0.88897705078125
146.898892629116	0.88897705078125
146.908892629091	0.88897705078125
146.918892629065	0.88897705078125
146.92889262904	0.88897705078125
146.938892629015	0.88897705078125
146.94889262899	0.88897705078125
146.958892628964	0.88897705078125
146.968892628939	0.88897705078125
146.978892628914	0.88897705078125
146.988892628889	0.88897705078125
146.998892628863	0.88897705078125
147.008892628838	0.88897705078125
147.018892628813	0.88897705078125
147.028892628788	0.88897705078125
147.038892628762	0.88897705078125
147.048892628737	0.88897705078125
147.058892628712	0.88897705078125
147.068892628687	0.88897705078125
147.078892628661	0.88897705078125
147.088892628636	0.88897705078125
147.098892628611	0.88897705078125
147.108892628586	0.88897705078125
147.118892628561	0.88897705078125
147.128892628535	0.88897705078125
147.13889262851	0.88897705078125
147.148892628485	0.88897705078125
147.15889262846	0.88897705078125
147.168892628434	0.88897705078125
147.178892628409	0.88897705078125
147.188892628384	0.88897705078125
147.198892628359	0.8892822265625
147.208892628333	0.88897705078125
147.218892628308	0.88897705078125
147.228892628283	0.88897705078125
147.238892628258	0.88897705078125
147.248892628232	0.88897705078125
147.258892628207	0.88897705078125
147.268892628182	0.88897705078125
147.278892628157	0.8892822265625
147.288892628131	0.8892822265625
147.298892628106	0.88897705078125
147.308892628081	0.8892822265625
147.318892628056	0.8892822265625
147.32889262803	0.8892822265625
147.338892628005	0.88897705078125
147.34889262798	0.88897705078125
147.358892627955	0.8892822265625
147.368892627929	0.8892822265625
147.378892627904	0.8892822265625
147.388892627879	0.8892822265625
147.398892627854	0.8892822265625
147.408892627828	0.8892822265625
147.418892627803	0.8892822265625
147.428892627778	0.8892822265625
147.438892627753	0.8892822265625
147.448892627727	0.8892822265625
147.458892627702	0.8892822265625
147.468892627677	0.8892822265625
147.478892627652	0.8892822265625
147.488892627626	0.8892822265625
147.498892627601	0.8892822265625
147.508892627576	0.8892822265625
147.518892627551	0.8892822265625
147.528892627525	0.8892822265625
147.5388926275	0.8892822265625
147.548892627475	0.8892822265625
147.55889262745	0.8892822265625
147.568892627424	0.8892822265625
147.578892627399	0.8892822265625
147.588892627374	0.8892822265625
147.598892627349	0.8892822265625
147.608892627323	0.8892822265625
147.618892627298	0.8892822265625
147.628892627273	0.8892822265625
147.638892627248	0.8892822265625
147.648892627222	0.8892822265625
147.658892627197	0.8892822265625
147.668892627172	0.8892822265625
147.678892627147	0.8892822265625
147.688892627121	0.8892822265625
147.698892627096	0.8892822265625
147.708892627071	0.8892822265625
147.718892627046	0.8892822265625
147.72889262702	0.8892822265625
147.738892626995	0.8892822265625
147.74889262697	0.8892822265625
147.758892626945	0.8892822265625
147.768892626919	0.8892822265625
147.778892626894	0.8892822265625
147.788892626869	0.8892822265625
147.798892626844	0.8892822265625
147.808892626818	0.8892822265625
147.818892626793	0.8892822265625
147.828892626768	0.8892822265625
147.838892626743	0.8892822265625
147.848892626717	0.8892822265625
147.858892626692	0.8892822265625
147.868892626667	0.8892822265625
147.878892626642	0.8892822265625
147.888892626616	0.8892822265625
147.898892626591	0.8892822265625
147.908892626566	0.8892822265625
147.918892626541	0.8892822265625
147.928892626515	0.8892822265625
147.93889262649	0.8892822265625
147.948892626465	0.8892822265625
147.95889262644	0.8892822265625
147.968892626414	0.8892822265625
147.978892626389	0.8892822265625
147.988892626364	0.8892822265625
147.998892626339	0.8892822265625
148.008892626313	0.8892822265625
148.018892626288	0.8892822265625
148.028892626263	0.8892822265625
148.038892626238	0.8892822265625
148.048892626212	0.8892822265625
148.058892626187	0.8892822265625
148.068892626162	0.8892822265625
148.078892626137	0.8892822265625
148.088892626111	0.8892822265625
148.098892626086	0.88958740234375
148.108892626061	0.8892822265625
148.118892626036	0.88958740234375
148.12889262601	0.8892822265625
148.138892625985	0.88958740234375
148.14889262596	0.88958740234375
148.158892625935	0.88958740234375
148.16889262591	0.88958740234375
148.178892625884	0.88958740234375
148.188892625859	0.88958740234375
148.198892625834	0.88958740234375
148.208892625809	0.88958740234375
148.218892625783	0.88958740234375
148.228892625758	0.88958740234375
148.238892625733	0.88958740234375
148.248892625708	0.88958740234375
148.258892625682	0.88958740234375
148.268892625657	0.88958740234375
148.278892625632	0.88958740234375
148.288892625607	0.88958740234375
148.298892625581	0.88958740234375
148.308892625556	0.88958740234375
148.318892625531	0.88958740234375
148.328892625506	0.88958740234375
148.33889262548	0.88958740234375
148.348892625455	0.88958740234375
148.35889262543	0.88958740234375
148.368892625405	0.88958740234375
148.378892625379	0.88958740234375
148.388892625354	0.88958740234375
148.398892625329	0.88958740234375
148.408892625304	0.88958740234375
148.418892625278	0.88958740234375
148.428892625253	0.88958740234375
148.438892625228	0.88958740234375
148.448892625203	0.88958740234375
148.458892625177	0.88958740234375
148.468892625152	0.88958740234375
148.478892625127	0.88958740234375
148.488892625102	0.88958740234375
148.498892625076	0.88958740234375
148.508892625051	0.88958740234375
148.518892625026	0.88958740234375
148.528892625001	0.88958740234375
148.538892624975	0.88958740234375
148.54889262495	0.88958740234375
148.558892624925	0.88958740234375
148.5688926249	0.88958740234375
148.578892624874	0.88958740234375
148.588892624849	0.88958740234375
148.598892624824	0.88958740234375
148.608892624799	0.88958740234375
148.618892624773	0.88958740234375
148.628892624748	0.88958740234375
148.638892624723	0.88958740234375
148.648892624698	0.88958740234375
148.658892624672	0.88958740234375
148.668892624647	0.88958740234375
148.678892624622	0.88958740234375
148.688892624597	0.88958740234375
148.698892624571	0.88958740234375
148.708892624546	0.88958740234375
148.718892624521	0.88958740234375
148.728892624496	0.88958740234375
148.73889262447	0.88958740234375
148.748892624445	0.88958740234375
148.75889262442	0.88958740234375
148.768892624395	0.88958740234375
148.778892624369	0.88958740234375
148.788892624344	0.88958740234375
148.798892624319	0.88958740234375
148.808892624294	0.88958740234375
148.818892624268	0.88958740234375
148.828892624243	0.88958740234375
148.838892624218	0.88958740234375
148.848892624193	0.889892578125
148.858892624167	0.88958740234375
148.868892624142	0.889892578125
148.878892624117	0.889892578125
148.888892624092	0.889892578125
148.898892624066	0.889892578125
148.908892624041	0.889892578125
148.918892624016	0.889892578125
148.928892623991	0.889892578125
148.938892623965	0.889892578125
148.94889262394	0.889892578125
148.958892623915	0.889892578125
148.96889262389	0.889892578125
148.978892623864	0.889892578125
148.988892623839	0.889892578125
148.998892623814	0.889892578125
149.008892623789	0.889892578125
149.018892623763	0.889892578125
149.028892623738	0.889892578125
149.038892623713	0.889892578125
149.048892623688	0.889892578125
149.058892623662	0.889892578125
149.068892623637	0.889892578125
149.078892623612	0.889892578125
149.088892623587	0.889892578125
149.098892623561	0.889892578125
