Time (s)	WE(1).Potential (V)
112.337865716374	0.870361328125
112.347865716349	0.870361328125
112.357865716324	0.870361328125
112.367865716298	0.870361328125
112.377865716273	0.870361328125
112.387865716248	0.870361328125
112.397865716223	0.870361328125
112.407865716197	0.870361328125
112.417865716172	0.870361328125
112.427865716147	0.870361328125
112.437865716122	0.870361328125
112.447865716096	0.870361328125
112.457865716071	0.870361328125
112.467865716046	0.87066650390625
112.477865716021	0.870361328125
112.487865715995	0.870361328125
112.49786571597	0.870361328125
112.507865715945	0.87066650390625
112.51786571592	0.87066650390625
112.527865715894	0.87066650390625
112.537865715869	0.870361328125
112.547865715844	0.87066650390625
112.557865715819	0.870361328125
112.567865715793	0.87066650390625
112.577865715768	0.87066650390625
112.587865715743	0.87066650390625
112.597865715718	0.87066650390625
112.607865715692	0.87066650390625
112.617865715667	0.87066650390625
112.627865715642	0.87066650390625
112.637865715617	0.87066650390625
112.647865715591	0.87066650390625
112.657865715566	0.87066650390625
112.667865715541	0.87066650390625
112.677865715516	0.87066650390625
112.68786571549	0.87066650390625
112.697865715465	0.87066650390625
112.70786571544	0.87066650390625
112.717865715415	0.87066650390625
112.727865715389	0.87066650390625
112.737865715364	0.87066650390625
112.747865715339	0.87066650390625
112.757865715314	0.87066650390625
112.767865715289	0.87066650390625
112.777865715263	0.87066650390625
112.787865715238	0.87066650390625
112.797865715213	0.87066650390625
112.807865715188	0.87066650390625
112.817865715162	0.87066650390625
112.827865715137	0.87066650390625
112.837865715112	0.87066650390625
112.847865715087	0.87066650390625
112.857865715061	0.87066650390625
112.867865715036	0.87066650390625
112.877865715011	0.87066650390625
112.887865714986	0.87066650390625
112.89786571496	0.87066650390625
112.907865714935	0.87066650390625
112.91786571491	0.87066650390625
112.927865714885	0.87066650390625
112.937865714859	0.87066650390625
112.947865714834	0.87066650390625
112.957865714809	0.87066650390625
112.967865714784	0.87066650390625
112.977865714758	0.87066650390625
112.987865714733	0.87066650390625
112.997865714708	0.87066650390625
113.007865714683	0.87066650390625
113.017865714657	0.87066650390625
113.027865714632	0.87066650390625
113.037865714607	0.87066650390625
113.047865714582	0.87066650390625
113.057865714556	0.87066650390625
113.067865714531	0.87066650390625
113.077865714506	0.87066650390625
113.087865714481	0.87066650390625
113.097865714455	0.87066650390625
113.10786571443	0.87066650390625
113.117865714405	0.8709716796875
113.12786571438	0.8709716796875
113.137865714354	0.8709716796875
113.147865714329	0.8709716796875
113.157865714304	0.8709716796875
113.167865714279	0.8709716796875
113.177865714253	0.8709716796875
113.187865714228	0.8709716796875
113.197865714203	0.8709716796875
113.207865714178	0.8709716796875
113.217865714152	0.8709716796875
113.227865714127	0.8709716796875
113.237865714102	0.8709716796875
113.247865714077	0.8709716796875
113.257865714051	0.8709716796875
113.267865714026	0.8709716796875
113.277865714001	0.8709716796875
113.287865713976	0.8709716796875
113.29786571395	0.8709716796875
113.307865713925	0.8709716796875
113.3178657139	0.8709716796875
113.327865713875	0.8709716796875
113.337865713849	0.8709716796875
113.347865713824	0.8709716796875
113.357865713799	0.8709716796875
113.367865713774	0.8709716796875
113.377865713748	0.8709716796875
113.387865713723	0.8709716796875
113.397865713698	0.8709716796875
113.407865713673	0.8709716796875
113.417865713647	0.8709716796875
113.427865713622	0.8709716796875
113.437865713597	0.8709716796875
113.447865713572	0.8709716796875
113.457865713546	0.8709716796875
113.467865713521	0.8709716796875
113.477865713496	0.8709716796875
113.487865713471	0.8709716796875
113.497865713445	0.8709716796875
113.50786571342	0.8709716796875
113.517865713395	0.8709716796875
113.52786571337	0.8709716796875
113.537865713344	0.8709716796875
113.547865713319	0.8709716796875
113.557865713294	0.8709716796875
113.567865713269	0.8709716796875
113.577865713243	0.8709716796875
113.587865713218	0.8709716796875
113.597865713193	0.8709716796875
113.607865713168	0.8709716796875
113.617865713142	0.8709716796875
113.627865713117	0.8709716796875
113.637865713092	0.8709716796875
113.647865713067	0.8709716796875
113.657865713041	0.8709716796875
113.667865713016	0.8709716796875
113.677865712991	0.8709716796875
113.687865712966	0.8709716796875
113.69786571294	0.8709716796875
113.707865712915	0.8709716796875
113.71786571289	0.8709716796875
113.727865712865	0.8709716796875
113.737865712839	0.8709716796875
113.747865712814	0.8709716796875
113.757865712789	0.8709716796875
113.767865712764	0.8709716796875
113.777865712739	0.8709716796875
113.787865712713	0.8709716796875
113.797865712688	0.8709716796875
113.807865712663	0.8709716796875
113.817865712638	0.8709716796875
113.827865712612	0.8709716796875
113.837865712587	0.8709716796875
113.847865712562	0.8709716796875
113.857865712537	0.8709716796875
113.867865712511	0.8709716796875
113.877865712486	0.8709716796875
113.887865712461	0.8709716796875
113.897865712436	0.87127685546875
113.90786571241	0.8709716796875
113.917865712385	0.87127685546875
113.92786571236	0.87127685546875
113.937865712335	0.8709716796875
113.947865712309	0.87127685546875
113.957865712284	0.87127685546875
113.967865712259	0.8709716796875
113.977865712234	0.87127685546875
113.987865712208	0.87127685546875
113.997865712183	0.87127685546875
114.007865712158	0.87127685546875
114.017865712133	0.87127685546875
114.027865712107	0.87127685546875
114.037865712082	0.87127685546875
114.047865712057	0.87127685546875
114.057865712032	0.87127685546875
114.067865712006	0.87127685546875
114.077865711981	0.87127685546875
114.087865711956	0.87127685546875
114.097865711931	0.87127685546875
114.107865711905	0.87127685546875
114.11786571188	0.87127685546875
114.127865711855	0.87127685546875
114.13786571183	0.87127685546875
114.147865711804	0.87127685546875
114.157865711779	0.87127685546875
114.167865711754	0.87127685546875
114.177865711729	0.87127685546875
114.187865711703	0.87127685546875
114.197865711678	0.87127685546875
114.207865711653	0.87127685546875
114.217865711628	0.87127685546875
114.227865711602	0.87127685546875
114.237865711577	0.87127685546875
114.247865711552	0.87127685546875
114.257865711527	0.87127685546875
114.267865711501	0.87127685546875
114.277865711476	0.87127685546875
114.287865711451	0.87127685546875
114.297865711426	0.87127685546875
114.3078657114	0.87127685546875
114.317865711375	0.87127685546875
114.32786571135	0.87127685546875
114.337865711325	0.87127685546875
114.347865711299	0.87127685546875
114.357865711274	0.87127685546875
114.367865711249	0.87127685546875
114.377865711224	0.87127685546875
114.387865711198	0.87127685546875
114.397865711173	0.87127685546875
114.407865711148	0.87127685546875
114.417865711123	0.87127685546875
114.427865711097	0.87127685546875
114.437865711072	0.87127685546875
114.447865711047	0.87127685546875
114.457865711022	0.87127685546875
114.467865710996	0.87127685546875
114.477865710971	0.87127685546875
114.487865710946	0.87127685546875
114.497865710921	0.87127685546875
114.507865710895	0.87127685546875
114.51786571087	0.87127685546875
114.527865710845	0.87127685546875
114.53786571082	0.87127685546875
114.547865710794	0.87127685546875
114.557865710769	0.87127685546875
114.567865710744	0.87127685546875
114.577865710719	0.87127685546875
114.587865710693	0.87127685546875
114.597865710668	0.87127685546875
114.607865710643	0.87127685546875
114.617865710618	0.87127685546875
114.627865710592	0.87127685546875
114.637865710567	0.87127685546875
114.647865710542	0.87127685546875
114.657865710517	0.87158203125
114.667865710491	0.87127685546875
114.677865710466	0.87127685546875
114.687865710441	0.87158203125
114.697865710416	0.87158203125
114.70786571039	0.87127685546875
114.717865710365	0.87158203125
114.72786571034	0.87158203125
114.737865710315	0.87158203125
114.747865710289	0.87158203125
114.757865710264	0.87158203125
114.767865710239	0.87158203125
114.777865710214	0.87158203125
114.787865710188	0.87158203125
114.797865710163	0.87158203125
114.807865710138	0.87158203125
114.817865710113	0.87158203125
114.827865710088	0.87158203125
114.837865710062	0.87158203125
114.847865710037	0.87158203125
114.857865710012	0.87158203125
114.867865709987	0.87158203125
114.877865709961	0.87158203125
114.887865709936	0.87158203125
114.897865709911	0.87158203125
114.907865709886	0.87158203125
114.91786570986	0.87158203125
114.927865709835	0.87158203125
114.93786570981	0.87158203125
114.947865709785	0.87158203125
114.957865709759	0.87158203125
114.967865709734	0.87158203125
114.977865709709	0.87158203125
114.987865709684	0.87158203125
114.997865709658	0.87158203125
115.007865709633	0.87158203125
115.017865709608	0.87158203125
115.027865709583	0.87158203125
115.037865709557	0.87158203125
115.047865709532	0.87158203125
115.057865709507	0.87158203125
115.067865709482	0.87158203125
115.077865709456	0.87158203125
115.087865709431	0.87158203125
115.097865709406	0.87158203125
115.107865709381	0.87158203125
115.117865709355	0.87158203125
115.12786570933	0.87158203125
115.137865709305	0.87158203125
115.14786570928	0.87158203125
115.157865709254	0.87158203125
115.167865709229	0.87158203125
115.177865709204	0.87158203125
115.187865709179	0.87158203125
115.197865709153	0.87158203125
115.207865709128	0.87158203125
115.217865709103	0.87158203125
115.227865709078	0.87158203125
115.237865709052	0.87158203125
115.247865709027	0.87158203125
115.257865709002	0.87158203125
115.267865708977	0.87158203125
115.277865708951	0.87188720703125
115.287865708926	0.87158203125
115.297865708901	0.87158203125
115.307865708876	0.87158203125
115.31786570885	0.87188720703125
115.327865708825	0.87158203125
115.3378657088	0.87188720703125
115.347865708775	0.87188720703125
115.357865708749	0.87188720703125
115.367865708724	0.87188720703125
115.377865708699	0.87188720703125
115.387865708674	0.87188720703125
115.397865708648	0.87188720703125
115.407865708623	0.87188720703125
115.417865708598	0.87188720703125
115.427865708573	0.87188720703125
115.437865708547	0.87188720703125
115.447865708522	0.87188720703125
115.457865708497	0.87188720703125
115.467865708472	0.87188720703125
115.477865708446	0.87188720703125
115.487865708421	0.87188720703125
115.497865708396	0.87188720703125
115.507865708371	0.87188720703125
115.517865708345	0.87188720703125
115.52786570832	0.87188720703125
115.537865708295	0.87188720703125
115.54786570827	0.87188720703125
115.557865708244	0.87188720703125
115.567865708219	0.87188720703125
115.577865708194	0.87188720703125
115.587865708169	0.87188720703125
115.597865708143	0.87188720703125
115.607865708118	0.87188720703125
115.617865708093	0.87188720703125
115.627865708068	0.87188720703125
115.637865708042	0.87188720703125
115.647865708017	0.87188720703125
115.657865707992	0.87188720703125
115.667865707967	0.87188720703125
115.677865707941	0.87188720703125
115.687865707916	0.87188720703125
115.697865707891	0.87188720703125
115.707865707866	0.87188720703125
115.71786570784	0.87188720703125
115.727865707815	0.87188720703125
115.73786570779	0.87188720703125
115.747865707765	0.87188720703125
115.757865707739	0.87188720703125
115.767865707714	0.87188720703125
115.777865707689	0.87188720703125
115.787865707664	0.87188720703125
115.797865707638	0.87188720703125
115.807865707613	0.87188720703125
115.817865707588	0.87188720703125
115.827865707563	0.87188720703125
115.837865707538	0.87188720703125
115.847865707512	0.87188720703125
115.857865707487	0.87188720703125
115.867865707462	0.87188720703125
115.877865707437	0.87188720703125
115.887865707411	0.87188720703125
115.897865707386	0.87188720703125
115.907865707361	0.87188720703125
115.917865707336	0.87188720703125
115.92786570731	0.87188720703125
115.937865707285	0.8721923828125
115.94786570726	0.87188720703125
115.957865707235	0.87188720703125
115.967865707209	0.8721923828125
115.977865707184	0.8721923828125
115.987865707159	0.8721923828125
115.997865707134	0.8721923828125
116.007865707108	0.8721923828125
116.017865707083	0.8721923828125
116.027865707058	0.8721923828125
116.037865707033	0.8721923828125
116.047865707007	0.8721923828125
116.057865706982	0.8721923828125
116.067865706957	0.8721923828125
116.077865706932	0.8721923828125
116.087865706906	0.8721923828125
116.097865706881	0.8721923828125
116.107865706856	0.8721923828125
116.117865706831	0.8721923828125
116.127865706805	0.8721923828125
116.13786570678	0.8721923828125
116.147865706755	0.8721923828125
116.15786570673	0.8721923828125
116.167865706704	0.8721923828125
116.177865706679	0.8721923828125
116.187865706654	0.8721923828125
116.197865706629	0.8721923828125
116.207865706603	0.8721923828125
116.217865706578	0.8721923828125
116.227865706553	0.8721923828125
116.237865706528	0.8721923828125
116.247865706502	0.8721923828125
116.257865706477	0.8721923828125
116.267865706452	0.8721923828125
116.277865706427	0.8721923828125
116.287865706401	0.8721923828125
116.297865706376	0.8721923828125
116.307865706351	0.8721923828125
116.317865706326	0.8721923828125
116.3278657063	0.8721923828125
116.337865706275	0.8721923828125
116.34786570625	0.8721923828125
116.357865706225	0.8721923828125
116.367865706199	0.8721923828125
116.377865706174	0.8721923828125
116.387865706149	0.8721923828125
116.397865706124	0.8721923828125
116.407865706098	0.8721923828125
116.417865706073	0.8721923828125
116.427865706048	0.87249755859375
116.437865706023	0.8721923828125
116.447865705997	0.87249755859375
116.457865705972	0.87249755859375
116.467865705947	0.87249755859375
116.477865705922	0.87249755859375
116.487865705896	0.87249755859375
116.497865705871	0.87249755859375
116.507865705846	0.87249755859375
116.517865705821	0.87249755859375
116.527865705795	0.87249755859375
116.53786570577	0.87249755859375
116.547865705745	0.87249755859375
116.55786570572	0.87249755859375
116.567865705694	0.87249755859375
116.577865705669	0.87249755859375
116.587865705644	0.87249755859375
116.597865705619	0.87249755859375
116.607865705593	0.87249755859375
116.617865705568	0.87249755859375
116.627865705543	0.87249755859375
116.637865705518	0.87249755859375
116.647865705492	0.87249755859375
116.657865705467	0.87249755859375
116.667865705442	0.87249755859375
116.677865705417	0.87249755859375
116.687865705391	0.87249755859375
116.697865705366	0.87249755859375
116.707865705341	0.87249755859375
116.717865705316	0.87249755859375
116.72786570529	0.87249755859375
116.737865705265	0.87249755859375
116.74786570524	0.87249755859375
116.757865705215	0.87249755859375
116.767865705189	0.87249755859375
116.777865705164	0.87249755859375
116.787865705139	0.87249755859375
116.797865705114	0.87249755859375
116.807865705088	0.87249755859375
116.817865705063	0.87249755859375
116.827865705038	0.87249755859375
116.837865705013	0.87249755859375
116.847865704987	0.87249755859375
116.857865704962	0.87249755859375
116.867865704937	0.87249755859375
116.877865704912	0.87249755859375
116.887865704887	0.87249755859375
116.897865704861	0.87249755859375
116.907865704836	0.87249755859375
116.917865704811	0.872802734375
116.927865704786	0.872802734375
116.93786570476	0.87249755859375
116.947865704735	0.87249755859375
116.95786570471	0.872802734375
116.967865704685	0.872802734375
116.977865704659	0.872802734375
116.987865704634	0.872802734375
116.997865704609	0.872802734375
117.007865704584	0.872802734375
117.017865704558	0.872802734375
117.027865704533	0.872802734375
117.037865704508	0.872802734375
117.047865704483	0.872802734375
117.057865704457	0.872802734375
117.067865704432	0.872802734375
117.077865704407	0.872802734375
117.087865704382	0.872802734375
117.097865704356	0.872802734375
117.107865704331	0.872802734375
117.117865704306	0.872802734375
117.127865704281	0.872802734375
117.137865704255	0.872802734375
117.14786570423	0.872802734375
117.157865704205	0.872802734375
117.16786570418	0.872802734375
117.177865704154	0.872802734375
117.187865704129	0.872802734375
117.197865704104	0.872802734375
117.207865704079	0.872802734375
117.217865704053	0.872802734375
117.227865704028	0.872802734375
117.237865704003	0.872802734375
117.247865703978	0.872802734375
117.257865703952	0.872802734375
117.267865703927	0.872802734375
117.277865703902	0.872802734375
117.287865703877	0.872802734375
117.297865703851	0.872802734375
117.307865703826	0.872802734375
117.317865703801	0.872802734375
117.327865703776	0.872802734375
