Time (s)	WE(1).Potential (V)
128.204949676314	0.87921142578125
128.214949676288	0.87921142578125
128.224949676263	0.87921142578125
128.234949676238	0.87921142578125
128.244949676213	0.87921142578125
128.254949676187	0.87921142578125
128.264949676162	0.87921142578125
128.274949676137	0.87921142578125
128.284949676112	0.87921142578125
128.294949676086	0.87921142578125
128.304949676061	0.87921142578125
128.314949676036	0.87921142578125
128.324949676011	0.87921142578125
128.334949675985	0.87921142578125
128.34494967596	0.87921142578125
128.354949675935	0.87921142578125
128.36494967591	0.87921142578125
128.374949675884	0.87921142578125
128.384949675859	0.87921142578125
128.394949675834	0.87921142578125
128.404949675809	0.87921142578125
128.414949675783	0.87921142578125
128.424949675758	0.87921142578125
128.434949675733	0.87921142578125
128.444949675708	0.87921142578125
128.454949675682	0.87921142578125
128.464949675657	0.87921142578125
128.474949675632	0.87921142578125
128.484949675607	0.87921142578125
128.494949675581	0.87921142578125
128.504949675556	0.87921142578125
128.514949675531	0.87921142578125
128.524949675506	0.87921142578125
128.53494967548	0.87921142578125
128.544949675455	0.87921142578125
128.55494967543	0.87921142578125
128.564949675405	0.87921142578125
128.574949675379	0.87921142578125
128.584949675354	0.87921142578125
128.594949675329	0.87921142578125
128.604949675304	0.8795166015625
128.614949675278	0.8795166015625
128.624949675253	0.8795166015625
128.634949675228	0.87921142578125
128.644949675203	0.8795166015625
128.654949675177	0.8795166015625
128.664949675152	0.8795166015625
128.674949675127	0.8795166015625
128.684949675102	0.8795166015625
128.694949675076	0.8795166015625
128.704949675051	0.8795166015625
128.714949675026	0.8795166015625
128.724949675001	0.8795166015625
128.734949674975	0.8795166015625
128.74494967495	0.8795166015625
128.754949674925	0.8795166015625
128.7649496749	0.8795166015625
128.774949674875	0.8795166015625
128.784949674849	0.8795166015625
128.794949674824	0.8795166015625
128.804949674799	0.8795166015625
128.814949674774	0.8795166015625
128.824949674748	0.8795166015625
128.834949674723	0.8795166015625
128.844949674698	0.8795166015625
128.854949674673	0.8795166015625
128.864949674647	0.8795166015625
128.874949674622	0.8795166015625
128.884949674597	0.8795166015625
128.894949674572	0.8795166015625
128.904949674546	0.8795166015625
128.914949674521	0.8795166015625
128.924949674496	0.8795166015625
128.934949674471	0.8795166015625
128.944949674445	0.8795166015625
128.95494967442	0.8795166015625
128.964949674395	0.8795166015625
128.97494967437	0.8795166015625
128.984949674344	0.8795166015625
128.994949674319	0.8795166015625
129.004949674294	0.8795166015625
129.014949674269	0.8795166015625
129.024949674243	0.8795166015625
129.034949674218	0.8795166015625
129.044949674193	0.8795166015625
129.054949674168	0.8795166015625
129.064949674142	0.8795166015625
129.074949674117	0.87982177734375
129.084949674092	0.87982177734375
129.094949674067	0.87982177734375
129.104949674041	0.87982177734375
129.114949674016	0.87982177734375
129.124949673991	0.87982177734375
129.134949673966	0.87982177734375
129.14494967394	0.87982177734375
129.154949673915	0.87982177734375
129.16494967389	0.87982177734375
129.174949673865	0.87982177734375
129.184949673839	0.87982177734375
129.194949673814	0.87982177734375
129.204949673789	0.87982177734375
129.214949673764	0.87982177734375
129.224949673738	0.87982177734375
129.234949673713	0.87982177734375
129.244949673688	0.87982177734375
129.254949673663	0.87982177734375
129.264949673637	0.87982177734375
129.274949673612	0.87982177734375
129.284949673587	0.87982177734375
129.294949673562	0.87982177734375
129.304949673536	0.87982177734375
129.314949673511	0.87982177734375
129.324949673486	0.87982177734375
129.334949673461	0.87982177734375
129.344949673435	0.87982177734375
129.35494967341	0.87982177734375
129.364949673385	0.87982177734375
129.37494967336	0.87982177734375
129.384949673334	0.87982177734375
129.394949673309	0.87982177734375
129.404949673284	0.87982177734375
129.414949673259	0.87982177734375
129.424949673233	0.87982177734375
129.434949673208	0.87982177734375
129.444949673183	0.87982177734375
129.454949673158	0.87982177734375
129.464949673132	0.87982177734375
129.474949673107	0.87982177734375
129.484949673082	0.87982177734375
129.494949673057	0.87982177734375
129.504949673031	0.87982177734375
129.514949673006	0.87982177734375
129.524949672981	0.87982177734375
129.534949672956	0.87982177734375
129.54494967293	0.87982177734375
129.554949672905	0.87982177734375
129.56494967288	0.87982177734375
129.574949672855	0.880126953125
129.584949672829	0.87982177734375
129.594949672804	0.87982177734375
129.604949672779	0.880126953125
129.614949672754	0.880126953125
129.624949672728	0.880126953125
129.634949672703	0.880126953125
129.644949672678	0.880126953125
129.654949672653	0.880126953125
129.664949672627	0.880126953125
129.674949672602	0.880126953125
129.684949672577	0.880126953125
129.694949672552	0.880126953125
129.704949672526	0.880126953125
129.714949672501	0.880126953125
129.724949672476	0.880126953125
129.734949672451	0.880126953125
129.744949672425	0.880126953125
129.7549496724	0.880126953125
129.764949672375	0.880126953125
129.77494967235	0.880126953125
129.784949672325	0.880126953125
129.794949672299	0.880126953125
129.804949672274	0.880126953125
129.814949672249	0.880126953125
129.824949672224	0.880126953125
129.834949672198	0.880126953125
129.844949672173	0.880126953125
129.854949672148	0.880126953125
129.864949672123	0.880126953125
129.874949672097	0.880126953125
129.884949672072	0.880126953125
129.894949672047	0.880126953125
129.904949672022	0.880126953125
129.914949671996	0.880126953125
129.924949671971	0.880126953125
129.934949671946	0.880126953125
129.944949671921	0.880126953125
129.954949671895	0.880126953125
129.96494967187	0.880126953125
129.974949671845	0.880126953125
129.98494967182	0.880126953125
129.994949671794	0.88043212890625
130.004949671769	0.880126953125
130.014949671744	0.88043212890625
130.024949671719	0.88043212890625
130.034949671693	0.88043212890625
130.044949671668	0.88043212890625
130.054949671643	0.88043212890625
130.064949671618	0.88043212890625
130.074949671592	0.88043212890625
130.084949671567	0.88043212890625
130.094949671542	0.88043212890625
130.104949671517	0.88043212890625
130.114949671491	0.88043212890625
130.124949671466	0.88043212890625
130.134949671441	0.88043212890625
130.144949671416	0.88043212890625
130.15494967139	0.88043212890625
130.164949671365	0.88043212890625
130.17494967134	0.88043212890625
130.184949671315	0.88043212890625
130.194949671289	0.88043212890625
130.204949671264	0.88043212890625
130.214949671239	0.88043212890625
130.224949671214	0.88043212890625
130.234949671188	0.88043212890625
130.244949671163	0.88043212890625
130.254949671138	0.88043212890625
130.264949671113	0.88043212890625
130.274949671087	0.88043212890625
130.284949671062	0.88043212890625
130.294949671037	0.88043212890625
130.304949671012	0.88043212890625
130.314949670986	0.88043212890625
130.324949670961	0.88043212890625
130.334949670936	0.88043212890625
130.344949670911	0.88043212890625
130.354949670885	0.88043212890625
130.36494967086	0.88043212890625
130.374949670835	0.88043212890625
130.38494967081	0.88043212890625
130.394949670784	0.88043212890625
130.404949670759	0.88043212890625
130.414949670734	0.88043212890625
130.424949670709	0.88043212890625
130.434949670683	0.88043212890625
130.444949670658	0.88043212890625
130.454949670633	0.88043212890625
130.464949670608	0.88043212890625
130.474949670582	0.88043212890625
130.484949670557	0.88043212890625
130.494949670532	0.88043212890625
130.504949670507	0.8807373046875
130.514949670481	0.88043212890625
130.524949670456	0.88043212890625
130.534949670431	0.88043212890625
130.544949670406	0.8807373046875
130.55494967038	0.88043212890625
130.564949670355	0.8807373046875
130.57494967033	0.8807373046875
130.584949670305	0.8807373046875
130.594949670279	0.8807373046875
130.604949670254	0.8807373046875
130.614949670229	0.8807373046875
130.624949670204	0.8807373046875
130.634949670178	0.8807373046875
130.644949670153	0.8807373046875
130.654949670128	0.8807373046875
130.664949670103	0.8807373046875
130.674949670077	0.8807373046875
130.684949670052	0.8807373046875
130.694949670027	0.8807373046875
130.704949670002	0.8807373046875
130.714949669976	0.8807373046875
130.724949669951	0.8807373046875
130.734949669926	0.8807373046875
130.744949669901	0.8807373046875
130.754949669875	0.8807373046875
130.76494966985	0.8807373046875
130.774949669825	0.8807373046875
130.7849496698	0.8807373046875
130.794949669774	0.8807373046875
130.804949669749	0.8807373046875
130.814949669724	0.8807373046875
130.824949669699	0.8807373046875
130.834949669674	0.8807373046875
130.844949669648	0.8807373046875
130.854949669623	0.8807373046875
130.864949669598	0.8807373046875
130.874949669573	0.8807373046875
130.884949669547	0.8807373046875
130.894949669522	0.8807373046875
130.904949669497	0.8807373046875
130.914949669472	0.8807373046875
130.924949669446	0.8807373046875
130.934949669421	0.8807373046875
130.944949669396	0.8807373046875
130.954949669371	0.8807373046875
130.964949669345	0.8807373046875
130.97494966932	0.8807373046875
130.984949669295	0.8807373046875
130.99494966927	0.8807373046875
131.004949669244	0.8807373046875
131.014949669219	0.8807373046875
131.024949669194	0.8807373046875
131.034949669169	0.8807373046875
131.044949669143	0.8807373046875
131.054949669118	0.8807373046875
131.064949669093	0.88104248046875
131.074949669068	0.88104248046875
131.084949669042	0.88104248046875
131.094949669017	0.88104248046875
131.104949668992	0.88104248046875
131.114949668967	0.88104248046875
131.124949668941	0.88104248046875
131.134949668916	0.88104248046875
131.144949668891	0.88104248046875
131.154949668866	0.88104248046875
131.16494966884	0.88104248046875
131.174949668815	0.88104248046875
131.18494966879	0.88104248046875
131.194949668765	0.88104248046875
131.204949668739	0.88104248046875
131.214949668714	0.88104248046875
131.224949668689	0.88104248046875
131.234949668664	0.88104248046875
131.244949668638	0.88104248046875
131.254949668613	0.88104248046875
131.264949668588	0.88104248046875
131.274949668563	0.88104248046875
131.284949668537	0.88104248046875
131.294949668512	0.88104248046875
131.304949668487	0.88104248046875
131.314949668462	0.88104248046875
131.324949668436	0.88104248046875
131.334949668411	0.88104248046875
131.344949668386	0.88104248046875
131.354949668361	0.88104248046875
131.364949668335	0.88104248046875
131.37494966831	0.88104248046875
131.384949668285	0.88104248046875
131.39494966826	0.88104248046875
131.404949668234	0.88104248046875
131.414949668209	0.88104248046875
131.424949668184	0.88104248046875
131.434949668159	0.88104248046875
131.444949668133	0.88104248046875
131.454949668108	0.88104248046875
131.464949668083	0.88104248046875
131.474949668058	0.88104248046875
131.484949668032	0.88104248046875
131.494949668007	0.88104248046875
131.504949667982	0.88104248046875
131.514949667957	0.88104248046875
131.524949667931	0.88104248046875
131.534949667906	0.88104248046875
131.544949667881	0.88104248046875
131.554949667856	0.88104248046875
131.56494966783	0.88104248046875
131.574949667805	0.88104248046875
131.58494966778	0.88104248046875
131.594949667755	0.88104248046875
131.604949667729	0.88104248046875
131.614949667704	0.88104248046875
131.624949667679	0.88134765625
131.634949667654	0.88134765625
131.644949667628	0.88134765625
131.654949667603	0.88134765625
131.664949667578	0.88134765625
131.674949667553	0.88134765625
131.684949667527	0.88134765625
131.694949667502	0.88134765625
131.704949667477	0.88134765625
131.714949667452	0.88134765625
131.724949667426	0.88134765625
131.734949667401	0.88134765625
131.744949667376	0.88134765625
131.754949667351	0.88134765625
131.764949667325	0.88134765625
131.7749496673	0.88134765625
131.784949667275	0.88134765625
131.79494966725	0.88134765625
131.804949667224	0.88134765625
131.814949667199	0.88134765625
131.824949667174	0.88134765625
131.834949667149	0.88134765625
131.844949667124	0.88134765625
131.854949667098	0.88134765625
131.864949667073	0.88134765625
131.874949667048	0.88134765625
131.884949667023	0.88134765625
131.894949666997	0.88134765625
131.904949666972	0.88134765625
131.914949666947	0.88134765625
131.924949666922	0.88134765625
131.934949666896	0.88134765625
131.944949666871	0.88134765625
131.954949666846	0.88134765625
131.964949666821	0.88134765625
131.974949666795	0.88134765625
131.98494966677	0.88134765625
131.994949666745	0.88134765625
132.00494966672	0.88134765625
132.014949666694	0.88134765625
132.024949666669	0.88134765625
132.034949666644	0.88134765625
132.044949666619	0.88134765625
132.054949666593	0.88134765625
132.064949666568	0.88134765625
132.074949666543	0.88134765625
132.084949666518	0.88134765625
132.094949666492	0.88134765625
132.104949666467	0.88134765625
132.114949666442	0.88134765625
132.124949666417	0.88165283203125
132.134949666391	0.88134765625
132.144949666366	0.88134765625
132.154949666341	0.88134765625
132.164949666316	0.88165283203125
132.17494966629	0.88165283203125
132.184949666265	0.88165283203125
132.19494966624	0.88165283203125
132.204949666215	0.88165283203125
132.214949666189	0.88165283203125
132.224949666164	0.88165283203125
132.234949666139	0.88165283203125
132.244949666114	0.88165283203125
132.254949666088	0.88165283203125
132.264949666063	0.88165283203125
132.274949666038	0.88165283203125
132.284949666013	0.88165283203125
132.294949665987	0.88165283203125
132.304949665962	0.88165283203125
132.314949665937	0.88165283203125
132.324949665912	0.88165283203125
132.334949665886	0.88165283203125
132.344949665861	0.88165283203125
132.354949665836	0.88165283203125
132.364949665811	0.88165283203125
132.374949665785	0.88165283203125
132.38494966576	0.88165283203125
132.394949665735	0.88165283203125
132.40494966571	0.88165283203125
132.414949665684	0.88165283203125
132.424949665659	0.88165283203125
132.434949665634	0.88165283203125
132.444949665609	0.88165283203125
132.454949665583	0.88165283203125
132.464949665558	0.88165283203125
132.474949665533	0.88165283203125
132.484949665508	0.88165283203125
132.494949665482	0.88165283203125
132.504949665457	0.88165283203125
132.514949665432	0.88165283203125
132.524949665407	0.88165283203125
132.534949665381	0.88165283203125
132.544949665356	0.88165283203125
132.554949665331	0.88165283203125
132.564949665306	0.88165283203125
132.57494966528	0.88165283203125
132.584949665255	0.88165283203125
132.59494966523	0.88165283203125
132.604949665205	0.88165283203125
132.614949665179	0.88165283203125
132.624949665154	0.88165283203125
132.634949665129	0.8819580078125
132.644949665104	0.88165283203125
132.654949665078	0.8819580078125
132.664949665053	0.88165283203125
132.674949665028	0.88165283203125
132.684949665003	0.88165283203125
132.694949664977	0.8819580078125
132.704949664952	0.8819580078125
132.714949664927	0.8819580078125
132.724949664902	0.8819580078125
132.734949664876	0.8819580078125
132.744949664851	0.8819580078125
132.754949664826	0.8819580078125
132.764949664801	0.8819580078125
132.774949664775	0.8819580078125
132.78494966475	0.8819580078125
132.794949664725	0.8819580078125
132.8049496647	0.8819580078125
132.814949664674	0.8819580078125
132.824949664649	0.8819580078125
132.834949664624	0.8819580078125
132.844949664599	0.8819580078125
132.854949664573	0.8819580078125
132.864949664548	0.8819580078125
132.874949664523	0.8819580078125
132.884949664498	0.8819580078125
132.894949664473	0.8819580078125
132.904949664447	0.8819580078125
132.914949664422	0.8819580078125
132.924949664397	0.8819580078125
132.934949664372	0.8819580078125
132.944949664346	0.8819580078125
132.954949664321	0.8819580078125
132.964949664296	0.8819580078125
132.974949664271	0.8819580078125
132.984949664245	0.8819580078125
132.99494966422	0.8819580078125
133.004949664195	0.8819580078125
133.01494966417	0.8819580078125
133.024949664144	0.8819580078125
133.034949664119	0.8819580078125
133.044949664094	0.8819580078125
133.054949664069	0.8819580078125
133.064949664043	0.8819580078125
133.074949664018	0.8819580078125
133.084949663993	0.8819580078125
133.094949663968	0.8819580078125
133.104949663942	0.8819580078125
133.114949663917	0.8819580078125
133.124949663892	0.8819580078125
133.134949663867	0.88226318359375
133.144949663841	0.8819580078125
133.154949663816	0.8819580078125
133.164949663791	0.8819580078125
133.174949663766	0.8819580078125
133.18494966374	0.8819580078125
133.194949663715	0.88226318359375
