Time (s)	WE(1).Potential (V)
1.08788199725336	0.13934326171875
1.09788199722811	0.140838623046875
1.10788199720287	0.14202880859375
1.11788199717762	0.14312744140625
1.12788199715237	0.14410400390625
1.13788199712712	0.14501953125
1.14788199710188	0.1458740234375
1.15788199707663	0.146697998046875
1.16788199705138	0.147491455078125
1.17788199702613	0.148223876953125
1.18788199700089	0.14892578125
1.19788199697564	0.149627685546875
1.20788199695039	0.15032958984375
1.21788199692514	0.1510009765625
1.2278819968999	0.151641845703125
1.23788199687465	0.15228271484375
1.2478819968494	0.15289306640625
1.25788199682415	0.15350341796875
1.26788199679891	0.15411376953125
1.27788199677366	0.154693603515625
1.28788199674841	0.1552734375
1.29788199672316	0.15582275390625
1.30788199669792	0.1563720703125
1.31788199667267	0.15692138671875
1.32788199664742	0.157470703125
1.33788199662217	0.15802001953125
1.34788199659693	0.158538818359375
1.35788199657168	0.159088134765625
1.36788199654643	0.15960693359375
1.37788199652118	0.160125732421875
1.38788199649593	0.16064453125
1.39788199647069	0.161163330078125
1.40788199644544	0.161651611328125
1.41788199642019	0.162139892578125
1.42788199639494	0.16265869140625
1.4378819963697	0.16314697265625
1.44788199634445	0.16363525390625
1.4578819963192	0.16412353515625
1.46788199629395	0.164581298828125
1.47788199626871	0.165069580078125
1.48788199624346	0.165557861328125
1.49788199621821	0.166015625
1.50788199619296	0.166473388671875
1.51788199616772	0.16693115234375
1.52788199614247	0.16741943359375
1.53788199611722	0.167877197265625
1.54788199609197	0.1683349609375
1.55788199606673	0.168792724609375
1.56788199604148	0.16925048828125
1.57788199601623	0.169677734375
1.58788199599098	0.17010498046875
1.59788199596574	0.170562744140625
1.60788199594049	0.1710205078125
1.61788199591524	0.17144775390625
1.62788199588999	0.171844482421875
1.63788199586475	0.172271728515625
1.6478819958395	0.172698974609375
1.65788199581425	0.173126220703125
1.667881995789	0.17352294921875
1.67788199576376	0.1739501953125
1.68788199573851	0.17437744140625
1.69788199571326	0.1748046875
1.70788199568801	0.175201416015625
1.71788199566276	0.175628662109375
1.72788199563752	0.176025390625
1.73788199561227	0.17645263671875
1.74788199558702	0.176849365234375
1.75788199556177	0.17724609375
1.76788199553653	0.177642822265625
1.77788199551128	0.178070068359375
1.78788199548603	0.178466796875
1.79788199546078	0.178863525390625
1.80788199543554	0.17926025390625
1.81788199541029	0.1796875
1.82788199538504	0.1800537109375
1.83788199535979	0.180450439453125
1.84788199533455	0.180877685546875
1.8578819953093	0.1812744140625
1.86788199528405	0.181671142578125
1.8778819952588	0.18206787109375
1.88788199523356	0.182464599609375
1.89788199520831	0.182861328125
1.90788199518306	0.183258056640625
1.91788199515781	0.18365478515625
1.92788199513257	0.184051513671875
1.93788199510732	0.1844482421875
1.94788199508207	0.184844970703125
1.95788199505682	0.18524169921875
1.96788199503158	0.18560791015625
1.97788199500633	0.186004638671875
1.98788199498108	0.1864013671875
1.99788199495583	0.186798095703125
2.00788199493059	0.187164306640625
2.01788199490534	0.18756103515625
2.02788199488009	0.18792724609375
2.03788199485484	0.188323974609375
2.04788199482959	0.188690185546875
2.05788199480435	0.1890869140625
2.0678819947791	0.189453125
2.07788199475385	0.189849853515625
2.0878819947286	0.190216064453125
2.09788199470336	0.19061279296875
2.10788199467811	0.191009521484375
2.11788199465286	0.191375732421875
2.12788199462761	0.191741943359375
2.13788199460237	0.192138671875
2.14788199457712	0.1925048828125
2.15788199455187	0.192901611328125
2.16788199452662	0.193267822265625
2.17788199450138	0.19366455078125
2.18788199447613	0.19403076171875
2.19788199445088	0.19439697265625
2.20788199442563	0.194793701171875
2.21788199440039	0.195159912109375
2.22788199437514	0.195526123046875
2.23788199434989	0.195892333984375
2.24788199432464	0.196258544921875
2.2578819942994	0.1966552734375
2.26788199427415	0.197021484375
2.2778819942489	0.1973876953125
2.28788199422365	0.19775390625
2.29788199419841	0.1981201171875
2.30788199417316	0.198486328125
2.31788199414791	0.1988525390625
2.32788199412266	0.199249267578125
2.33788199409742	0.199615478515625
2.34788199407217	0.199981689453125
2.35788199404692	0.200347900390625
2.36788199402167	0.200714111328125
2.37788199399643	0.201080322265625
2.38788199397118	0.201446533203125
2.39788199394593	0.201812744140625
2.40788199392068	0.202178955078125
2.41788199389543	0.202545166015625
2.42788199387019	0.202911376953125
2.43788199384494	0.2032470703125
2.44788199381969	0.20361328125
2.45788199379444	0.2039794921875
2.4678819937692	0.204345703125
2.47788199374395	0.2047119140625
2.4878819937187	0.205078125
2.49788199369345	0.2054443359375
2.50788199366821	0.205810546875
2.51788199364296	0.2061767578125
2.52788199361771	0.206512451171875
2.53788199359246	0.206878662109375
2.54788199356722	0.207244873046875
2.55788199354197	0.207611083984375
2.56788199351672	0.207977294921875
2.57788199349147	0.208343505859375
2.58788199346623	0.208709716796875
2.59788199344098	0.20904541015625
2.60788199341573	0.20941162109375
2.61788199339048	0.20977783203125
2.62788199336524	0.21014404296875
2.63788199333999	0.21051025390625
2.64788199331474	0.210845947265625
2.65788199328949	0.211212158203125
2.66788199326425	0.211578369140625
2.677881993239	0.2119140625
2.68788199321375	0.2122802734375
2.6978819931885	0.212646484375
2.70788199316326	0.2130126953125
2.71788199313801	0.213348388671875
2.72788199311276	0.213714599609375
2.73788199308751	0.214080810546875
2.74788199306226	0.21441650390625
2.75788199303702	0.21478271484375
2.76788199301177	0.21514892578125
2.77788199298652	0.21551513671875
2.78788199296127	0.215850830078125
2.79788199293603	0.216217041015625
2.80788199291078	0.216583251953125
2.81788199288553	0.2169189453125
2.82788199286028	0.21728515625
2.83788199283504	0.2176513671875
2.84788199280979	0.217987060546875
2.85788199278454	0.218353271484375
2.86788199275929	0.21868896484375
2.87788199273405	0.219024658203125
2.8878819927088	0.219390869140625
2.89788199268355	0.2197265625
2.9078819926583	0.2200927734375
2.91788199263306	0.220458984375
2.92788199260781	0.220794677734375
2.93788199258256	0.221160888671875
2.94788199255731	0.22149658203125
2.95788199253207	0.22186279296875
2.96788199250682	0.22222900390625
2.97788199248157	0.222564697265625
2.98788199245632	0.222930908203125
2.99788199243108	0.2232666015625
3.00788199240583	0.2236328125
3.01788199238058	0.2239990234375
3.02788199235533	0.224334716796875
3.03788199233009	0.224700927734375
3.04788199230484	0.22503662109375
3.05788199227959	0.22540283203125
3.06788199225434	0.225738525390625
3.07788199222909	0.226104736328125
3.08788199220385	0.2264404296875
3.0978819921786	0.226776123046875
3.10788199215335	0.227142333984375
3.1178819921281	0.22747802734375
3.12788199210286	0.22784423828125
3.13788199207761	0.228179931640625
3.14788199205236	0.228546142578125
3.15788199202711	0.2288818359375
3.16788199200187	0.229248046875
3.17788199197662	0.229583740234375
3.18788199195137	0.229949951171875
3.19788199192612	0.23028564453125
3.20788199190088	0.23065185546875
3.21788199187563	0.230987548828125
3.22788199185038	0.2313232421875
3.23788199182513	0.231689453125
3.24788199179989	0.2320556640625
3.25788199177464	0.232391357421875
3.26788199174939	0.23272705078125
3.27788199172414	0.23309326171875
3.2878819916989	0.233428955078125
3.29788199167365	0.233795166015625
3.3078819916484	0.234130859375
3.31788199162315	0.234466552734375
3.32788199159791	0.23480224609375
3.33788199157266	0.235137939453125
3.34788199154741	0.2354736328125
3.35788199152216	0.23583984375
3.36788199149692	0.236175537109375
3.37788199147167	0.236541748046875
3.38788199144642	0.23687744140625
3.39788199142117	0.237213134765625
3.40788199139593	0.237579345703125
3.41788199137068	0.2379150390625
3.42788199134543	0.238250732421875
3.43788199132018	0.238616943359375
3.44788199129493	0.23895263671875
3.45788199126969	0.23931884765625
3.46788199124444	0.239654541015625
3.47788199121919	0.239990234375
3.48788199119394	0.2403564453125
3.4978819911687	0.240692138671875
3.50788199114345	0.241058349609375
3.5178819911182	0.24139404296875
3.52788199109295	0.241729736328125
3.53788199106771	0.242095947265625
3.54788199104246	0.242431640625
3.55788199101721	0.242767333984375
3.56788199099196	0.24310302734375
3.57788199096672	0.24346923828125
3.58788199094147	0.243804931640625
3.59788199091622	0.244140625
3.60788199089097	0.2445068359375
3.61788199086573	0.244842529296875
3.62788199084048	0.24517822265625
3.63788199081523	0.245513916015625
3.64788199078998	0.245880126953125
3.65788199076474	0.2462158203125
3.66788199073949	0.24658203125
3.67788199071424	0.246917724609375
3.68788199068899	0.24725341796875
3.69788199066375	0.24761962890625
3.7078819906385	0.247955322265625
3.71788199061325	0.248291015625
3.727881990588	0.248626708984375
3.73788199056276	0.248992919921875
3.74788199053751	0.24932861328125
3.75788199051226	0.249664306640625
3.76788199048701	0.25
3.77788199046176	0.250335693359375
3.78788199043652	0.25067138671875
3.79788199041127	0.251007080078125
3.80788199038602	0.251373291015625
3.81788199036077	0.251708984375
3.82788199033553	0.252044677734375
3.83788199031028	0.25238037109375
3.84788199028503	0.252716064453125
3.85788199025978	0.253082275390625
3.86788199023454	0.25341796875
3.87788199020929	0.253753662109375
3.88788199018404	0.254119873046875
3.89788199015879	0.25445556640625
3.90788199013355	0.254791259765625
3.9178819901083	0.255157470703125
3.92788199008305	0.2554931640625
3.9378819900578	0.255828857421875
3.94788199003256	0.25616455078125
3.95788199000731	0.256500244140625
3.96788198998206	0.256866455078125
3.97788198995681	0.2572021484375
3.98788198993157	0.257537841796875
3.99788198990632	0.25787353515625
4.00788198988107	0.258209228515625
4.01788198985582	0.258544921875
4.02788198983058	0.2589111328125
4.03788198980533	0.259246826171875
4.04788198978008	0.25958251953125
4.05788198975483	0.259918212890625
4.06788198972959	0.260284423828125
4.07788198970434	0.2606201171875
4.08788198967909	0.260955810546875
4.09788198965384	0.26129150390625
4.10788198962859	0.261627197265625
4.11788198960335	0.261993408203125
4.1278819895781	0.2623291015625
4.13788198955285	0.262664794921875
4.1478819895276	0.26300048828125
4.15788198950236	0.263336181640625
4.16788198947711	0.263671875
4.17788198945186	0.264007568359375
4.18788198942661	0.264373779296875
4.19788198940137	0.26470947265625
4.20788198937612	0.265045166015625
4.21788198935087	0.265380859375
4.22788198932562	0.26568603515625
4.23788198930038	0.266021728515625
4.24788198927513	0.266357421875
4.25788198924988	0.266693115234375
4.26788198922463	0.267059326171875
4.27788198919939	0.26739501953125
4.28788198917414	0.267730712890625
4.29788198914889	0.26806640625
4.30788198912364	0.268402099609375
4.3178819890984	0.268768310546875
4.32788198907315	0.26910400390625
4.3378819890479	0.269439697265625
4.34788198902265	0.269775390625
4.35788198899741	0.270111083984375
4.36788198897216	0.27044677734375
4.37788198894691	0.270782470703125
4.38788198892166	0.271148681640625
4.39788198889642	0.271484375
4.40788198887117	0.271820068359375
4.41788198884592	0.27215576171875
4.42788198882067	0.272491455078125
4.43788198879543	0.2728271484375
4.44788198877018	0.273162841796875
4.45788198874493	0.27349853515625
4.46788198871968	0.273834228515625
4.47788198869443	0.274169921875
4.48788198866919	0.274505615234375
4.49788198864394	0.27484130859375
4.50788198861869	0.275177001953125
4.51788198859344	0.275543212890625
4.5278819885682	0.27587890625
4.53788198854295	0.276214599609375
4.5478819885177	0.27655029296875
4.55788198849245	0.276885986328125
4.56788198846721	0.2772216796875
4.57788198844196	0.277557373046875
4.58788198841671	0.27789306640625
4.59788198839146	0.278228759765625
4.60788198836622	0.278594970703125
4.61788198834097	0.278900146484375
4.62788198831572	0.279266357421875
4.63788198829047	0.27960205078125
4.64788198826523	0.279937744140625
4.65788198823998	0.2802734375
4.66788198821473	0.280609130859375
4.67788198818948	0.28094482421875
4.68788198816424	0.281280517578125
4.69788198813899	0.281585693359375
4.70788198811374	0.28192138671875
4.71788198808849	0.282257080078125
4.72788198806325	0.2825927734375
4.737881988038	0.282928466796875
4.74788198801275	0.28326416015625
4.7578819879875	0.28363037109375
4.76788198796226	0.283966064453125
4.77788198793701	0.284271240234375
4.78788198791176	0.28460693359375
4.79788198788651	0.28497314453125
4.80788198786126	0.285308837890625
4.81788198783602	0.28564453125
4.82788198781077	0.285980224609375
4.83788198778552	0.28631591796875
4.84788198776027	0.286651611328125
4.85788198773503	0.2869873046875
4.86788198770978	0.287322998046875
4.87788198768453	0.28765869140625
4.88788198765928	0.287994384765625
4.89788198763404	0.288330078125
4.90788198760879	0.288665771484375
4.91788198758354	0.28900146484375
4.92788198755829	0.289337158203125
4.93788198753305	0.2896728515625
4.9478819875078	0.290008544921875
4.95788198748255	0.29034423828125
4.9678819874573	0.290679931640625
4.97788198743206	0.291015625
4.98788198740681	0.29132080078125
4.99788198738156	0.291656494140625
5.00788198735631	0.292022705078125
5.01788198733107	0.292327880859375
5.02788198730582	0.29266357421875
5.03788198728057	0.292999267578125
5.04788198725532	0.293365478515625
5.05788198723008	0.293670654296875
5.06788198720483	0.29400634765625
5.07788198717958	0.294342041015625
5.08788198715433	0.294677734375
5.09788198712909	0.295013427734375
5.10788198710384	0.29534912109375
5.11788198707859	0.295684814453125
5.12788198705334	0.2960205078125
5.13788198702809	0.296356201171875
5.14788198700285	0.29669189453125
5.1578819869776	0.2969970703125
5.16788198695235	0.297332763671875
5.1778819869271	0.29766845703125
5.18788198690186	0.298004150390625
5.19788198687661	0.298309326171875
5.20788198685136	0.29864501953125
5.21788198682611	0.29901123046875
5.22788198680087	0.29931640625
5.23788198677562	0.299652099609375
5.24788198675037	0.29998779296875
5.25788198672512	0.300323486328125
5.26788198669988	0.3006591796875
5.27788198667463	0.300994873046875
5.28788198664938	0.30133056640625
5.29788198662413	0.301666259765625
5.30788198659889	0.302001953125
5.31788198657364	0.30230712890625
5.32788198654839	0.30267333984375
5.33788198652314	0.302978515625
5.3478819864979	0.303314208984375
5.35788198647265	0.30364990234375
5.3678819864474	0.303985595703125
5.37788198642215	0.3043212890625
5.38788198639691	0.304656982421875
5.39788198637166	0.304962158203125
5.40788198634641	0.3052978515625
5.41788198632116	0.305633544921875
5.42788198629592	0.30596923828125
5.43788198627067	0.306304931640625
5.44788198624542	0.306640625
5.45788198622017	0.306976318359375
5.46788198619493	0.307281494140625
5.47788198616968	0.3076171875
5.48788198614443	0.307952880859375
5.49788198611918	0.30828857421875
5.50788198609393	0.308624267578125
5.51788198606869	0.3089599609375
5.52788198604344	0.309295654296875
5.53788198601819	0.30963134765625
5.54788198599294	0.3099365234375
5.5578819859677	0.310272216796875
5.56788198594245	0.31060791015625
5.5778819859172	0.310943603515625
5.58788198589195	0.311279296875
5.59788198586671	0.31158447265625
5.60788198584146	0.311920166015625
5.61788198581621	0.312255859375
5.62788198579096	0.312591552734375
5.63788198576572	0.312896728515625
5.64788198574047	0.313232421875
5.65788198571522	0.313568115234375
5.66788198568997	0.31390380859375
5.67788198566473	0.314208984375
5.68788198563948	0.314544677734375
5.69788198561423	0.31488037109375
5.70788198558898	0.315216064453125
5.71788198556374	0.315521240234375
5.72788198553849	0.31585693359375
5.73788198551324	0.316192626953125
5.74788198548799	0.3165283203125
5.75788198546275	0.316864013671875
5.7678819854375	0.317169189453125
5.77788198541225	0.3175048828125
5.787881985387	0.317840576171875
5.79788198536176	0.31817626953125
5.80788198533651	0.3184814453125
5.81788198531126	0.318817138671875
5.82788198528601	0.31915283203125
5.83788198526076	0.319488525390625
5.84788198523552	0.319793701171875
5.85788198521027	0.32012939453125
5.86788198518502	0.320465087890625
5.87788198515977	0.32080078125
5.88788198513453	0.32110595703125
5.89788198510928	0.321441650390625
5.90788198508403	0.32177734375
5.91788198505878	0.322113037109375
5.92788198503354	0.322418212890625
5.93788198500829	0.32275390625
5.94788198498304	0.323089599609375
5.95788198495779	0.323394775390625
5.96788198493255	0.32373046875
5.9778819849073	0.324066162109375
5.98788198488205	0.32440185546875
5.9978819848568	0.32470703125
6.00788198483156	0.325042724609375
6.01788198480631	0.32537841796875
6.02788198478106	0.32568359375
6.03788198475581	0.326019287109375
6.04788198473057	0.32635498046875
6.05788198470532	0.32666015625
6.06788198468007	0.326995849609375
6.07788198465482	0.32733154296875
