Time (s)	WE(1).Potential (V)
128.351812675943	0.70068359375
128.361812675918	0.70068359375
128.371812675892	0.70068359375
128.381812675867	0.70068359375
128.391812675842	0.70068359375
128.401812675817	0.70068359375
128.411812675791	0.70068359375
128.421812675766	0.70068359375
128.431812675741	0.70068359375
128.441812675716	0.70068359375
128.45181267569	0.70068359375
128.461812675665	0.70068359375
128.47181267564	0.70068359375
128.481812675615	0.70068359375
128.491812675589	0.70068359375
128.501812675564	0.70068359375
128.511812675539	0.70068359375
128.521812675514	0.70068359375
128.531812675488	0.70068359375
128.541812675463	0.70068359375
128.551812675438	0.70068359375
128.561812675413	0.70068359375
128.571812675387	0.70068359375
128.581812675362	0.70068359375
128.591812675337	0.70068359375
128.601812675312	0.70068359375
128.611812675286	0.70068359375
128.621812675261	0.70068359375
128.631812675236	0.70068359375
128.641812675211	0.70068359375
128.651812675185	0.70068359375
128.66181267516	0.70068359375
128.671812675135	0.70068359375
128.68181267511	0.70068359375
128.691812675084	0.70068359375
128.701812675059	0.70068359375
128.711812675034	0.70068359375
128.721812675009	0.70068359375
128.731812674983	0.70068359375
128.741812674958	0.70068359375
128.751812674933	0.70068359375
128.761812674908	0.70068359375
128.771812674882	0.70068359375
128.781812674857	0.70068359375
128.791812674832	0.70068359375
128.801812674807	0.70068359375
128.811812674781	0.70068359375
128.821812674756	0.70068359375
128.831812674731	0.70068359375
128.841812674706	0.70068359375
128.85181267468	0.70068359375
128.861812674655	0.70068359375
128.87181267463	0.70068359375
128.881812674605	0.70068359375
128.891812674579	0.70068359375
128.901812674554	0.70068359375
128.911812674529	0.70068359375
128.921812674504	0.70068359375
128.931812674478	0.70068359375
128.941812674453	0.70068359375
128.951812674428	0.70068359375
128.961812674403	0.70068359375
128.971812674377	0.70068359375
128.981812674352	0.70068359375
128.991812674327	0.70068359375
129.001812674302	0.70068359375
129.011812674276	0.70068359375
129.021812674251	0.70068359375
129.031812674226	0.70068359375
129.041812674201	0.70068359375
129.051812674175	0.70068359375
129.06181267415	0.70068359375
129.071812674125	0.70068359375
129.0818126741	0.70068359375
129.091812674075	0.70068359375
129.101812674049	0.70068359375
129.111812674024	0.70068359375
129.121812673999	0.70068359375
129.131812673974	0.70068359375
129.141812673948	0.70068359375
129.151812673923	0.70068359375
129.161812673898	0.70068359375
129.171812673873	0.70068359375
129.181812673847	0.70068359375
129.191812673822	0.70068359375
129.201812673797	0.70068359375
129.211812673772	0.70068359375
129.221812673746	0.70068359375
129.231812673721	0.70068359375
129.241812673696	0.70068359375
129.251812673671	0.70068359375
129.261812673645	0.70068359375
129.27181267362	0.70068359375
129.281812673595	0.70068359375
129.29181267357	0.70068359375
129.301812673544	0.70068359375
129.311812673519	0.70068359375
129.321812673494	0.70068359375
129.331812673469	0.70068359375
129.341812673443	0.70068359375
129.351812673418	0.70068359375
129.361812673393	0.70068359375
129.371812673368	0.70068359375
129.381812673342	0.70068359375
129.391812673317	0.70068359375
129.401812673292	0.70068359375
129.411812673267	0.70068359375
129.421812673241	0.70068359375
129.431812673216	0.70068359375
129.441812673191	0.70068359375
129.451812673166	0.70068359375
129.46181267314	0.70068359375
129.471812673115	0.70068359375
129.48181267309	0.70068359375
129.491812673065	0.70068359375
129.501812673039	0.70068359375
129.511812673014	0.70068359375
129.521812672989	0.70068359375
129.531812672964	0.70068359375
129.541812672938	0.70068359375
129.551812672913	0.70068359375
129.561812672888	0.70068359375
129.571812672863	0.70068359375
129.581812672837	0.70068359375
129.591812672812	0.70068359375
129.601812672787	0.70068359375
129.611812672762	0.70068359375
129.621812672736	0.70068359375
129.631812672711	0.70037841796875
129.641812672686	0.70037841796875
129.651812672661	0.70037841796875
129.661812672635	0.70037841796875
129.67181267261	0.70068359375
129.681812672585	0.70037841796875
129.69181267256	0.70037841796875
129.701812672534	0.70037841796875
129.711812672509	0.70037841796875
129.721812672484	0.70037841796875
129.731812672459	0.70037841796875
129.741812672433	0.70037841796875
129.751812672408	0.70037841796875
129.761812672383	0.70037841796875
129.771812672358	0.70037841796875
129.781812672332	0.70037841796875
129.791812672307	0.70037841796875
129.801812672282	0.70037841796875
129.811812672257	0.70037841796875
129.821812672231	0.70037841796875
129.831812672206	0.70037841796875
129.841812672181	0.70037841796875
129.851812672156	0.70037841796875
129.86181267213	0.70037841796875
129.871812672105	0.70037841796875
129.88181267208	0.70037841796875
129.891812672055	0.70037841796875
129.901812672029	0.70037841796875
129.911812672004	0.70037841796875
129.921812671979	0.70037841796875
129.931812671954	0.70037841796875
129.941812671928	0.70037841796875
129.951812671903	0.70037841796875
129.961812671878	0.70037841796875
129.971812671853	0.70037841796875
129.981812671827	0.70037841796875
129.991812671802	0.70037841796875
130.001812671777	0.70037841796875
130.011812671752	0.70037841796875
130.021812671726	0.70037841796875
130.031812671701	0.70037841796875
130.041812671676	0.70037841796875
130.051812671651	0.70037841796875
130.061812671625	0.70037841796875
130.0718126716	0.70037841796875
130.081812671575	0.70037841796875
130.09181267155	0.70037841796875
130.101812671524	0.70037841796875
130.111812671499	0.70037841796875
130.121812671474	0.70037841796875
130.131812671449	0.70037841796875
130.141812671424	0.70037841796875
130.151812671398	0.70037841796875
130.161812671373	0.70037841796875
130.171812671348	0.70037841796875
130.181812671323	0.70037841796875
130.191812671297	0.70037841796875
130.201812671272	0.70037841796875
130.211812671247	0.7000732421875
130.221812671222	0.70037841796875
130.231812671196	0.7000732421875
130.241812671171	0.70037841796875
130.251812671146	0.70037841796875
130.261812671121	0.7000732421875
130.271812671095	0.7000732421875
130.28181267107	0.7000732421875
130.291812671045	0.7000732421875
130.30181267102	0.7000732421875
130.311812670994	0.7000732421875
130.321812670969	0.7000732421875
130.331812670944	0.7000732421875
130.341812670919	0.7000732421875
130.351812670893	0.7000732421875
130.361812670868	0.7000732421875
130.371812670843	0.7000732421875
130.381812670818	0.7000732421875
130.391812670792	0.7000732421875
130.401812670767	0.7000732421875
130.411812670742	0.7000732421875
130.421812670717	0.7000732421875
130.431812670691	0.7000732421875
130.441812670666	0.7000732421875
130.451812670641	0.7000732421875
130.461812670616	0.7000732421875
130.47181267059	0.7000732421875
130.481812670565	0.7000732421875
130.49181267054	0.7000732421875
130.501812670515	0.7000732421875
130.511812670489	0.7000732421875
130.521812670464	0.7000732421875
130.531812670439	0.7000732421875
130.541812670414	0.7000732421875
130.551812670388	0.7000732421875
130.561812670363	0.7000732421875
130.571812670338	0.7000732421875
130.581812670313	0.7000732421875
130.591812670287	0.7000732421875
130.601812670262	0.7000732421875
130.611812670237	0.7000732421875
130.621812670212	0.7000732421875
130.631812670186	0.7000732421875
130.641812670161	0.7000732421875
130.651812670136	0.7000732421875
130.661812670111	0.7000732421875
130.671812670085	0.7000732421875
130.68181267006	0.7000732421875
130.691812670035	0.7000732421875
130.70181267001	0.7000732421875
130.711812669984	0.7000732421875
130.721812669959	0.7000732421875
130.731812669934	0.7000732421875
130.741812669909	0.7000732421875
130.751812669883	0.7000732421875
130.761812669858	0.7000732421875
130.771812669833	0.7000732421875
130.781812669808	0.7000732421875
130.791812669782	0.7000732421875
130.801812669757	0.7000732421875
130.811812669732	0.7000732421875
130.821812669707	0.7000732421875
130.831812669681	0.7000732421875
130.841812669656	0.69976806640625
130.851812669631	0.7000732421875
130.861812669606	0.7000732421875
130.87181266958	0.69976806640625
130.881812669555	0.69976806640625
130.89181266953	0.69976806640625
130.901812669505	0.69976806640625
130.911812669479	0.69976806640625
130.921812669454	0.69976806640625
130.931812669429	0.69976806640625
130.941812669404	0.69976806640625
130.951812669378	0.69976806640625
130.961812669353	0.69976806640625
130.971812669328	0.69976806640625
130.981812669303	0.69976806640625
130.991812669277	0.69976806640625
131.001812669252	0.69976806640625
131.011812669227	0.69976806640625
131.021812669202	0.69976806640625
131.031812669176	0.69976806640625
131.041812669151	0.69976806640625
131.051812669126	0.69976806640625
131.061812669101	0.69976806640625
131.071812669075	0.69976806640625
131.08181266905	0.69976806640625
131.091812669025	0.69976806640625
131.101812669	0.69976806640625
131.111812668974	0.69976806640625
131.121812668949	0.69976806640625
131.131812668924	0.69976806640625
131.141812668899	0.69976806640625
131.151812668874	0.69976806640625
131.161812668848	0.69976806640625
131.171812668823	0.69976806640625
131.181812668798	0.69976806640625
131.191812668773	0.69976806640625
131.201812668747	0.69976806640625
131.211812668722	0.69976806640625
131.221812668697	0.69976806640625
131.231812668672	0.69976806640625
131.241812668646	0.69976806640625
131.251812668621	0.69976806640625
131.261812668596	0.69976806640625
131.271812668571	0.69976806640625
131.281812668545	0.69976806640625
131.29181266852	0.69976806640625
131.301812668495	0.69976806640625
131.31181266847	0.699462890625
131.321812668444	0.69976806640625
131.331812668419	0.69976806640625
131.341812668394	0.69976806640625
131.351812668369	0.699462890625
131.361812668343	0.69976806640625
131.371812668318	0.69976806640625
131.381812668293	0.699462890625
131.391812668268	0.699462890625
131.401812668242	0.699462890625
131.411812668217	0.699462890625
131.421812668192	0.699462890625
131.431812668167	0.699462890625
131.441812668141	0.699462890625
131.451812668116	0.699462890625
131.461812668091	0.699462890625
131.471812668066	0.699462890625
131.48181266804	0.699462890625
131.491812668015	0.699462890625
131.50181266799	0.699462890625
131.511812667965	0.699462890625
131.521812667939	0.699462890625
131.531812667914	0.699462890625
131.541812667889	0.699462890625
131.551812667864	0.699462890625
131.561812667838	0.699462890625
131.571812667813	0.699462890625
131.581812667788	0.699462890625
131.591812667763	0.699462890625
131.601812667737	0.699462890625
131.611812667712	0.699462890625
131.621812667687	0.699462890625
131.631812667662	0.699462890625
131.641812667636	0.699462890625
131.651812667611	0.699462890625
131.661812667586	0.699462890625
131.671812667561	0.699462890625
131.681812667535	0.699462890625
131.69181266751	0.699462890625
131.701812667485	0.699462890625
131.71181266746	0.699462890625
131.721812667434	0.699462890625
131.731812667409	0.699462890625
131.741812667384	0.699462890625
131.751812667359	0.699462890625
131.761812667333	0.699462890625
131.771812667308	0.699462890625
131.781812667283	0.699462890625
131.791812667258	0.699462890625
131.801812667232	0.699462890625
131.811812667207	0.699462890625
131.821812667182	0.699462890625
131.831812667157	0.699462890625
131.841812667131	0.699462890625
131.851812667106	0.699462890625
131.861812667081	0.699462890625
131.871812667056	0.699462890625
131.88181266703	0.699462890625
131.891812667005	0.699462890625
131.90181266698	0.699462890625
131.911812666955	0.699462890625
131.921812666929	0.699462890625
131.931812666904	0.699462890625
131.941812666879	0.699462890625
131.951812666854	0.699462890625
131.961812666828	0.699462890625
131.971812666803	0.699462890625
131.981812666778	0.699462890625
131.991812666753	0.699462890625
132.001812666727	0.699462890625
132.011812666702	0.699462890625
132.021812666677	0.699462890625
132.031812666652	0.699462890625
132.041812666626	0.699462890625
132.051812666601	0.699462890625
132.061812666576	0.699462890625
132.071812666551	0.699462890625
132.081812666525	0.699462890625
132.0918126665	0.699462890625
132.101812666475	0.699462890625
132.11181266645	0.699462890625
132.121812666424	0.699462890625
132.131812666399	0.699462890625
132.141812666374	0.699462890625
132.151812666349	0.699462890625
132.161812666323	0.699462890625
132.171812666298	0.699462890625
132.181812666273	0.699462890625
132.191812666248	0.699462890625
132.201812666223	0.699462890625
132.211812666197	0.699462890625
132.221812666172	0.699462890625
132.231812666147	0.699462890625
132.241812666122	0.699462890625
132.251812666096	0.699462890625
132.261812666071	0.699462890625
132.271812666046	0.699462890625
132.281812666021	0.699462890625
132.291812665995	0.699462890625
132.30181266597	0.699462890625
132.311812665945	0.699462890625
132.32181266592	0.699462890625
132.331812665894	0.699462890625
132.341812665869	0.699462890625
132.351812665844	0.699462890625
132.361812665819	0.699462890625
132.371812665793	0.699462890625
132.381812665768	0.699462890625
132.391812665743	0.699462890625
132.401812665718	0.699462890625
132.411812665692	0.699462890625
132.421812665667	0.699462890625
132.431812665642	0.699462890625
132.441812665617	0.699462890625
132.451812665591	0.699462890625
132.461812665566	0.699462890625
132.471812665541	0.699462890625
132.481812665516	0.699462890625
132.49181266549	0.699462890625
132.501812665465	0.699462890625
132.51181266544	0.699462890625
132.521812665415	0.699462890625
132.531812665389	0.699462890625
132.541812665364	0.699462890625
132.551812665339	0.699462890625
132.561812665314	0.699462890625
132.571812665288	0.699462890625
132.581812665263	0.699462890625
132.591812665238	0.699462890625
132.601812665213	0.699462890625
132.611812665187	0.699462890625
132.621812665162	0.699462890625
132.631812665137	0.699462890625
132.641812665112	0.699462890625
132.651812665086	0.699462890625
132.661812665061	0.699462890625
132.671812665036	0.699462890625
132.681812665011	0.699462890625
132.691812664985	0.699462890625
132.70181266496	0.699462890625
132.711812664935	0.699462890625
132.72181266491	0.699462890625
132.731812664884	0.699462890625
132.741812664859	0.699462890625
132.751812664834	0.699462890625
132.761812664809	0.699462890625
132.771812664783	0.699462890625
132.781812664758	0.699462890625
132.791812664733	0.699462890625
132.801812664708	0.699462890625
132.811812664682	0.699462890625
132.821812664657	0.699462890625
132.831812664632	0.699462890625
132.841812664607	0.699462890625
132.851812664581	0.699462890625
132.861812664556	0.699462890625
132.871812664531	0.699462890625
132.881812664506	0.699462890625
132.89181266448	0.699462890625
132.901812664455	0.699462890625
132.91181266443	0.699462890625
132.921812664405	0.699462890625
132.931812664379	0.699462890625
132.941812664354	0.699462890625
132.951812664329	0.699462890625
132.961812664304	0.699462890625
132.971812664278	0.699462890625
132.981812664253	0.699462890625
132.991812664228	0.699462890625
133.001812664203	0.699462890625
133.011812664177	0.699462890625
133.021812664152	0.699462890625
133.031812664127	0.699462890625
133.041812664102	0.699462890625
133.051812664076	0.699462890625
133.061812664051	0.699462890625
133.071812664026	0.699462890625
133.081812664001	0.699462890625
133.091812663975	0.699462890625
133.10181266395	0.699462890625
133.111812663925	0.699462890625
133.1218126639	0.699462890625
133.131812663874	0.699462890625
133.141812663849	0.699462890625
133.151812663824	0.699462890625
133.161812663799	0.699462890625
133.171812663773	0.699462890625
133.181812663748	0.699462890625
133.191812663723	0.699462890625
133.201812663698	0.699462890625
133.211812663673	0.699462890625
133.221812663647	0.699462890625
133.231812663622	0.699462890625
133.241812663597	0.699462890625
133.251812663572	0.699462890625
133.261812663546	0.699462890625
133.271812663521	0.699462890625
133.281812663496	0.699462890625
133.291812663471	0.699462890625
133.301812663445	0.699462890625
133.31181266342	0.699462890625
133.321812663395	0.699462890625
133.33181266337	0.699462890625
133.341812663344	0.699462890625
