Time (s)	WE(1).Potential (V)
96.7202637558048	0.7110595703125
96.7302637557796	0.7110595703125
96.7402637557543	0.7110595703125
96.7502637557291	0.7110595703125
96.7602637557038	0.7110595703125
96.7702637556786	0.7110595703125
96.7802637556533	0.7110595703125
96.7902637556281	0.7110595703125
96.8002637556028	0.7110595703125
96.8102637555776	0.7110595703125
96.8202637555523	0.7110595703125
96.8302637555271	0.7110595703125
96.8402637555018	0.7110595703125
96.8502637554766	0.7110595703125
96.8602637554513	0.7110595703125
96.8702637554261	0.7110595703125
96.8802637554008	0.7110595703125
96.8902637553756	0.7110595703125
96.9002637553504	0.7110595703125
96.9102637553251	0.7110595703125
96.9202637552999	0.7110595703125
96.9302637552746	0.7110595703125
96.9402637552494	0.7110595703125
96.9502637552241	0.7110595703125
96.9602637551989	0.7110595703125
96.9702637551736	0.7110595703125
96.9802637551484	0.7110595703125
96.9902637551231	0.7110595703125
97.0002637550979	0.7110595703125
97.0102637550726	0.7110595703125
97.0202637550474	0.7110595703125
97.0302637550221	0.7110595703125
97.0402637549969	0.7110595703125
97.0502637549716	0.7110595703125
97.0602637549464	0.7110595703125
97.0702637549211	0.7110595703125
97.0802637548959	0.7110595703125
97.0902637548706	0.7110595703125
97.1002637548454	0.7110595703125
97.1102637548202	0.7110595703125
97.1202637547949	0.7110595703125
97.1302637547697	0.7110595703125
97.1402637547444	0.7110595703125
97.1502637547192	0.7110595703125
97.1602637546939	0.7110595703125
97.1702637546687	0.7110595703125
97.1802637546434	0.7110595703125
97.1902637546182	0.7110595703125
97.2002637545929	0.7110595703125
97.2102637545677	0.7110595703125
97.2202637545424	0.7110595703125
97.2302637545172	0.7110595703125
97.2402637544919	0.71136474609375
97.2502637544667	0.71136474609375
97.2602637544414	0.71136474609375
97.2702637544162	0.71136474609375
97.2802637543909	0.71136474609375
97.2902637543657	0.71136474609375
97.3002637543404	0.71136474609375
97.3102637543152	0.71136474609375
97.32026375429	0.71136474609375
97.3302637542647	0.71136474609375
97.3402637542395	0.71136474609375
97.3502637542142	0.71136474609375
97.360263754189	0.71136474609375
97.3702637541637	0.71136474609375
97.3802637541385	0.71136474609375
97.3902637541132	0.71136474609375
97.400263754088	0.71136474609375
97.4102637540627	0.71136474609375
97.4202637540375	0.71136474609375
97.4302637540122	0.71136474609375
97.440263753987	0.71136474609375
97.4502637539617	0.71136474609375
97.4602637539365	0.71136474609375
97.4702637539112	0.71136474609375
97.480263753886	0.71136474609375
97.4902637538607	0.71136474609375
97.5002637538355	0.71136474609375
97.5102637538102	0.71136474609375
97.520263753785	0.71136474609375
97.5302637537598	0.71136474609375
97.5402637537345	0.71136474609375
97.5502637537093	0.71136474609375
97.560263753684	0.71136474609375
97.5702637536588	0.71136474609375
97.5802637536335	0.71136474609375
97.5902637536083	0.71136474609375
97.600263753583	0.71136474609375
97.6102637535578	0.71136474609375
97.6202637535325	0.71136474609375
97.6302637535073	0.71136474609375
97.640263753482	0.71136474609375
97.6502637534568	0.71136474609375
97.6602637534315	0.71136474609375
97.6702637534063	0.71136474609375
97.680263753381	0.71136474609375
97.6902637533558	0.71136474609375
97.7002637533305	0.71136474609375
97.7102637533053	0.71136474609375
97.7202637532801	0.71136474609375
97.7302637532548	0.71136474609375
97.7402637532296	0.71136474609375
97.7502637532043	0.71136474609375
97.7602637531791	0.71136474609375
97.7702637531538	0.71136474609375
97.7802637531286	0.71136474609375
97.7902637531033	0.71136474609375
97.8002637530781	0.71136474609375
97.8102637530528	0.71136474609375
97.8202637530276	0.71136474609375
97.8302637530023	0.71136474609375
97.8402637529771	0.71136474609375
97.8502637529518	0.71136474609375
97.8602637529266	0.71136474609375
97.8702637529013	0.71136474609375
97.8802637528761	0.71136474609375
97.8902637528508	0.71136474609375
97.9002637528256	0.71136474609375
97.9102637528003	0.71136474609375
97.9202637527751	0.71136474609375
97.9302637527499	0.71136474609375
97.9402637527246	0.71136474609375
97.9502637526994	0.71136474609375
97.9602637526741	0.71136474609375
97.9702637526489	0.71136474609375
97.9802637526236	0.71136474609375
97.9902637525984	0.71136474609375
98.0002637525731	0.71136474609375
98.0102637525479	0.71136474609375
98.0202637525226	0.71136474609375
98.0302637524974	0.71136474609375
98.0402637524721	0.71136474609375
98.0502637524469	0.71136474609375
98.0602637524216	0.71136474609375
98.0702637523964	0.71136474609375
98.0802637523711	0.71136474609375
98.0902637523459	0.71136474609375
98.1002637523206	0.71136474609375
98.1102637522954	0.71136474609375
98.1202637522701	0.71136474609375
98.1302637522449	0.71136474609375
98.1402637522197	0.71136474609375
98.1502637521944	0.71136474609375
98.1602637521692	0.71136474609375
98.1702637521439	0.71136474609375
98.1802637521187	0.71136474609375
98.1902637520934	0.71136474609375
98.2002637520682	0.71136474609375
98.2102637520429	0.71136474609375
98.2202637520177	0.71136474609375
98.2302637519924	0.71136474609375
98.2402637519672	0.71136474609375
98.2502637519419	0.71136474609375
98.2602637519167	0.71136474609375
98.2702637518914	0.71136474609375
98.2802637518662	0.71136474609375
98.2902637518409	0.71136474609375
98.3002637518157	0.71136474609375
98.3102637517904	0.71136474609375
98.3202637517652	0.71136474609375
98.3302637517399	0.71136474609375
98.3402637517147	0.71136474609375
98.3502637516895	0.71136474609375
98.3602637516642	0.71136474609375
98.370263751639	0.71136474609375
98.3802637516137	0.71136474609375
98.3902637515885	0.71136474609375
98.4002637515632	0.71136474609375
98.410263751538	0.71136474609375
98.4202637515127	0.71136474609375
98.4302637514875	0.71136474609375
98.4402637514622	0.71136474609375
98.450263751437	0.71136474609375
98.4602637514117	0.71136474609375
98.4702637513865	0.71136474609375
98.4802637513612	0.71136474609375
98.490263751336	0.71136474609375
98.5002637513107	0.71136474609375
98.5102637512855	0.71136474609375
98.5202637512602	0.71136474609375
98.530263751235	0.71136474609375
98.5402637512097	0.71136474609375
98.5502637511845	0.71136474609375
98.5602637511593	0.71136474609375
98.570263751134	0.71136474609375
98.5802637511088	0.71136474609375
98.5902637510835	0.71136474609375
98.6002637510583	0.71136474609375
98.610263751033	0.71136474609375
98.6202637510078	0.71136474609375
98.6302637509825	0.71136474609375
98.6402637509573	0.71136474609375
98.650263750932	0.71136474609375
98.6602637509068	0.71136474609375
98.6702637508815	0.71136474609375
98.6802637508563	0.71136474609375
98.690263750831	0.71136474609375
98.7002637508058	0.71136474609375
98.7102637507805	0.71136474609375
98.7202637507553	0.71136474609375
98.73026375073	0.71136474609375
98.7402637507048	0.71136474609375
98.7502637506796	0.71136474609375
98.7602637506543	0.71136474609375
98.7702637506291	0.71136474609375
98.7802637506038	0.71136474609375
98.7902637505786	0.71136474609375
98.8002637505533	0.71136474609375
98.8102637505281	0.71136474609375
98.8202637505028	0.71136474609375
98.8302637504776	0.71136474609375
98.8402637504523	0.71136474609375
98.8502637504271	0.71136474609375
98.8602637504018	0.71136474609375
98.8702637503766	0.71136474609375
98.8802637503513	0.71136474609375
98.8902637503261	0.71136474609375
98.9002637503008	0.71136474609375
98.9102637502756	0.711669921875
98.9202637502503	0.711669921875
98.9302637502251	0.71136474609375
98.9402637501998	0.71136474609375
98.9502637501746	0.71136474609375
98.9602637501494	0.71136474609375
98.9702637501241	0.711669921875
98.9802637500989	0.71136474609375
98.9902637500736	0.711669921875
99.0002637500484	0.711669921875
99.0102637500231	0.711669921875
99.0202637499979	0.71136474609375
99.0302637499726	0.711669921875
99.0402637499474	0.71136474609375
99.0502637499221	0.71136474609375
99.0602637498969	0.711669921875
99.0702637498716	0.71136474609375
99.0802637498464	0.711669921875
99.0902637498211	0.711669921875
99.1002637497959	0.711669921875
99.1102637497706	0.71136474609375
99.1202637497454	0.711669921875
99.1302637497201	0.71136474609375
99.1402637496949	0.711669921875
99.1502637496696	0.711669921875
99.1602637496444	0.711669921875
99.1702637496192	0.711669921875
99.1802637495939	0.711669921875
99.1902637495687	0.711669921875
99.2002637495434	0.711669921875
99.2102637495182	0.711669921875
99.2202637494929	0.711669921875
99.2302637494677	0.711669921875
99.2402637494424	0.711669921875
99.2502637494172	0.711669921875
99.2602637493919	0.711669921875
99.2702637493667	0.711669921875
99.2802637493414	0.711669921875
99.2902637493162	0.711669921875
99.3002637492909	0.711669921875
99.3102637492657	0.711669921875
99.3202637492404	0.711669921875
99.3302637492152	0.711669921875
99.3402637491899	0.711669921875
99.3502637491647	0.711669921875
99.3602637491394	0.711669921875
99.3702637491142	0.711669921875
99.380263749089	0.711669921875
99.3902637490637	0.711669921875
99.4002637490385	0.711669921875
99.4102637490132	0.711669921875
99.420263748988	0.711669921875
99.4302637489627	0.711669921875
99.4402637489375	0.711669921875
99.4502637489122	0.711669921875
99.460263748887	0.711669921875
99.4702637488617	0.711669921875
99.4802637488365	0.711669921875
99.4902637488112	0.711669921875
99.500263748786	0.711669921875
99.5102637487607	0.711669921875
99.5202637487355	0.711669921875
99.5302637487102	0.711669921875
99.540263748685	0.711669921875
99.5502637486597	0.711669921875
99.5602637486345	0.711669921875
99.5702637486092	0.711669921875
99.580263748584	0.711669921875
99.5902637485588	0.711669921875
99.6002637485335	0.711669921875
99.6102637485083	0.711669921875
99.620263748483	0.711669921875
99.6302637484578	0.711669921875
99.6402637484325	0.711669921875
99.6502637484073	0.711669921875
99.660263748382	0.711669921875
99.6702637483568	0.711669921875
99.6802637483315	0.711669921875
99.6902637483063	0.711669921875
99.700263748281	0.711669921875
99.7102637482558	0.711669921875
99.7202637482305	0.711669921875
99.7302637482053	0.711669921875
99.74026374818	0.711669921875
99.7502637481548	0.711669921875
99.7602637481295	0.711669921875
99.7702637481043	0.711669921875
99.7802637480791	0.711669921875
99.7902637480538	0.711669921875
99.8002637480286	0.711669921875
99.8102637480033	0.711669921875
99.8202637479781	0.711669921875
99.8302637479528	0.711669921875
99.8402637479276	0.711669921875
99.8502637479023	0.711669921875
99.8602637478771	0.711669921875
99.8702637478518	0.711669921875
99.8802637478266	0.711669921875
99.8902637478013	0.711669921875
99.9002637477761	0.711669921875
99.9102637477508	0.711669921875
99.9202637477256	0.711669921875
99.9302637477003	0.711669921875
99.9402637476751	0.711669921875
99.9502637476498	0.711669921875
99.9602637476246	0.711669921875
99.9702637475993	0.711669921875
99.9802637475741	0.711669921875
99.9902637475489	0.711669921875
100.000263747524	0.711669921875
100.010263747498	0.711669921875
100.020263747473	0.711669921875
100.030263747448	0.711669921875
100.040263747423	0.711669921875
100.050263747397	0.711669921875
100.060263747372	0.711669921875
100.070263747347	0.711669921875
100.080263747322	0.711669921875
100.090263747296	0.711669921875
100.100263747271	0.711669921875
100.110263747246	0.711669921875
100.120263747221	0.711669921875
100.130263747195	0.711669921875
100.14026374717	0.711669921875
100.150263747145	0.711669921875
100.16026374712	0.711669921875
100.170263747094	0.711669921875
100.180263747069	0.711669921875
100.190263747044	0.711669921875
100.200263747019	0.711669921875
100.210263746993	0.711669921875
100.220263746968	0.711669921875
100.230263746943	0.71197509765625
100.240263746918	0.71197509765625
100.250263746892	0.711669921875
100.260263746867	0.711669921875
100.270263746842	0.71197509765625
100.280263746817	0.71197509765625
100.290263746791	0.71197509765625
100.300263746766	0.71197509765625
100.310263746741	0.71197509765625
100.320263746716	0.71197509765625
100.33026374669	0.71197509765625
100.340263746665	0.71197509765625
100.35026374664	0.71197509765625
100.360263746615	0.71197509765625
100.370263746589	0.71197509765625
100.380263746564	0.71197509765625
100.390263746539	0.71197509765625
100.400263746514	0.71197509765625
100.410263746488	0.71197509765625
100.420263746463	0.71197509765625
100.430263746438	0.71197509765625
100.440263746413	0.71197509765625
100.450263746387	0.71197509765625
100.460263746362	0.71197509765625
100.470263746337	0.71197509765625
100.480263746312	0.71197509765625
100.490263746286	0.71197509765625
100.500263746261	0.71197509765625
100.510263746236	0.71197509765625
100.520263746211	0.71197509765625
100.530263746185	0.71197509765625
100.54026374616	0.71197509765625
100.550263746135	0.71197509765625
100.56026374611	0.71197509765625
100.570263746084	0.71197509765625
100.580263746059	0.71197509765625
100.590263746034	0.71197509765625
100.600263746009	0.71197509765625
100.610263745984	0.71197509765625
100.620263745958	0.71197509765625
100.630263745933	0.71197509765625
100.640263745908	0.71197509765625
100.650263745883	0.71197509765625
100.660263745857	0.71197509765625
100.670263745832	0.71197509765625
100.680263745807	0.71197509765625
100.690263745782	0.71197509765625
100.700263745756	0.71197509765625
100.710263745731	0.71197509765625
100.720263745706	0.71197509765625
100.730263745681	0.71197509765625
100.740263745655	0.71197509765625
100.75026374563	0.71197509765625
100.760263745605	0.71197509765625
100.77026374558	0.71197509765625
100.780263745554	0.71197509765625
100.790263745529	0.71197509765625
100.800263745504	0.71197509765625
100.810263745479	0.71197509765625
100.820263745453	0.71197509765625
100.830263745428	0.71197509765625
100.840263745403	0.71197509765625
100.850263745378	0.71197509765625
100.860263745352	0.71197509765625
100.870263745327	0.71197509765625
100.880263745302	0.71197509765625
100.890263745277	0.71197509765625
100.900263745251	0.71197509765625
100.910263745226	0.71197509765625
100.920263745201	0.71197509765625
100.930263745176	0.71197509765625
100.94026374515	0.71197509765625
100.950263745125	0.71197509765625
100.9602637451	0.71197509765625
100.970263745075	0.71197509765625
100.980263745049	0.71197509765625
100.990263745024	0.71197509765625
101.000263744999	0.71197509765625
101.010263744974	0.71197509765625
101.020263744948	0.71197509765625
101.030263744923	0.71197509765625
101.040263744898	0.71197509765625
101.050263744873	0.71197509765625
101.060263744847	0.71197509765625
101.070263744822	0.71197509765625
101.080263744797	0.71197509765625
101.090263744772	0.71197509765625
101.100263744746	0.71197509765625
101.110263744721	0.71197509765625
101.120263744696	0.71197509765625
101.130263744671	0.71197509765625
101.140263744645	0.71197509765625
101.15026374462	0.71197509765625
101.160263744595	0.71197509765625
101.17026374457	0.71197509765625
101.180263744544	0.71197509765625
101.190263744519	0.71197509765625
101.200263744494	0.71197509765625
101.210263744469	0.71197509765625
101.220263744443	0.71197509765625
101.230263744418	0.71197509765625
101.240263744393	0.71197509765625
101.250263744368	0.71197509765625
101.260263744342	0.71197509765625
101.270263744317	0.71197509765625
101.280263744292	0.71197509765625
101.290263744267	0.71197509765625
101.300263744241	0.71197509765625
101.310263744216	0.71197509765625
101.320263744191	0.71197509765625
101.330263744166	0.71197509765625
101.34026374414	0.71197509765625
101.350263744115	0.71197509765625
101.36026374409	0.71197509765625
101.370263744065	0.71197509765625
101.380263744039	0.71197509765625
101.390263744014	0.71197509765625
101.400263743989	0.71197509765625
101.410263743964	0.71197509765625
101.420263743938	0.71197509765625
101.430263743913	0.71197509765625
101.440263743888	0.71197509765625
101.450263743863	0.71197509765625
101.460263743837	0.71197509765625
101.470263743812	0.71197509765625
101.480263743787	0.71197509765625
101.490263743762	0.71197509765625
101.500263743736	0.71197509765625
101.510263743711	0.71197509765625
101.520263743686	0.71197509765625
101.530263743661	0.71197509765625
101.540263743635	0.71197509765625
101.55026374361	0.71197509765625
101.560263743585	0.71197509765625
101.57026374356	0.71197509765625
101.580263743534	0.71197509765625
101.590263743509	0.71197509765625
101.600263743484	0.71197509765625
101.610263743459	0.71197509765625
101.620263743433	0.71197509765625
101.630263743408	0.71197509765625
101.640263743383	0.71197509765625
101.650263743358	0.71197509765625
101.660263743333	0.71197509765625
101.670263743307	0.71197509765625
101.680263743282	0.71197509765625
101.690263743257	0.71197509765625
101.700263743232	0.71197509765625
101.710263743206	0.71197509765625
