Time (s)	WE(1).Potential (V)
144.523192635114	0.71868896484375
144.533192635089	0.71868896484375
144.543192635064	0.71868896484375
144.553192635038	0.71868896484375
144.563192635013	0.71868896484375
144.573192634988	0.71868896484375
144.583192634963	0.71868896484375
144.593192634937	0.718994140625
144.603192634912	0.71868896484375
144.613192634887	0.718994140625
144.623192634862	0.718994140625
144.633192634836	0.718994140625
144.643192634811	0.718994140625
144.653192634786	0.718994140625
144.663192634761	0.718994140625
144.673192634735	0.718994140625
144.68319263471	0.718994140625
144.693192634685	0.718994140625
144.70319263466	0.718994140625
144.713192634634	0.718994140625
144.723192634609	0.718994140625
144.733192634584	0.718994140625
144.743192634559	0.718994140625
144.753192634533	0.718994140625
144.763192634508	0.718994140625
144.773192634483	0.718994140625
144.783192634458	0.718994140625
144.793192634432	0.718994140625
144.803192634407	0.718994140625
144.813192634382	0.718994140625
144.823192634357	0.718994140625
144.833192634331	0.718994140625
144.843192634306	0.718994140625
144.853192634281	0.718994140625
144.863192634256	0.718994140625
144.87319263423	0.718994140625
144.883192634205	0.718994140625
144.89319263418	0.718994140625
144.903192634155	0.718994140625
144.913192634129	0.718994140625
144.923192634104	0.718994140625
144.933192634079	0.718994140625
144.943192634054	0.718994140625
144.953192634028	0.718994140625
144.963192634003	0.718994140625
144.973192633978	0.718994140625
144.983192633953	0.718994140625
144.993192633927	0.718994140625
145.003192633902	0.718994140625
145.013192633877	0.718994140625
145.023192633852	0.718994140625
145.033192633826	0.718994140625
145.043192633801	0.718994140625
145.053192633776	0.718994140625
145.063192633751	0.718994140625
145.073192633725	0.718994140625
145.0831926337	0.718994140625
145.093192633675	0.718994140625
145.10319263365	0.718994140625
145.113192633624	0.718994140625
145.123192633599	0.718994140625
145.133192633574	0.718994140625
145.143192633549	0.718994140625
145.153192633523	0.718994140625
145.163192633498	0.718994140625
145.173192633473	0.718994140625
145.183192633448	0.718994140625
145.193192633422	0.718994140625
145.203192633397	0.718994140625
145.213192633372	0.718994140625
145.223192633347	0.718994140625
145.233192633321	0.718994140625
145.243192633296	0.718994140625
145.253192633271	0.718994140625
145.263192633246	0.718994140625
145.27319263322	0.718994140625
145.283192633195	0.718994140625
145.29319263317	0.718994140625
145.303192633145	0.718994140625
145.313192633119	0.718994140625
145.323192633094	0.718994140625
145.333192633069	0.718994140625
145.343192633044	0.718994140625
145.353192633018	0.718994140625
145.363192632993	0.718994140625
145.373192632968	0.718994140625
145.383192632943	0.718994140625
145.393192632917	0.718994140625
145.403192632892	0.718994140625
145.413192632867	0.718994140625
145.423192632842	0.718994140625
145.433192632816	0.718994140625
145.443192632791	0.718994140625
145.453192632766	0.718994140625
145.463192632741	0.718994140625
145.473192632715	0.718994140625
145.48319263269	0.718994140625
145.493192632665	0.718994140625
145.50319263264	0.718994140625
145.513192632615	0.718994140625
145.523192632589	0.718994140625
145.533192632564	0.718994140625
145.543192632539	0.718994140625
145.553192632514	0.718994140625
145.563192632488	0.718994140625
145.573192632463	0.718994140625
145.583192632438	0.718994140625
145.593192632413	0.718994140625
145.603192632387	0.718994140625
145.613192632362	0.718994140625
145.623192632337	0.718994140625
145.633192632312	0.718994140625
145.643192632286	0.718994140625
145.653192632261	0.718994140625
145.663192632236	0.718994140625
145.673192632211	0.718994140625
145.683192632185	0.718994140625
145.69319263216	0.718994140625
145.703192632135	0.718994140625
145.71319263211	0.718994140625
145.723192632084	0.718994140625
145.733192632059	0.718994140625
145.743192632034	0.718994140625
145.753192632009	0.718994140625
145.763192631983	0.718994140625
145.773192631958	0.718994140625
145.783192631933	0.718994140625
145.793192631908	0.718994140625
145.803192631882	0.718994140625
145.813192631857	0.718994140625
145.823192631832	0.718994140625
145.833192631807	0.718994140625
145.843192631781	0.718994140625
145.853192631756	0.718994140625
145.863192631731	0.718994140625
145.873192631706	0.718994140625
145.88319263168	0.718994140625
145.893192631655	0.718994140625
145.90319263163	0.718994140625
145.913192631605	0.718994140625
145.923192631579	0.718994140625
145.933192631554	0.718994140625
145.943192631529	0.718994140625
145.953192631504	0.718994140625
145.963192631478	0.718994140625
145.973192631453	0.718994140625
145.983192631428	0.718994140625
145.993192631403	0.718994140625
146.003192631377	0.718994140625
146.013192631352	0.718994140625
146.023192631327	0.718994140625
146.033192631302	0.718994140625
146.043192631276	0.718994140625
146.053192631251	0.718994140625
146.063192631226	0.718994140625
146.073192631201	0.718994140625
146.083192631175	0.718994140625
146.09319263115	0.718994140625
146.103192631125	0.718994140625
146.1131926311	0.718994140625
146.123192631074	0.718994140625
146.133192631049	0.718994140625
146.143192631024	0.718994140625
146.153192630999	0.718994140625
146.163192630973	0.718994140625
146.173192630948	0.718994140625
146.183192630923	0.718994140625
146.193192630898	0.718994140625
146.203192630872	0.718994140625
146.213192630847	0.718994140625
146.223192630822	0.718994140625
146.233192630797	0.718994140625
146.243192630771	0.718994140625
146.253192630746	0.718994140625
146.263192630721	0.718994140625
146.273192630696	0.718994140625
146.28319263067	0.718994140625
146.293192630645	0.718994140625
146.30319263062	0.718994140625
146.313192630595	0.718994140625
146.323192630569	0.718994140625
146.333192630544	0.718994140625
146.343192630519	0.718994140625
146.353192630494	0.718994140625
146.363192630468	0.718994140625
146.373192630443	0.718994140625
146.383192630418	0.718994140625
146.393192630393	0.718994140625
146.403192630367	0.718994140625
146.413192630342	0.718994140625
146.423192630317	0.718994140625
146.433192630292	0.718994140625
146.443192630266	0.718994140625
146.453192630241	0.718994140625
146.463192630216	0.718994140625
146.473192630191	0.718994140625
146.483192630165	0.718994140625
146.49319263014	0.718994140625
146.503192630115	0.718994140625
146.51319263009	0.718994140625
146.523192630065	0.718994140625
146.533192630039	0.718994140625
146.543192630014	0.718994140625
146.553192629989	0.718994140625
146.563192629964	0.718994140625
146.573192629938	0.718994140625
146.583192629913	0.718994140625
146.593192629888	0.71868896484375
146.603192629863	0.718994140625
146.613192629837	0.718994140625
146.623192629812	0.71868896484375
146.633192629787	0.718994140625
146.643192629762	0.71868896484375
146.653192629736	0.71868896484375
146.663192629711	0.71868896484375
146.673192629686	0.718994140625
146.683192629661	0.71868896484375
146.693192629635	0.71868896484375
146.70319262961	0.71868896484375
146.713192629585	0.718994140625
146.72319262956	0.718994140625
146.733192629534	0.718994140625
146.743192629509	0.718994140625
146.753192629484	0.718994140625
146.763192629459	0.71868896484375
146.773192629433	0.718994140625
146.783192629408	0.718994140625
146.793192629383	0.718994140625
146.803192629358	0.71868896484375
146.813192629332	0.718994140625
146.823192629307	0.718994140625
146.833192629282	0.718994140625
146.843192629257	0.718994140625
146.853192629231	0.71868896484375
146.863192629206	0.718994140625
146.873192629181	0.71868896484375
146.883192629156	0.71868896484375
146.89319262913	0.71868896484375
146.903192629105	0.718994140625
146.91319262908	0.71868896484375
146.923192629055	0.71868896484375
146.933192629029	0.71868896484375
146.943192629004	0.71868896484375
146.953192628979	0.71868896484375
146.963192628954	0.71868896484375
146.973192628928	0.71868896484375
146.983192628903	0.71868896484375
146.993192628878	0.71868896484375
147.003192628853	0.71868896484375
147.013192628827	0.71868896484375
147.023192628802	0.71868896484375
147.033192628777	0.71868896484375
147.043192628752	0.71868896484375
147.053192628726	0.71868896484375
147.063192628701	0.71868896484375
147.073192628676	0.71868896484375
147.083192628651	0.71868896484375
147.093192628625	0.71868896484375
147.1031926286	0.71868896484375
147.113192628575	0.71868896484375
147.12319262855	0.71868896484375
147.133192628524	0.71868896484375
147.143192628499	0.71868896484375
147.153192628474	0.71868896484375
147.163192628449	0.71868896484375
147.173192628423	0.71868896484375
147.183192628398	0.71868896484375
147.193192628373	0.71868896484375
147.203192628348	0.71868896484375
147.213192628322	0.71868896484375
147.223192628297	0.71868896484375
147.233192628272	0.71868896484375
147.243192628247	0.71868896484375
147.253192628221	0.71868896484375
147.263192628196	0.71868896484375
147.273192628171	0.71868896484375
147.283192628146	0.71868896484375
147.29319262812	0.71868896484375
147.303192628095	0.71868896484375
147.31319262807	0.71868896484375
147.323192628045	0.71868896484375
147.333192628019	0.71868896484375
147.343192627994	0.71868896484375
147.353192627969	0.71868896484375
147.363192627944	0.71868896484375
147.373192627918	0.71868896484375
147.383192627893	0.71868896484375
147.393192627868	0.71868896484375
147.403192627843	0.71868896484375
147.413192627817	0.71868896484375
147.423192627792	0.71868896484375
147.433192627767	0.71868896484375
147.443192627742	0.71868896484375
147.453192627716	0.71868896484375
147.463192627691	0.71868896484375
147.473192627666	0.71868896484375
147.483192627641	0.71868896484375
147.493192627615	0.71868896484375
147.50319262759	0.71868896484375
147.513192627565	0.71868896484375
147.52319262754	0.71868896484375
147.533192627514	0.71868896484375
147.543192627489	0.71868896484375
147.553192627464	0.71868896484375
147.563192627439	0.71868896484375
147.573192627414	0.71868896484375
147.583192627388	0.71868896484375
147.593192627363	0.71868896484375
147.603192627338	0.71868896484375
147.613192627313	0.71868896484375
147.623192627287	0.71868896484375
147.633192627262	0.71868896484375
147.643192627237	0.71868896484375
147.653192627212	0.71868896484375
147.663192627186	0.71868896484375
147.673192627161	0.71868896484375
147.683192627136	0.71868896484375
147.693192627111	0.71868896484375
147.703192627085	0.71868896484375
147.71319262706	0.71868896484375
147.723192627035	0.71868896484375
147.73319262701	0.71868896484375
147.743192626984	0.71868896484375
147.753192626959	0.71868896484375
147.763192626934	0.71868896484375
147.773192626909	0.71868896484375
147.783192626883	0.71868896484375
147.793192626858	0.71868896484375
147.803192626833	0.71868896484375
147.813192626808	0.71868896484375
147.823192626782	0.71868896484375
147.833192626757	0.71868896484375
147.843192626732	0.71868896484375
147.853192626707	0.71868896484375
147.863192626681	0.71868896484375
147.873192626656	0.71868896484375
147.883192626631	0.71868896484375
147.893192626606	0.71868896484375
147.90319262658	0.71868896484375
147.913192626555	0.71868896484375
147.92319262653	0.71868896484375
147.933192626505	0.71868896484375
147.943192626479	0.71868896484375
147.953192626454	0.71868896484375
147.963192626429	0.71868896484375
147.973192626404	0.71868896484375
147.983192626378	0.71868896484375
147.993192626353	0.71868896484375
148.003192626328	0.71868896484375
148.013192626303	0.71868896484375
148.023192626277	0.71868896484375
148.033192626252	0.71868896484375
148.043192626227	0.71868896484375
148.053192626202	0.71868896484375
148.063192626176	0.71868896484375
148.073192626151	0.71868896484375
148.083192626126	0.71868896484375
148.093192626101	0.71868896484375
148.103192626075	0.71868896484375
148.11319262605	0.71868896484375
148.123192626025	0.71868896484375
148.133192626	0.71868896484375
148.143192625974	0.71868896484375
148.153192625949	0.71868896484375
148.163192625924	0.71868896484375
148.173192625899	0.71868896484375
148.183192625873	0.71868896484375
148.193192625848	0.71868896484375
148.203192625823	0.71868896484375
148.213192625798	0.71868896484375
148.223192625772	0.71868896484375
148.233192625747	0.71868896484375
148.243192625722	0.71868896484375
148.253192625697	0.71868896484375
148.263192625671	0.71868896484375
148.273192625646	0.71868896484375
148.283192625621	0.71868896484375
148.293192625596	0.71868896484375
148.30319262557	0.71868896484375
148.313192625545	0.71868896484375
148.32319262552	0.71868896484375
148.333192625495	0.71868896484375
148.343192625469	0.71868896484375
148.353192625444	0.71868896484375
148.363192625419	0.71868896484375
148.373192625394	0.71868896484375
148.383192625368	0.71868896484375
148.393192625343	0.71868896484375
148.403192625318	0.71868896484375
148.413192625293	0.71868896484375
148.423192625267	0.71868896484375
148.433192625242	0.71868896484375
148.443192625217	0.71868896484375
148.453192625192	0.71868896484375
148.463192625166	0.71868896484375
148.473192625141	0.71868896484375
148.483192625116	0.71868896484375
148.493192625091	0.71868896484375
148.503192625065	0.71868896484375
148.51319262504	0.71868896484375
148.523192625015	0.71868896484375
148.53319262499	0.71868896484375
148.543192624964	0.71868896484375
148.553192624939	0.71868896484375
148.563192624914	0.71868896484375
148.573192624889	0.71868896484375
148.583192624863	0.71868896484375
148.593192624838	0.71868896484375
148.603192624813	0.71868896484375
148.613192624788	0.71868896484375
148.623192624763	0.71868896484375
148.633192624737	0.71868896484375
148.643192624712	0.71868896484375
148.653192624687	0.71868896484375
148.663192624662	0.71868896484375
148.673192624636	0.71868896484375
148.683192624611	0.71868896484375
148.693192624586	0.71868896484375
148.703192624561	0.71868896484375
148.713192624535	0.71868896484375
148.72319262451	0.71868896484375
148.733192624485	0.71868896484375
148.74319262446	0.71868896484375
148.753192624434	0.71868896484375
148.763192624409	0.71868896484375
148.773192624384	0.71868896484375
148.783192624359	0.71868896484375
148.793192624333	0.71868896484375
148.803192624308	0.71868896484375
148.813192624283	0.71868896484375
148.823192624258	0.71868896484375
148.833192624232	0.71868896484375
148.843192624207	0.71868896484375
148.853192624182	0.71868896484375
148.863192624157	0.71868896484375
148.873192624131	0.71868896484375
148.883192624106	0.71868896484375
148.893192624081	0.71868896484375
148.903192624056	0.71868896484375
148.91319262403	0.71868896484375
148.923192624005	0.71868896484375
148.93319262398	0.71868896484375
148.943192623955	0.71868896484375
148.953192623929	0.71868896484375
148.963192623904	0.71868896484375
148.973192623879	0.71868896484375
148.983192623854	0.71868896484375
148.993192623828	0.71868896484375
149.003192623803	0.71868896484375
149.013192623778	0.71868896484375
149.023192623753	0.71868896484375
149.033192623727	0.71868896484375
149.043192623702	0.71868896484375
149.053192623677	0.71868896484375
149.063192623652	0.71868896484375
149.073192623626	0.71868896484375
149.083192623601	0.71868896484375
149.093192623576	0.71868896484375
149.103192623551	0.71868896484375
149.113192623525	0.71868896484375
149.1231926235	0.71868896484375
149.133192623475	0.71868896484375
149.14319262345	0.71868896484375
149.153192623424	0.71868896484375
149.163192623399	0.71868896484375
149.173192623374	0.71868896484375
149.183192623349	0.71868896484375
149.193192623323	0.71868896484375
149.203192623298	0.71868896484375
149.213192623273	0.71868896484375
149.223192623248	0.71868896484375
149.233192623222	0.71868896484375
149.243192623197	0.71868896484375
149.253192623172	0.71868896484375
149.263192623147	0.71868896484375
149.273192623121	0.71868896484375
149.283192623096	0.71868896484375
149.293192623071	0.71868896484375
149.303192623046	0.71868896484375
149.31319262302	0.71868896484375
149.323192622995	0.71868896484375
149.33319262297	0.71868896484375
149.343192622945	0.71868896484375
149.353192622919	0.71868896484375
149.363192622894	0.71868896484375
149.373192622869	0.71868896484375
149.383192622844	0.71868896484375
149.393192622818	0.71868896484375
149.403192622793	0.71868896484375
149.413192622768	0.71868896484375
149.423192622743	0.71868896484375
149.433192622717	0.71868896484375
149.443192622692	0.71868896484375
149.453192622667	0.71868896484375
149.463192622642	0.71868896484375
149.473192622616	0.71868896484375
149.483192622591	0.71868896484375
149.493192622566	0.71868896484375
149.503192622541	0.71868896484375
149.513192622515	0.71868896484375
