Potential applied (V)	WE(1).Current (A)	Time (s)
0.004425048828125	-0.0009503173828125	3037.9938243298
0.00885009765625	-0.000407623291015625	3038.43632932869
0.013275146484375	1.17340087890625E-05	3038.87883432757
0.0177001953125	0.000341064453125	3039.32133932645
0.022125244140625	0.00060333251953125	3039.76384432533
0.02655029296875	0.00081512451171875	3040.20634932422
0.030975341796875	0.00098602294921875	3040.6488543231
0.035400390625	0.00112640380859375	3041.09135932198
0.039825439453125	0.00124114990234375	3041.53386432087
0.04425048828125	0.0013348388671875	3041.97636931975
0.048675537109375	0.0014129638671875	3042.41887431863
0.0531005859375	0.00147735595703125	3042.86137931751
0.057525634765625	0.00153106689453125	3043.3038843164
0.06195068359375	0.00157501220703125	3043.74638931528
0.066375732421875	0.00161163330078125	3044.18889431416
0.07080078125	0.0016424560546875	3044.63139931304
0.075225830078125	0.00166778564453125	3045.07390431193
0.07965087890625	0.00168792724609375	3045.51640931081
0.084075927734375	0.0017059326171875	3045.95891430969
0.0885009765625	0.00171966552734375	3046.40141930858
0.092926025390625	0.00173187255859375	3046.84392430746
0.09735107421875	0.00174163818359375	3047.28642930634
0.101776123046875	0.00174957275390625	3047.72893430522
0.106201171875	0.00175567626953125	3048.17143930411
0.110626220703125	0.00176116943359375	3048.61394430299
0.11505126953125	0.0017645263671875	3049.05644930187
0.119476318359375	0.00176513671875	3049.49895430076
0.1239013671875	0.0017681884765625	3049.94145929964
0.128326416015625	0.00177032470703125	3050.38396429852
0.13275146484375	0.00177154541015625	3050.8264692974
0.137176513671875	0.00177215576171875	3051.26897429629
0.1416015625	0.0017724609375	3051.71147929517
0.146026611328125	0.0017724609375	3052.15398429405
0.15045166015625	0.0017724609375	3052.59648929293
0.154876708984375	0.0017724609375	3053.03899429182
0.1593017578125	0.001771240234375	3053.4814992907
0.163726806640625	0.00177093505859375	3053.92400428958
0.16815185546875	0.0017706298828125	3054.36650928847
0.172576904296875	0.0017706298828125	3054.80901428735
0.177001953125	0.00177032470703125	3055.25151928623
0.181427001953125	0.00177032470703125	3055.69402428511
0.18585205078125	0.00176971435546875	3056.136529284
0.190277099609375	0.00176971435546875	3056.57903428288
0.1947021484375	0.00176971435546875	3057.02153928176
0.199127197265625	0.00176971435546875	3057.46404428065
0.20355224609375	0.0017694091796875	3057.90654927953
0.207977294921875	0.00177032470703125	3058.34905427841
0.21240234375	0.0017706298828125	3058.79155927729
0.216827392578125	0.001771240234375	3059.23406427618
0.22125244140625	0.00177215576171875	3059.67656927506
0.225677490234375	0.0017730712890625	3060.11907427394
0.2301025390625	0.0017742919921875	3060.56157927282
0.234527587890625	0.00177520751953125	3061.00408427171
0.23895263671875	0.00177734375	3061.44658927059
0.243377685546875	0.001778564453125	3061.88909426947
0.247802734375	0.00177947998046875	3062.33159926836
0.252227783203125	0.001781005859375	3062.77410426724
0.25665283203125	0.0017822265625	3063.21660926612
0.261077880859375	0.0017840576171875	3063.659114265
0.2655029296875	0.001785888671875	3064.10161926389
0.269927978515625	0.00178863525390625	3064.54412426277
0.27435302734375	0.00179046630859375	3064.98662926165
0.278778076171875	0.00179229736328125	3065.42913426054
0.283203125	0.00179443359375	3065.87163925942
0.287628173828125	0.001796875	3066.3141442583
0.29205322265625	0.00179962158203125	3066.75664925718
0.296478271484375	0.00180206298828125	3067.19915425607
0.3009033203125	0.00180419921875	3067.64165925495
0.305328369140625	0.00180694580078125	3068.08416425383
0.30975341796875	0.00180999755859375	3068.52666925271
0.314178466796875	0.0018157958984375	3068.9691742516
0.318603515625	0.00181732177734375	3069.41167925048
0.323028564453125	0.001820068359375	3069.85418424936
0.32745361328125	0.0018231201171875	3070.29668924825
0.331878662109375	0.0018255615234375	3070.73919424713
0.3363037109375	0.00182769775390625	3071.18169924601
0.340728759765625	0.001829833984375	3071.62420424489
0.34515380859375	0.0018328857421875	3072.06670924378
0.349578857421875	0.001834716796875	3072.50921424266
0.35400390625	0.00183563232421875	3072.95171924154
0.358428955078125	0.00183837890625	3073.39422424043
0.36285400390625	0.0018408203125	3073.83672923931
0.367279052734375	0.00184295654296875	3074.27923423819
0.3717041015625	0.0018450927734375	3074.72173923707
0.376129150390625	0.001846923828125	3075.16424423596
0.38055419921875	0.00184844970703125	3075.60674923484
0.384979248046875	0.00184967041015625	3076.04925423372
0.389404296875	0.00185089111328125	3076.49175923261
0.393829345703125	0.0018505859375	3076.93426423149
0.39825439453125	0.0018511962890625	3077.37676923037
0.402679443359375	0.00185150146484375	3077.81927422925
0.4071044921875	0.001851806640625	3078.26177922814
0.411529541015625	0.001851806640625	3078.70428422702
0.41595458984375	0.00185211181640625	3079.1467892259
0.420379638671875	0.001851806640625	3079.58929422478
0.4248046875	0.00185150146484375	3080.03179922367
0.429229736328125	0.0018511962890625	3080.47430422255
0.43365478515625	0.00185089111328125	3080.91680922143
0.438079833984375	0.0018499755859375	3081.35931422032
0.4425048828125	0.00184967041015625	3081.8018192192
0.446929931640625	0.00184967041015625	3082.24432421808
0.45135498046875	0.0018487548828125	3082.68682921696
0.455780029296875	0.00184814453125	3083.12933421585
0.460205078125	0.00184783935546875	3083.57183921473
0.464630126953125	0.001846923828125	3084.01434421361
0.46905517578125	0.0018450927734375	3084.45684921249
0.473480224609375	0.00184417724609375	3084.89935421138
0.4779052734375	0.00184295654296875	3085.34185921026
0.482330322265625	0.00184173583984375	3085.78436420914
0.48675537109375	0.0018408203125	3086.22686920803
0.491180419921875	0.00183929443359375	3086.66937420691
0.49560546875	0.0018377685546875	3087.11187920579
0.500030517578125	0.00183563232421875	3087.55438420467
0.50445556640625	0.0018341064453125	3087.99688920356
0.508880615234375	0.001832275390625	3088.43939420244
0.5133056640625	0.00183013916015625	3088.88189920132
0.517730712890625	0.00182830810546875	3089.32440420021
0.52215576171875	0.0018267822265625	3089.76690919909
0.526580810546875	0.00182525634765625	3090.20941419797
0.531005859375	0.00182342529296875	3090.65191919685
0.535430908203125	0.001822509765625	3091.09442419574
0.53985595703125	0.0018206787109375	3091.53692919462
0.544281005859375	0.001820068359375	3091.9794341935
0.5487060546875	0.00181793212890625	3092.42193919239
0.553131103515625	0.0018170166015625	3092.86444419127
0.55755615234375	0.00181671142578125	3093.30694919015
0.561981201171875	0.00181640625	3093.74945418903
0.56640625	0.00181640625	3094.19195918792
0.570831298828125	0.00181610107421875	3094.6344641868
0.57525634765625	0.0018170166015625	3095.07696918568
0.579681396484375	0.0018170166015625	3095.51947418456
0.5841064453125	0.0018182373046875	3095.96197918345
0.588531494140625	0.001817626953125	3096.40448418233
0.59295654296875	0.00181976318359375	3096.84698918121
0.597381591796875	0.0018218994140625	3097.2894941801
0.601806640625	0.00182464599609375	3097.73199917898
0.606231689453125	0.00182647705078125	3098.17450417786
0.61065673828125	0.00182952880859375	3098.61700917674
0.615081787109375	0.00183197021484375	3099.05951417563
0.6195068359375	0.0018353271484375	3099.50201917451
0.623931884765625	0.0018389892578125	3099.94452417339
0.62835693359375	0.00184661865234375	3100.38702917228
0.632781982421875	0.00185028076171875	3100.82953417116
0.63720703125	0.0018536376953125	3101.27203917004
0.641632080078125	0.00185821533203125	3101.71454416892
0.64605712890625	0.00186279296875	3102.15704916781
0.650482177734375	0.0018682861328125	3102.59955416669
0.6549072265625	0.00187347412109375	3103.04205916557
0.659332275390625	0.00187957763671875	3103.48456416445
0.66375732421875	0.00188568115234375	3103.92706916334
0.668182373046875	0.00189239501953125	3104.36957416222
0.672607421875	0.0018994140625	3104.8120791611
0.677032470703125	0.00190673828125	3105.25458415999
0.68145751953125	0.00191497802734375	3105.69708915887
0.685882568359375	0.001922607421875	3106.13959415775
0.6903076171875	0.00193145751953125	3106.58209915663
0.694732666015625	0.00194000244140625	3107.02460415552
0.69915771484375	0.00194915771484375	3107.4671091544
0.703582763671875	0.0019580078125	3107.90961415328
0.7080078125	0.0019683837890625	3108.35211915217
0.712432861328125	0.00197906494140625	3108.79462415105
0.71685791015625	0.00198974609375	3109.23712914993
0.721282958984375	0.00200042724609375	3109.67963414881
0.7257080078125	0.0020123291015625	3110.1221391477
0.730133056640625	0.0020245361328125	3110.56464414658
0.73455810546875	0.002037353515625	3111.00714914546
0.738983154296875	0.00205047607421875	3111.44965414435
0.743408203125	0.0020623779296875	3111.89215914323
0.747833251953125	0.00207733154296875	3112.33466414211
0.75225830078125	0.00209228515625	3112.77716914099
0.756683349609375	0.002108154296875	3113.21967413988
0.7611083984375	0.00212432861328125	3113.66217913876
0.765533447265625	0.00214141845703125	3114.10468413764
0.76995849609375	0.00215911865234375	3114.54718913652
0.774383544921875	0.002177734375	3114.98969413541
0.77880859375	0.002197265625	3115.43219913429
0.783233642578125	0.00221710205078125	3115.87470413317
0.78765869140625	0.00223846435546875	3116.31720913206
0.792083740234375	0.00226043701171875	3116.75971413094
0.7965087890625	0.002283935546875	3117.20221912982
0.800933837890625	0.0023077392578125	3117.6447241287
0.80535888671875	0.0023333740234375	3118.08722912759
0.809783935546875	0.0023590087890625	3118.52973412647
0.814208984375	0.0023870849609375	3118.97223912535
0.818634033203125	0.002415771484375	3119.41474412423
0.82305908203125	0.0024456787109375	3119.85724912312
0.827484130859375	0.002476806640625	3120.299754122
0.8319091796875	0.002508544921875	3120.74225912088
0.836334228515625	0.002542724609375	3121.18476411977
0.84075927734375	0.00257781982421875	3121.62726911865
0.845184326171875	0.0026141357421875	3122.06977411753
0.849609375	0.0026519775390625	3122.51227911641
0.854034423828125	0.0026910400390625	3122.9547841153
0.85845947265625	0.00273223876953125	3123.39728911418
0.862884521484375	0.0027734375	3123.83979411306
0.8673095703125	0.0028167724609375	3124.28229911195
0.871734619140625	0.00286163330078125	3124.72480411083
0.87615966796875	0.00290985107421875	3125.16730910971
0.880584716796875	0.00295745849609375	3125.60981410859
0.885009765625	0.00300689697265625	3126.05231910748
0.889434814453125	0.0030572509765625	3126.49482410636
0.89385986328125	0.0031103515625	3126.93732910524
0.898284912109375	0.0031640625	3127.37983410412
0.9027099609375	0.00321868896484375	3127.82233910301
0.907135009765625	0.00327484130859375	3128.26484410189
0.91156005859375	0.00333221435546875	3128.70734910077
0.915985107421875	0.0033905029296875	3129.14985409966
0.92041015625	0.00344940185546875	3129.59235909854
0.924835205078125	0.0035107421875	3130.03486409742
0.92926025390625	0.00357177734375	3130.4773690963
0.933685302734375	0.0036334228515625	3130.91987409519
0.9381103515625	0.00369903564453125	3131.36237909407
0.942535400390625	0.0037615966796875	3131.80488409295
0.94696044921875	0.0038250732421875	3132.24738909184
0.951385498046875	0.0038897705078125	3132.68989409072
0.955810546875	0.00395416259765625	3133.1323990896
0.960235595703125	0.00401947021484375	3133.57490408848
0.96466064453125	0.004085693359375	3134.01740908737
0.969085693359375	0.00415283203125	3134.45991408625
0.9735107421875	0.0042205810546875	3134.90241908513
0.977935791015625	0.0042877197265625	3135.34492408402
0.98236083984375	0.00436004638671875	3135.7874290829
0.986785888671875	0.00443359375	3136.22993408178
0.9912109375	0.00451080322265625	3136.67243908066
0.995635986328125	0.004591064453125	3137.11494407955
1.00006103515625	0.0046746826171875	3137.55744907843
0.995635986328125	0.00389312744140625	3137.99995407731
0.9912109375	0.003265380859375	3138.44245907619
0.986785888671875	0.00273956298828125	3138.88496407508
0.98236083984375	0.00228912353515625	3139.32746907396
0.977935791015625	0.001895751953125	3139.76997407284
0.9735107421875	0.0015509033203125	3140.21247907173
0.969085693359375	0.001241455078125	3140.65498407061
0.96466064453125	0.0009637451171875	3141.09748906949
0.960235595703125	0.000714111328125	3141.53999406837
0.955810546875	0.000487884521484375	3141.98249906726
0.951385498046875	0.00028271484375	3142.42500406614
0.94696044921875	9.6343994140625E-05	3142.86750906502
0.942535400390625	-7.3883056640625E-05	3143.31001406391
0.9381103515625	-0.000229644775390625	3143.75251906279
0.933685302734375	-0.000374664306640625	3144.19502406167
0.92926025390625	-0.000504730224609375	3144.63752906055
0.924835205078125	-0.000623687744140625	3145.08003405944
0.92041015625	-0.0007342529296875	3145.52253905832
0.915985107421875	-0.0008355712890625	3145.9650440572
0.91156005859375	-0.00092987060546875	3146.40754905608
0.907135009765625	-0.00101654052734375	3146.85005405497
0.9027099609375	-0.00109649658203125	3147.29255905385
0.898284912109375	-0.001170654296875	3147.73506405273
0.89385986328125	-0.00123931884765625	3148.17756905162
0.889434814453125	-0.00130279541015625	3148.6200740505
0.885009765625	-0.00136138916015625	3149.06257904938
0.880584716796875	-0.0014154052734375	3149.50508404826
0.87615966796875	-0.001466064453125	3149.94758904715
0.871734619140625	-0.0015118408203125	3150.39009404603
0.8673095703125	-0.001553955078125	3150.83259904491
0.862884521484375	-0.00159332275390625	3151.2751040438
0.85845947265625	-0.00162750244140625	3151.71760904268
0.854034423828125	-0.00166015625	3152.16011404156
0.849609375	-0.00169097900390625	3152.60261904044
0.845184326171875	-0.00171783447265625	3153.04512403933
0.84075927734375	-0.0017425537109375	3153.48762903821
0.836334228515625	-0.0017657470703125	3153.93013403709
0.8319091796875	-0.00178619384765625	3154.37263903597
0.827484130859375	-0.00180450439453125	3154.81514403486
0.82305908203125	-0.00182098388671875	3155.25764903374
0.818634033203125	-0.0018365478515625	3155.70015403262
0.814208984375	-0.0018499755859375	3156.14265903151
0.809783935546875	-0.0018621826171875	3156.58516403039
0.80535888671875	-0.0018731689453125	3157.02766902927
0.800933837890625	-0.0018829345703125	3157.47017402815
0.7965087890625	-0.00189117431640625	3157.91267902704
0.792083740234375	-0.001898193359375	3158.35518402592
0.78765869140625	-0.001904296875	3158.7976890248
0.783233642578125	-0.0019097900390625	3159.24019402369
0.77880859375	-0.0019134521484375	3159.68269902257
0.774383544921875	-0.00191650390625	3160.12520402145
0.76995849609375	-0.0019195556640625	3160.56770902033
0.765533447265625	-0.00192108154296875	3161.01021401922
0.7611083984375	-0.001922607421875	3161.4527190181
0.756683349609375	-0.00192291259765625	3161.89522401698
0.75225830078125	-0.00192230224609375	3162.33772901586
0.747833251953125	-0.00192169189453125	3162.78023401475
0.743408203125	-0.00191986083984375	3163.22273901363
0.738983154296875	-0.00191619873046875	3163.66524401251
0.73455810546875	-0.0019140625	3164.1077490114
0.730133056640625	-0.00191162109375	3164.55025401028
0.7257080078125	-0.00190887451171875	3164.99275900916
0.721282958984375	-0.001905517578125	3165.43526400804
0.71685791015625	-0.00190155029296875	3165.87776900693
0.712432861328125	-0.00189697265625	3166.32027400581
0.7080078125	-0.0018927001953125	3166.76277900469
0.703582763671875	-0.00188812255859375	3167.20528400358
0.69915771484375	-0.00188232421875	3167.64778900246
0.694732666015625	-0.00187713623046875	3168.09029400134
0.6903076171875	-0.0018719482421875	3168.53279900022
0.685882568359375	-0.00186614990234375	3168.97530399911
0.68145751953125	-0.0018603515625	3169.41780899799
0.677032470703125	-0.001854248046875	3169.86031399687
0.672607421875	-0.00184783935546875	3170.30281899575
0.668182373046875	-0.00184234619140625	3170.74532399464
0.66375732421875	-0.00183624267578125	3171.18782899352
0.659332275390625	-0.0018310546875	3171.6303339924
0.6549072265625	-0.0018255615234375	3172.07283899129
0.650482177734375	-0.00181976318359375	3172.51534399017
0.64605712890625	-0.00181427001953125	3172.95784898905
0.641632080078125	-0.00180938720703125	3173.40035398793
0.63720703125	-0.00180450439453125	3173.84285898682
0.632781982421875	-0.00180023193359375	3174.2853639857
0.62835693359375	-0.001795654296875	3174.72786898458
0.623931884765625	-0.0017950439453125	3175.17037398347
0.6195068359375	-0.00179046630859375	3175.61287898235
0.615081787109375	-0.0017864990234375	3176.05538398123
0.61065673828125	-0.0017828369140625	3176.49788898011
0.606231689453125	-0.00177947998046875	3176.940393979
0.601806640625	-0.00177642822265625	3177.38289897788
0.597381591796875	-0.0017742919921875	3177.82540397676
0.59295654296875	-0.0017718505859375	3178.26790897564
0.588531494140625	-0.0017706298828125	3178.71041397453
0.5841064453125	-0.00176727294921875	3179.15291897341
0.579681396484375	-0.001766357421875	3179.59542397229
0.57525634765625	-0.00176605224609375	3180.03792897118
0.570831298828125	-0.0017657470703125	3180.48043397006
0.56640625	-0.00176605224609375	3180.92293896894
0.561981201171875	-0.0017657470703125	3181.36544396782
0.55755615234375	-0.001766357421875	3181.80794896671
0.553131103515625	-0.00176666259765625	3182.25045396559
0.5487060546875	-0.001767578125	3182.69295896447
0.544281005859375	-0.00176788330078125	3183.13546396336
0.53985595703125	-0.00177032470703125	3183.57796896224
0.535430908203125	-0.0017718505859375	3184.02047396112
0.531005859375	-0.00177398681640625	3184.46297896
0.526580810546875	-0.00177581787109375	3184.90548395889
0.52215576171875	-0.00177886962890625	3185.34798895777
0.517730712890625	-0.0017816162109375	3185.79049395665
0.5133056640625	-0.00178436279296875	3186.23299895554
0.508880615234375	-0.00178741455078125	3186.67550395442
0.50445556640625	-0.0017901611328125	3187.1180089533
0.500030517578125	-0.00179412841796875	3187.56051395218
0.49560546875	-0.00179779052734375	3188.00301895107
0.491180419921875	-0.0018017578125	3188.44552394995
0.48675537109375	-0.0018060302734375	3188.88802894883
0.482330322265625	-0.00180999755859375	3189.33053394771
0.4779052734375	-0.00181427001953125	3189.7730389466
0.473480224609375	-0.00181884765625	3190.21554394548
0.46905517578125	-0.00182281494140625	3190.65804894436
0.464630126953125	-0.00182708740234375	3191.10055394325
0.460205078125	-0.00183197021484375	3191.54305894213
0.455780029296875	-0.0018359375	3191.98556394101
0.45135498046875	-0.00184112548828125	3192.42806893989
0.446929931640625	-0.001845703125	3192.87057393878
0.4425048828125	-0.00185028076171875	3193.31307893766
0.438079833984375	-0.0018548583984375	3193.75558393654
0.43365478515625	-0.00186004638671875	3194.19808893542
0.429229736328125	-0.00186431884765625	3194.64059393431
0.4248046875	-0.001868896484375	3195.08309893319
0.420379638671875	-0.001873779296875	3195.52560393207
0.41595458984375	-0.00187744140625	3195.96810893096
0.411529541015625	-0.00188201904296875	3196.41061392984
0.4071044921875	-0.00188629150390625	3196.85311892872
0.402679443359375	-0.001890869140625	3197.2956239276
0.39825439453125	-0.0018951416015625	3197.73812892649
0.393829345703125	-0.00189910888671875	3198.18063392537
0.389404296875	-0.001903076171875	3198.62313892425
0.384979248046875	-0.00190704345703125	3199.06564392314
0.38055419921875	-0.00191192626953125	3199.50814892202
0.376129150390625	-0.00191650390625	3199.9506539209
0.3717041015625	-0.00192108154296875	3200.39315891978
