Potential applied (V)	WE(1).Current (A)	Time (s)
0.004425048828125	-0.0009503173828125	3037.9938243298
0.00885009765625	-0.000407623291015625	3038.43632932869
0.013275146484375	1.17340087890625E-05	3038.87883432757
0.0177001953125	0.000341064453125	3039.32133932645
0.022125244140625	0.00060333251953125	3039.76384432533
0.02655029296875	0.00081512451171875	3040.20634932422
0.030975341796875	0.00098602294921875	3040.6488543231
0.035400390625	0.00112640380859375	3041.09135932198
0.039825439453125	0.00124114990234375	3041.53386432087
0.04425048828125	0.0013348388671875	3041.97636931975
0.048675537109375	0.0014129638671875	3042.41887431863
0.0531005859375	0.00147735595703125	3042.86137931751
0.057525634765625	0.00153106689453125	3043.3038843164
0.06195068359375	0.00157501220703125	3043.74638931528
0.066375732421875	0.00161163330078125	3044.18889431416
0.07080078125	0.0016424560546875	3044.63139931304
0.075225830078125	0.00166778564453125	3045.07390431193
0.07965087890625	0.00168792724609375	3045.51640931081
0.084075927734375	0.0017059326171875	3045.95891430969
0.0885009765625	0.00171966552734375	3046.40141930858
0.092926025390625	0.00173187255859375	3046.84392430746
0.09735107421875	0.00174163818359375	3047.28642930634
0.101776123046875	0.00174957275390625	3047.72893430522
0.106201171875	0.00175567626953125	3048.17143930411
0.110626220703125	0.00176116943359375	3048.61394430299
0.11505126953125	0.0017645263671875	3049.05644930187
0.119476318359375	0.00176513671875	3049.49895430076
0.1239013671875	0.0017681884765625	3049.94145929964
0.128326416015625	0.00177032470703125	3050.38396429852
0.13275146484375	0.00177154541015625	3050.8264692974
0.137176513671875	0.00177215576171875	3051.26897429629
0.1416015625	0.0017724609375	3051.71147929517
0.146026611328125	0.0017724609375	3052.15398429405
0.15045166015625	0.0017724609375	3052.59648929293
0.154876708984375	0.0017724609375	3053.03899429182
0.1593017578125	0.001771240234375	3053.4814992907
0.163726806640625	0.00177093505859375	3053.92400428958
0.16815185546875	0.0017706298828125	3054.36650928847
0.172576904296875	0.0017706298828125	3054.80901428735
0.177001953125	0.00177032470703125	3055.25151928623
0.181427001953125	0.00177032470703125	3055.69402428511
0.18585205078125	0.00176971435546875	3056.136529284
0.190277099609375	0.00176971435546875	3056.57903428288
0.1947021484375	0.00176971435546875	3057.02153928176
0.199127197265625	0.00176971435546875	3057.46404428065
0.20355224609375	0.0017694091796875	3057.90654927953
0.207977294921875	0.00177032470703125	3058.34905427841
0.21240234375	0.0017706298828125	3058.79155927729
0.216827392578125	0.001771240234375	3059.23406427618
0.22125244140625	0.00177215576171875	3059.67656927506
0.225677490234375	0.0017730712890625	3060.11907427394
0.2301025390625	0.0017742919921875	3060.56157927282
0.234527587890625	0.00177520751953125	3061.00408427171
0.23895263671875	0.00177734375	3061.44658927059
0.243377685546875	0.001778564453125	3061.88909426947
0.247802734375	0.00177947998046875	3062.33159926836
0.252227783203125	0.001781005859375	3062.77410426724
0.25665283203125	0.0017822265625	3063.21660926612
0.261077880859375	0.0017840576171875	3063.659114265
0.2655029296875	0.001785888671875	3064.10161926389
0.269927978515625	0.00178863525390625	3064.54412426277
0.27435302734375	0.00179046630859375	3064.98662926165
0.278778076171875	0.00179229736328125	3065.42913426054
0.283203125	0.00179443359375	3065.87163925942
0.287628173828125	0.001796875	3066.3141442583
0.29205322265625	0.00179962158203125	3066.75664925718
0.296478271484375	0.00180206298828125	3067.19915425607
0.3009033203125	0.00180419921875	3067.64165925495
0.305328369140625	0.00180694580078125	3068.08416425383
0.30975341796875	0.00180999755859375	3068.52666925271
0.314178466796875	0.0018157958984375	3068.9691742516
0.318603515625	0.00181732177734375	3069.41167925048
0.323028564453125	0.001820068359375	3069.85418424936
0.32745361328125	0.0018231201171875	3070.29668924825
0.331878662109375	0.0018255615234375	3070.73919424713
0.3363037109375	0.00182769775390625	3071.18169924601
0.340728759765625	0.001829833984375	3071.62420424489
0.34515380859375	0.0018328857421875	3072.06670924378
0.349578857421875	0.001834716796875	3072.50921424266
0.35400390625	0.00183563232421875	3072.95171924154
0.358428955078125	0.00183837890625	3073.39422424043
0.36285400390625	0.0018408203125	3073.83672923931
0.367279052734375	0.00184295654296875	3074.27923423819
0.3717041015625	0.0018450927734375	3074.72173923707
0.376129150390625	0.001846923828125	3075.16424423596
0.38055419921875	0.00184844970703125	3075.60674923484
0.384979248046875	0.00184967041015625	3076.04925423372
0.389404296875	0.00185089111328125	3076.49175923261
0.393829345703125	0.0018505859375	3076.93426423149
0.39825439453125	0.0018511962890625	3077.37676923037
0.402679443359375	0.00185150146484375	3077.81927422925
0.4071044921875	0.001851806640625	3078.26177922814
0.411529541015625	0.001851806640625	3078.70428422702
0.41595458984375	0.00185211181640625	3079.1467892259
0.420379638671875	0.001851806640625	3079.58929422478
0.4248046875	0.00185150146484375	3080.03179922367
0.429229736328125	0.0018511962890625	3080.47430422255
0.43365478515625	0.00185089111328125	3080.91680922143
0.438079833984375	0.0018499755859375	3081.35931422032
0.4425048828125	0.00184967041015625	3081.8018192192
0.446929931640625	0.00184967041015625	3082.24432421808
0.45135498046875	0.0018487548828125	3082.68682921696
0.455780029296875	0.00184814453125	3083.12933421585
0.460205078125	0.00184783935546875	3083.57183921473
0.464630126953125	0.001846923828125	3084.01434421361
0.46905517578125	0.0018450927734375	3084.45684921249
0.473480224609375	0.00184417724609375	3084.89935421138
0.4779052734375	0.00184295654296875	3085.34185921026
0.482330322265625	0.00184173583984375	3085.78436420914
0.48675537109375	0.0018408203125	3086.22686920803
0.491180419921875	0.00183929443359375	3086.66937420691
0.49560546875	0.0018377685546875	3087.11187920579
0.500030517578125	0.00183563232421875	3087.55438420467
0.50445556640625	0.0018341064453125	3087.99688920356
0.508880615234375	0.001832275390625	3088.43939420244
0.5133056640625	0.00183013916015625	3088.88189920132
0.517730712890625	0.00182830810546875	3089.32440420021
0.52215576171875	0.0018267822265625	3089.76690919909
0.526580810546875	0.00182525634765625	3090.20941419797
0.531005859375	0.00182342529296875	3090.65191919685
0.535430908203125	0.001822509765625	3091.09442419574
0.53985595703125	0.0018206787109375	3091.53692919462
0.544281005859375	0.001820068359375	3091.9794341935
0.5487060546875	0.00181793212890625	3092.42193919239
0.553131103515625	0.0018170166015625	3092.86444419127
0.55755615234375	0.00181671142578125	3093.30694919015
0.561981201171875	0.00181640625	3093.74945418903
0.56640625	0.00181640625	3094.19195918792
0.570831298828125	0.00181610107421875	3094.6344641868
0.57525634765625	0.0018170166015625	3095.07696918568
0.579681396484375	0.0018170166015625	3095.51947418456
0.5841064453125	0.0018182373046875	3095.96197918345
0.588531494140625	0.001817626953125	3096.40448418233
0.59295654296875	0.00181976318359375	3096.84698918121
0.597381591796875	0.0018218994140625	3097.2894941801
0.601806640625	0.00182464599609375	3097.73199917898
0.606231689453125	0.00182647705078125	3098.17450417786
0.61065673828125	0.00182952880859375	3098.61700917674
0.615081787109375	0.00183197021484375	3099.05951417563
0.6195068359375	0.0018353271484375	3099.50201917451
0.623931884765625	0.0018389892578125	3099.94452417339
0.62835693359375	0.00184661865234375	3100.38702917228
0.632781982421875	0.00185028076171875	3100.82953417116
0.63720703125	0.0018536376953125	3101.27203917004
0.641632080078125	0.00185821533203125	3101.71454416892
0.64605712890625	0.00186279296875	3102.15704916781
0.650482177734375	0.0018682861328125	3102.59955416669
0.6549072265625	0.00187347412109375	3103.04205916557
0.659332275390625	0.00187957763671875	3103.48456416445
0.66375732421875	0.00188568115234375	3103.92706916334
0.668182373046875	0.00189239501953125	3104.36957416222
0.672607421875	0.0018994140625	3104.8120791611
0.677032470703125	0.00190673828125	3105.25458415999
0.68145751953125	0.00191497802734375	3105.69708915887
0.685882568359375	0.001922607421875	3106.13959415775
0.6903076171875	0.00193145751953125	3106.58209915663
0.694732666015625	0.00194000244140625	3107.02460415552
0.69915771484375	0.00194915771484375	3107.4671091544
0.703582763671875	0.0019580078125	3107.90961415328
0.7080078125	0.0019683837890625	3108.35211915217
0.712432861328125	0.00197906494140625	3108.79462415105
0.71685791015625	0.00198974609375	3109.23712914993
0.721282958984375	0.00200042724609375	3109.67963414881
0.7257080078125	0.0020123291015625	3110.1221391477
0.730133056640625	0.0020245361328125	3110.56464414658
0.73455810546875	0.002037353515625	3111.00714914546
0.738983154296875	0.00205047607421875	3111.44965414435
0.743408203125	0.0020623779296875	3111.89215914323
0.747833251953125	0.00207733154296875	3112.33466414211
0.75225830078125	0.00209228515625	3112.77716914099
0.756683349609375	0.002108154296875	3113.21967413988
0.7611083984375	0.00212432861328125	3113.66217913876
0.765533447265625	0.00214141845703125	3114.10468413764
0.76995849609375	0.00215911865234375	3114.54718913652
0.774383544921875	0.002177734375	3114.98969413541
0.77880859375	0.002197265625	3115.43219913429
0.783233642578125	0.00221710205078125	3115.87470413317
0.78765869140625	0.00223846435546875	3116.31720913206
0.792083740234375	0.00226043701171875	3116.75971413094
0.7965087890625	0.002283935546875	3117.20221912982
0.800933837890625	0.0023077392578125	3117.6447241287
0.80535888671875	0.0023333740234375	3118.08722912759
0.809783935546875	0.0023590087890625	3118.52973412647
0.814208984375	0.0023870849609375	3118.97223912535
0.818634033203125	0.002415771484375	3119.41474412423
0.82305908203125	0.0024456787109375	3119.85724912312
0.827484130859375	0.002476806640625	3120.299754122
0.8319091796875	0.002508544921875	3120.74225912088
0.836334228515625	0.002542724609375	3121.18476411977
0.84075927734375	0.00257781982421875	3121.62726911865
0.845184326171875	0.0026141357421875	3122.06977411753
0.849609375	0.0026519775390625	3122.51227911641
0.854034423828125	0.0026910400390625	3122.9547841153
0.85845947265625	0.00273223876953125	3123.39728911418
0.862884521484375	0.0027734375	3123.83979411306
0.8673095703125	0.0028167724609375	3124.28229911195
0.871734619140625	0.00286163330078125	3124.72480411083
0.87615966796875	0.00290985107421875	3125.16730910971
0.880584716796875	0.00295745849609375	3125.60981410859
0.885009765625	0.00300689697265625	3126.05231910748
0.889434814453125	0.0030572509765625	3126.49482410636
0.89385986328125	0.0031103515625	3126.93732910524
0.898284912109375	0.0031640625	3127.37983410412
0.9027099609375	0.00321868896484375	3127.82233910301
0.907135009765625	0.00327484130859375	3128.26484410189
0.91156005859375	0.00333221435546875	3128.70734910077
0.915985107421875	0.0033905029296875	3129.14985409966
0.92041015625	0.00344940185546875	3129.59235909854
0.924835205078125	0.0035107421875	3130.03486409742
0.92926025390625	0.00357177734375	3130.4773690963
0.933685302734375	0.0036334228515625	3130.91987409519
0.9381103515625	0.00369903564453125	3131.36237909407
0.942535400390625	0.0037615966796875	3131.80488409295
0.94696044921875	0.0038250732421875	3132.24738909184
0.951385498046875	0.0038897705078125	3132.68989409072
0.955810546875	0.00395416259765625	3133.1323990896
0.960235595703125	0.00401947021484375	3133.57490408848
0.96466064453125	0.004085693359375	3134.01740908737
0.969085693359375	0.00415283203125	3134.45991408625
0.9735107421875	0.0042205810546875	3134.90241908513
0.977935791015625	0.0042877197265625	3135.34492408402
0.98236083984375	0.00436004638671875	3135.7874290829
0.986785888671875	0.00443359375	3136.22993408178
0.9912109375	0.00451080322265625	3136.67243908066
0.995635986328125	0.004591064453125	3137.11494407955
1.00006103515625	0.0046746826171875	3137.55744907843
0.995635986328125	0.00389312744140625	3137.99995407731
0.9912109375	0.003265380859375	3138.44245907619
0.986785888671875	0.00273956298828125	3138.88496407508
0.98236083984375	0.00228912353515625	3139.32746907396
0.977935791015625	0.001895751953125	3139.76997407284
0.9735107421875	0.0015509033203125	3140.21247907173
0.969085693359375	0.001241455078125	3140.65498407061
0.96466064453125	0.0009637451171875	3141.09748906949
0.960235595703125	0.000714111328125	3141.53999406837
0.955810546875	0.000487884521484375	3141.98249906726
0.951385498046875	0.00028271484375	3142.42500406614
0.94696044921875	9.6343994140625E-05	3142.86750906502
0.942535400390625	-7.3883056640625E-05	3143.31001406391
0.9381103515625	-0.000229644775390625	3143.75251906279
0.933685302734375	-0.000374664306640625	3144.19502406167
0.92926025390625	-0.000504730224609375	3144.63752906055
0.924835205078125	-0.000623687744140625	3145.08003405944
0.92041015625	-0.0007342529296875	3145.52253905832
0.915985107421875	-0.0008355712890625	3145.9650440572
0.91156005859375	-0.00092987060546875	3146.40754905608
0.907135009765625	-0.00101654052734375	3146.85005405497
0.9027099609375	-0.00109649658203125	3147.29255905385
0.898284912109375	-0.001170654296875	3147.73506405273
0.89385986328125	-0.00123931884765625	3148.17756905162
0.889434814453125	-0.00130279541015625	3148.6200740505
0.885009765625	-0.00136138916015625	3149.06257904938
0.880584716796875	-0.0014154052734375	3149.50508404826
0.87615966796875	-0.001466064453125	3149.94758904715
0.871734619140625	-0.0015118408203125	3150.39009404603
0.8673095703125	-0.001553955078125	3150.83259904491
0.862884521484375	-0.00159332275390625	3151.2751040438
0.85845947265625	-0.00162750244140625	3151.71760904268
0.854034423828125	-0.00166015625	3152.16011404156
0.849609375	-0.00169097900390625	3152.60261904044
0.845184326171875	-0.00171783447265625	3153.04512403933
0.84075927734375	-0.0017425537109375	3153.48762903821
0.836334228515625	-0.0017657470703125	3153.93013403709
0.8319091796875	-0.00178619384765625	3154.37263903597
0.827484130859375	-0.00180450439453125	3154.81514403486
0.82305908203125	-0.00182098388671875	3155.25764903374
0.818634033203125	-0.0018365478515625	3155.70015403262
0.814208984375	-0.0018499755859375	3156.14265903151
0.809783935546875	-0.0018621826171875	3156.58516403039
0.80535888671875	-0.0018731689453125	3157.02766902927
0.800933837890625	-0.0018829345703125	3157.47017402815
0.7965087890625	-0.00189117431640625	3157.91267902704
0.792083740234375	-0.001898193359375	3158.35518402592
0.78765869140625	-0.001904296875	3158.7976890248
0.783233642578125	-0.0019097900390625	3159.24019402369
0.77880859375	-0.0019134521484375	3159.68269902257
0.774383544921875	-0.00191650390625	3160.12520402145
0.76995849609375	-0.0019195556640625	3160.56770902033
0.765533447265625	-0.00192108154296875	3161.01021401922
0.7611083984375	-0.001922607421875	3161.4527190181
0.756683349609375	-0.00192291259765625	3161.89522401698
0.75225830078125	-0.00192230224609375	3162.33772901586
0.747833251953125	-0.00192169189453125	3162.78023401475
0.743408203125	-0.00191986083984375	3163.22273901363
0.738983154296875	-0.00191619873046875	3163.66524401251
0.73455810546875	-0.0019140625	3164.1077490114
0.730133056640625	-0.00191162109375	3164.55025401028
0.7257080078125	-0.00190887451171875	3164.99275900916
0.721282958984375	-0.001905517578125	3165.43526400804
0.71685791015625	-0.00190155029296875	3165.87776900693
0.712432861328125	-0.00189697265625	3166.32027400581
0.7080078125	-0.0018927001953125	3166.76277900469
0.703582763671875	-0.00188812255859375	3167.20528400358
0.69915771484375	-0.00188232421875	3167.64778900246
0.694732666015625	-0.00187713623046875	3168.09029400134
0.6903076171875	-0.0018719482421875	3168.53279900022
0.685882568359375	-0.00186614990234375	3168.97530399911
0.68145751953125	-0.0018603515625	3169.41780899799
0.677032470703125	-0.001854248046875	3169.86031399687
0.672607421875	-0.00184783935546875	3170.30281899575
0.668182373046875	-0.00184234619140625	3170.74532399464
0.66375732421875	-0.00183624267578125	3171.18782899352
0.659332275390625	-0.0018310546875	3171.6303339924
0.6549072265625	-0.0018255615234375	3172.07283899129
0.650482177734375	-0.00181976318359375	3172.51534399017
0.64605712890625	-0.00181427001953125	3172.95784898905
0.641632080078125	-0.00180938720703125	3173.40035398793
0.63720703125	-0.00180450439453125	3173.84285898682
0.632781982421875	-0.00180023193359375	3174.2853639857
0.62835693359375	-0.001795654296875	3174.72786898458
0.623931884765625	-0.0017950439453125	3175.17037398347
0.6195068359375	-0.00179046630859375	3175.61287898235
0.615081787109375	-0.0017864990234375	3176.05538398123
0.61065673828125	-0.0017828369140625	3176.49788898011
0.606231689453125	-0.00177947998046875	3176.940393979
0.601806640625	-0.00177642822265625	3177.38289897788
0.597381591796875	-0.0017742919921875	3177.82540397676
0.59295654296875	-0.0017718505859375	3178.26790897564
0.588531494140625	-0.0017706298828125	3178.71041397453
0.5841064453125	-0.00176727294921875	3179.15291897341
0.579681396484375	-0.001766357421875	3179.59542397229
0.57525634765625	-0.00176605224609375	3180.03792897118
0.570831298828125	-0.0017657470703125	3180.48043397006
0.56640625	-0.00176605224609375	3180.92293896894
0.561981201171875	-0.0017657470703125	3181.36544396782
0.55755615234375	-0.001766357421875	3181.80794896671
0.553131103515625	-0.00176666259765625	3182.25045396559
0.5487060546875	-0.001767578125	3182.69295896447
0.544281005859375	-0.00176788330078125	3183.13546396336
0.53985595703125	-0.00177032470703125	3183.57796896224
0.535430908203125	-0.0017718505859375	3184.02047396112
0.531005859375	-0.00177398681640625	3184.46297896
0.526580810546875	-0.00177581787109375	3184.90548395889
0.52215576171875	-0.00177886962890625	3185.34798895777
0.517730712890625	-0.0017816162109375	3185.79049395665
0.5133056640625	-0.00178436279296875	3186.23299895554
0.508880615234375	-0.00178741455078125	3186.67550395442
0.50445556640625	-0.0017901611328125	3187.1180089533
0.500030517578125	-0.00179412841796875	3187.56051395218
0.49560546875	-0.00179779052734375	3188.00301895107
0.491180419921875	-0.0018017578125	3188.44552394995
0.48675537109375	-0.0018060302734375	3188.88802894883
0.482330322265625	-0.00180999755859375	3189.33053394771
0.4779052734375	-0.00181427001953125	3189.7730389466
0.473480224609375	-0.00181884765625	3190.21554394548
0.46905517578125	-0.00182281494140625	3190.65804894436
0.464630126953125	-0.00182708740234375	3191.10055394325
0.460205078125	-0.00183197021484375	3191.54305894213
0.455780029296875	-0.0018359375	3191.98556394101
0.45135498046875	-0.00184112548828125	3192.42806893989
0.446929931640625	-0.001845703125	3192.87057393878
0.4425048828125	-0.00185028076171875	3193.31307893766
0.438079833984375	-0.0018548583984375	3193.75558393654
0.43365478515625	-0.00186004638671875	3194.19808893542
0.429229736328125	-0.00186431884765625	3194.64059393431
0.4248046875	-0.001868896484375	3195.08309893319
0.420379638671875	-0.001873779296875	3195.52560393207
0.41595458984375	-0.00187744140625	3195.96810893096
0.411529541015625	-0.00188201904296875	3196.41061392984
0.4071044921875	-0.00188629150390625	3196.85311892872
0.402679443359375	-0.001890869140625	3197.2956239276
0.39825439453125	-0.0018951416015625	3197.73812892649
0.393829345703125	-0.00189910888671875	3198.18063392537
0.389404296875	-0.001903076171875	3198.62313892425
0.384979248046875	-0.00190704345703125	3199.06564392314
0.38055419921875	-0.00191192626953125	3199.50814892202
0.376129150390625	-0.00191650390625	3199.9506539209
0.3717041015625	-0.00192108154296875	3200.39315891978
0.367279052734375	-0.00192535400390625	3200.83566391867
0.36285400390625	-0.00192962646484375	3201.27816891755
0.358428955078125	-0.0019342041015625	3201.72067391643
0.35400390625	-0.00193878173828125	3202.16317891532
0.349578857421875	-0.0019415283203125	3202.6056839142
0.34515380859375	-0.00194671630859375	3203.04818891308
0.340728759765625	-0.00195220947265625	3203.49069391196
0.3363037109375	-0.0019573974609375	3203.93319891085
0.331878662109375	-0.001962890625	3204.37570390973
0.32745361328125	-0.0019677734375	3204.81820890861
0.323028564453125	-0.0019732666015625	3205.26071390749
0.318603515625	-0.001978759765625	3205.70321890638
0.314178466796875	-0.00198455810546875	3206.14572390526
0.30975341796875	-0.00199310302734375	3206.58822890414
0.305328369140625	-0.00199859619140625	3207.03073390303
0.3009033203125	-0.00200408935546875	3207.47323890191
0.296478271484375	-0.0020098876953125	3207.91574390079
0.29205322265625	-0.0020159912109375	3208.35824889967
0.287628173828125	-0.0020220947265625	3208.80075389856
0.283203125	-0.00202880859375	3209.24325889744
0.278778076171875	-0.0020343017578125	3209.68576389632
0.27435302734375	-0.00204132080078125	3210.12826889521
0.269927978515625	-0.00204803466796875	3210.57077389409
0.2655029296875	-0.0020550537109375	3211.01327889297
0.261077880859375	-0.0020623779296875	3211.45578389185
0.25665283203125	-0.002069091796875	3211.89828889074
0.252227783203125	-0.002076416015625	3212.34079388962
0.247802734375	-0.0020843505859375	3212.7832988885
0.243377685546875	-0.00209136962890625	3213.22580388738
0.23895263671875	-0.0020989990234375	3213.66830888627
0.234527587890625	-0.00210662841796875	3214.11081388515
0.2301025390625	-0.00211334228515625	3214.55331888403
0.225677490234375	-0.00212127685546875	3214.99582388292
0.22125244140625	-0.00212860107421875	3215.4383288818
0.216827392578125	-0.00213653564453125	3215.88083388068
0.21240234375	-0.00214447021484375	3216.32333887956
0.207977294921875	-0.0021527099609375	3216.76584387845
0.20355224609375	-0.00216033935546875	3217.20834887733
0.199127197265625	-0.002169189453125	3217.65085387621
0.1947021484375	-0.00217742919921875	3218.0933588751
0.190277099609375	-0.00218536376953125	3218.53586387398
0.18585205078125	-0.00219451904296875	3218.97836887286
0.181427001953125	-0.0022021484375	3219.42087387174
0.177001953125	-0.00221160888671875	3219.86337887063
0.172576904296875	-0.002220458984375	3220.30588386951
0.16815185546875	-0.00222991943359375	3220.74838886839
0.163726806640625	-0.0022393798828125	3221.19089386728
0.1593017578125	-0.0022491455078125	3221.63339886616
0.154876708984375	-0.0022589111328125	3222.07590386504
0.15045166015625	-0.002269287109375	3222.51840886392
0.146026611328125	-0.0022796630859375	3222.96091386281
0.1416015625	-0.00229095458984375	3223.40341886169
0.137176513671875	-0.00230224609375	3223.84592386057
0.13275146484375	-0.002313232421875	3224.28842885945
0.128326416015625	-0.00232513427734375	3224.73093385834
0.1239013671875	-0.002337646484375	3225.17343885722
0.119476318359375	-0.0023492431640625	3225.6159438561
0.11505126953125	-0.00235992431640625	3226.05844885499
0.110626220703125	-0.00237335205078125	3226.50095385387
0.106201171875	-0.0023870849609375	3226.94345885275
0.101776123046875	-0.002401123046875	3227.38596385163
0.09735107421875	-0.00241485595703125	3227.82846885052
0.092926025390625	-0.00242889404296875	3228.2709738494
0.0885009765625	-0.0024432373046875	3228.71347884828
0.084075927734375	-0.00245758056640625	3229.15598384716
0.07965087890625	-0.0024725341796875	3229.59848884605
0.075225830078125	-0.002486572265625	3230.04099384493
0.07080078125	-0.00250152587890625	3230.48349884381
0.066375732421875	-0.00251708984375	3230.9260038427
0.06195068359375	-0.00253265380859375	3231.36850884158
0.057525634765625	-0.0025482177734375	3231.81101384046
0.0531005859375	-0.00256439208984375	3232.25351883934
0.048675537109375	-0.00258026123046875	3232.69602383823
0.04425048828125	-0.00259613037109375	3233.13852883711
0.039825439453125	-0.0026123046875	3233.58103383599
0.035400390625	-0.0026287841796875	3234.02353883488
0.030975341796875	-0.002645263671875	3234.46604383376
0.02655029296875	-0.00266204833984375	3234.90854883264
0.022125244140625	-0.002679443359375	3235.35105383152
0.0177001953125	-0.00269744873046875	3235.79355883041
0.013275146484375	-0.0027154541015625	3236.23606382929
0.00885009765625	-0.0027337646484375	3236.67856882817
0.004425048828125	-0.002752685546875	3237.12107382705
0	-0.00277313232421875	3237.56357882594
0.004425048828125	-0.00195281982421875	3238.00608382482
0.00885009765625	-0.00131195068359375	3238.4485888237
0.013275146484375	-0.0008001708984375	3238.89109382259
0.0177001953125	-0.0003856201171875	3239.33359882147
0.022125244140625	-4.52880859375E-05	3239.77610382035
0.02655029296875	0.0002362060546875	3240.21860881923
0.030975341796875	0.0004698486328125	3240.66111381812
0.035400390625	0.00066497802734375	3241.103618817
0.039825439453125	0.00082855224609375	3241.54612381588
0.04425048828125	0.00096649169921875	3241.98862881477
0.048675537109375	0.001082763671875	3242.43113381365
0.0531005859375	0.001180419921875	3242.87363881253
0.057525634765625	0.00126251220703125	3243.31614381141
0.06195068359375	0.00133209228515625	3243.7586488103
0.066375732421875	0.001392822265625	3244.20115380918
0.07080078125	0.0014447021484375	3244.64365880806
0.075225830078125	0.00148956298828125	3245.08616380695
0.07965087890625	0.0015264892578125	3245.52866880583
0.084075927734375	0.0015582275390625	3245.97117380471
0.0885009765625	0.0015850830078125	3246.41367880359
0.092926025390625	0.0016082763671875	3246.85618380248
0.09735107421875	0.00162841796875	3247.29868880136
0.101776123046875	0.0016448974609375	3247.74119380024
0.106201171875	0.0016595458984375	3248.18369879912
0.110626220703125	0.00167083740234375	3248.62620379801
0.11505126953125	0.00168121337890625	3249.06870879689
0.119476318359375	0.00168731689453125	3249.51121379577
0.1239013671875	0.00169525146484375	3249.95371879466
0.128326416015625	0.00170135498046875	3250.39622379354
0.13275146484375	0.0017059326171875	3250.83872879242
0.137176513671875	0.00170989990234375	3251.2812337913
0.1416015625	0.0017132568359375	3251.72373879019
0.146026611328125	0.00171630859375	3252.16624378907
0.15045166015625	0.00171783447265625	3252.60874878795
0.154876708984375	0.001719970703125	3253.05125378684
0.1593017578125	0.00172027587890625	3253.49375878572
0.163726806640625	0.00172149658203125	3253.9362637846
0.16815185546875	0.001722412109375	3254.37876878348
0.172576904296875	0.00172332763671875	3254.82127378237
0.177001953125	0.0017236328125	3255.26377878125
0.181427001953125	0.0017242431640625	3255.70628378013
0.18585205078125	0.0017242431640625	3256.14878877901
0.190277099609375	0.001724853515625	3256.5912937779
0.1947021484375	0.001724853515625	3257.03379877678
0.199127197265625	0.00172515869140625	3257.47630377566
0.20355224609375	0.00172515869140625	3257.91880877455
0.207977294921875	0.00172576904296875	3258.36131377343
0.21240234375	0.00172637939453125	3258.80381877231
0.216827392578125	0.001727294921875	3259.24632377119
0.22125244140625	0.00172821044921875	3259.68882877008
0.225677490234375	0.0017291259765625	3260.13133376896
0.2301025390625	0.00173004150390625	3260.57383876784
0.234527587890625	0.00173004150390625	3261.01634376673
0.23895263671875	0.00173126220703125	3261.45884876561
0.243377685546875	0.001732177734375	3261.90135376449
0.247802734375	0.00173309326171875	3262.34385876337
0.252227783203125	0.0017340087890625	3262.78636376226
0.25665283203125	0.00173583984375	3263.22886876114
0.261077880859375	0.00173675537109375	3263.67137376002
0.2655029296875	0.00173828125	3264.1138787589
0.269927978515625	0.00174041748046875	3264.55638375779
0.27435302734375	0.0017413330078125	3264.99888875667
0.278778076171875	0.0017425537109375	3265.44139375555
0.283203125	0.0017437744140625	3265.88389875444
0.287628173828125	0.00174560546875	3266.32640375332
0.29205322265625	0.00174774169921875	3266.7689087522
0.296478271484375	0.00174957275390625	3267.21141375108
0.3009033203125	0.001751708984375	3267.65391874997
0.305328369140625	0.0017535400390625	3268.09642374885
0.30975341796875	0.0017559814453125	3268.53892874773
0.314178466796875	0.00176055908203125	3268.98143374662
0.318603515625	0.0017620849609375	3269.4239387455
0.323028564453125	0.0017633056640625	3269.86644374438
0.32745361328125	0.00176513671875	3270.30894874326
0.331878662109375	0.00176666259765625	3270.75145374215
0.3363037109375	0.00176910400390625	3271.19395874103
0.340728759765625	0.00177032470703125	3271.63646373991
0.34515380859375	0.00177154541015625	3272.07896873879
0.349578857421875	0.00177337646484375	3272.52147373768
0.35400390625	0.00177276611328125	3272.96397873656
0.358428955078125	0.00177490234375	3273.40648373544
0.36285400390625	0.0017755126953125	3273.84898873433
0.367279052734375	0.00177703857421875	3274.29149373321
0.3717041015625	0.0017779541015625	3274.73399873209
0.376129150390625	0.00177886962890625	3275.17650373097
0.38055419921875	0.0017791748046875	3275.61900872986
0.384979248046875	0.0017791748046875	3276.06151372874
0.389404296875	0.00177947998046875	3276.50401872762
0.393829345703125	0.00177825927734375	3276.94652372651
0.39825439453125	0.00177734375	3277.38902872539
0.402679443359375	0.00177642822265625	3277.83153372427
0.4071044921875	0.00177520751953125	3278.27403872315
0.411529541015625	0.00177337646484375	3278.71654372204
0.41595458984375	0.00177215576171875	3279.15904872092
0.420379638671875	0.00177001953125	3279.6015537198
0.4248046875	0.0017681884765625	3280.04405871868
0.429229736328125	0.001766357421875	3280.48656371757
0.43365478515625	0.001763916015625	3280.92906871645
0.438079833984375	0.00176239013671875	3281.37157371533
0.4425048828125	0.00175994873046875	3281.81407871422
0.446929931640625	0.0017584228515625	3282.2565837131
0.45135498046875	0.00175628662109375	3282.69908871198
0.455780029296875	0.00175445556640625	3283.14159371086
0.460205078125	0.00175262451171875	3283.58409870975
0.464630126953125	0.00175048828125	3284.02660370863
0.46905517578125	0.001748046875	3284.46910870751
0.473480224609375	0.001746826171875	3284.9116137064
0.4779052734375	0.0017449951171875	3285.35411870528
0.482330322265625	0.00174285888671875	3285.79662370416
0.48675537109375	0.0017413330078125	3286.23912870304
0.491180419921875	0.001739501953125	3286.68163370193
0.49560546875	0.0017376708984375	3287.12413870081
0.500030517578125	0.00173614501953125	3287.56664369969
0.50445556640625	0.001734619140625	3288.00914869857
0.508880615234375	0.00173309326171875	3288.45165369746
0.5133056640625	0.0017315673828125	3288.89415869634
0.517730712890625	0.00173004150390625	3289.33666369522
0.52215576171875	0.001728515625	3289.77916869411
0.526580810546875	0.00172821044921875	3290.22167369299
0.531005859375	0.00172698974609375	3290.66417869187
0.535430908203125	0.00172637939453125	3291.10668369075
0.53985595703125	0.00172515869140625	3291.54918868964
0.544281005859375	0.00172454833984375	3291.99169368852
0.5487060546875	0.0017230224609375	3292.4341986874
0.553131103515625	0.00172332763671875	3292.87670368629
0.55755615234375	0.0017230224609375	3293.31920868517
0.561981201171875	0.00172271728515625	3293.76171368405
0.56640625	0.0017230224609375	3294.20421868293
0.570831298828125	0.00172393798828125	3294.64672368182
0.57525634765625	0.0017242431640625	3295.0892286807
0.579681396484375	0.00172515869140625	3295.53173367958
0.5841064453125	0.00172637939453125	3295.97423867847
0.588531494140625	0.00172607421875	3296.41674367735
0.59295654296875	0.0017279052734375	3296.85924867623
0.597381591796875	0.00173004150390625	3297.30175367511
0.601806640625	0.0017327880859375	3297.744258674
0.606231689453125	0.001734619140625	3298.18676367288
0.61065673828125	0.00173736572265625	3298.62926867176
0.615081787109375	0.00174072265625	3299.07177367064
0.6195068359375	0.0017437744140625	3299.51427866953
0.623931884765625	0.00174713134765625	3299.95678366841
0.62835693359375	0.00175445556640625	3300.39928866729
0.632781982421875	0.00175811767578125	3300.84179366618
0.63720703125	0.00176116943359375	3301.28429866506
0.641632080078125	0.0017657470703125	3301.72680366394
0.64605712890625	0.00177001953125	3302.16930866282
0.650482177734375	0.00177520751953125	3302.61181366171
0.6549072265625	0.00178070068359375	3303.05431866059
0.659332275390625	0.001785888671875	3303.49682365947
0.66375732421875	0.0017919921875	3303.93932865835
0.668182373046875	0.001798095703125	3304.38183365724
0.672607421875	0.00180419921875	3304.82433865612
0.677032470703125	0.00181121826171875	3305.266843655
0.68145751953125	0.00181884765625	3305.70934865389
0.685882568359375	0.00182647705078125	3306.15185365277
0.6903076171875	0.00183441162109375	3306.59435865165
0.694732666015625	0.0018426513671875	3307.03686365053
0.69915771484375	0.00185211181640625	3307.47936864942
0.703582763671875	0.0018597412109375	3307.9218736483
0.7080078125	0.0018695068359375	3308.36437864718
0.712432861328125	0.00187957763671875	3308.80688364607
0.71685791015625	0.0018902587890625	3309.24938864495
0.721282958984375	0.001900634765625	3309.69189364383
0.7257080078125	0.00191192626953125	3310.13439864271
0.730133056640625	0.001923828125	3310.5769036416
0.73455810546875	0.00193603515625	3311.01940864048
0.738983154296875	0.00194854736328125	3311.46191363936
0.743408203125	0.00195953369140625	3311.90441863825
0.747833251953125	0.001973876953125	3312.34692363713
0.75225830078125	0.00198822021484375	3312.78942863601
0.756683349609375	0.0020037841796875	3313.23193363489
0.7611083984375	0.00201934814453125	3313.67443863378
0.765533447265625	0.00203582763671875	3314.11694363266
0.76995849609375	0.00205230712890625	3314.55944863154
0.774383544921875	0.0020703125	3315.00195363042
0.77880859375	0.00208892822265625	3315.44445862931
0.783233642578125	0.00210784912109375	3315.88696362819
0.78765869140625	0.0021282958984375	3316.32946862707
0.792083740234375	0.00214935302734375	3316.77197362596
0.7965087890625	0.002171630859375	3317.21447862484
0.800933837890625	0.00219482421875	3317.65698362372
0.80535888671875	0.00221893310546875	3318.0994886226
0.809783935546875	0.00224456787109375	3318.54199362149
0.814208984375	0.0022705078125	3318.98449862037
0.818634033203125	0.00229827880859375	3319.42700361925
0.82305908203125	0.00232696533203125	3319.86950861814
0.827484130859375	0.0023565673828125	3320.31201361702
0.8319091796875	0.0023876953125	3320.7545186159
0.836334228515625	0.0024200439453125	3321.19702361478
0.84075927734375	0.00245391845703125	3321.63952861367
0.845184326171875	0.002489013671875	3322.08203361255
0.849609375	0.0025250244140625	3322.52453861143
0.854034423828125	0.00256317138671875	3322.96704361031
0.85845947265625	0.0026019287109375	3323.4095486092
0.862884521484375	0.0026409912109375	3323.85205360808
0.8673095703125	0.00268341064453125	3324.29455860696
0.871734619140625	0.0027264404296875	3324.73706360585
0.87615966796875	0.00277099609375	3325.17956860473
0.880584716796875	0.0028167724609375	3325.62207360361
0.885009765625	0.00286407470703125	3326.06457860249
0.889434814453125	0.00291259765625	3326.50708360138
0.89385986328125	0.0029620361328125	3326.94958860026
0.898284912109375	0.0030133056640625	3327.39209359914
0.9027099609375	0.0030645751953125	3327.83459859803
0.907135009765625	0.003118896484375	3328.27710359691
0.91156005859375	0.003173828125	3328.71960859579
0.915985107421875	0.00322845458984375	3329.16211359467
0.92041015625	0.00328460693359375	3329.60461859356
0.924835205078125	0.00334197998046875	3330.04712359244
0.92926025390625	0.0033990478515625	3330.48962859132
0.933685302734375	0.00345794677734375	3330.93213359021
0.9381103515625	0.00352020263671875	3331.37463858909
0.942535400390625	0.00358001708984375	3331.81714358797
0.94696044921875	0.00363983154296875	3332.25964858685
0.951385498046875	0.00370025634765625	3332.70215358574
0.955810546875	0.00376190185546875	3333.14465858462
0.960235595703125	0.003824462890625	3333.5871635835
0.96466064453125	0.00388702392578125	3334.02966858238
0.969085693359375	0.0039508056640625	3334.47217358127
0.9735107421875	0.00401702880859375	3334.91467858015
0.977935791015625	0.00408203125	3335.35718357903
0.98236083984375	0.00415283203125	3335.79968857792
0.986785888671875	0.00422607421875	3336.2421935768
0.9912109375	0.0043017578125	3336.68469857568
0.995635986328125	0.004383544921875	3337.12720357456
1.00006103515625	0.0044683837890625	3337.56970857345
0.995635986328125	0.00369476318359375	3338.01221357233
0.9912109375	0.003077392578125	3338.45471857121
0.986785888671875	0.00256378173828125	3338.89722357009
0.98236083984375	0.00212554931640625	3339.33972856898
0.977935791015625	0.001744384765625	3339.78223356786
0.9735107421875	0.00141082763671875	3340.22473856674
0.969085693359375	0.00111297607421875	3340.66724356563
0.96466064453125	0.00084686279296875	3341.10974856451
0.960235595703125	0.00060791015625	3341.55225356339
0.955810546875	0.000391876220703125	3341.99475856227
0.951385498046875	0.000196746826171875	3342.43726356116
0.94696044921875	1.91925048828125E-05	3342.87976856004
0.942535400390625	-0.000141937255859375	3343.32227355892
0.9381103515625	-0.000289093017578125	3343.76477855781
0.933685302734375	-0.00042694091796875	3344.20728355669
0.92926025390625	-0.00054931640625	3344.64978855557
0.924835205078125	-0.000661773681640625	3345.09229355445
0.92041015625	-0.00076568603515625	3345.53479855334
0.915985107421875	-0.00086090087890625	3345.97730355222
0.91156005859375	-0.00094879150390625	3346.4198085511
0.907135009765625	-0.00103057861328125	3346.86231354998
0.9027099609375	-0.00110626220703125	3347.30481854887
0.898284912109375	-0.00117523193359375	3347.74732354775
0.89385986328125	-0.00123992919921875	3348.18982854663
0.889434814453125	-0.0012994384765625	3348.63233354552
0.885009765625	-0.00135406494140625	3349.0748385444
0.880584716796875	-0.00140533447265625	3349.51734354328
0.87615966796875	-0.001451416015625	3349.95984854216
0.871734619140625	-0.00149444580078125	3350.40235354105
0.8673095703125	-0.00153411865234375	3350.84485853993
0.862884521484375	-0.0015704345703125	3351.28736353881
0.85845947265625	-0.00160308837890625	3351.7298685377
0.854034423828125	-0.0016339111328125	3352.17237353658
0.849609375	-0.00166168212890625	3352.61487853546
0.845184326171875	-0.00168731689453125	3353.05738353434
0.84075927734375	-0.0017108154296875	3353.49988853323
0.836334228515625	-0.0017315673828125	3353.94239353211
0.8319091796875	-0.0017510986328125	3354.38489853099
0.827484130859375	-0.00176849365234375	3354.82740352988
0.82305908203125	-0.0017840576171875	3355.26990852876
0.818634033203125	-0.00179840087890625	3355.71241352764
0.814208984375	-0.0018115234375	3356.15491852652
0.809783935546875	-0.00182281494140625	3356.59742352541
0.80535888671875	-0.001832275390625	3357.03992852429
0.800933837890625	-0.001842041015625	3357.48243352317
0.7965087890625	-0.0018499755859375	3357.92493852205
0.792083740234375	-0.00185699462890625	3358.36744352094
0.78765869140625	-0.00186279296875	3358.80994851982
0.783233642578125	-0.00186859130859375	3359.2524535187
0.77880859375	-0.0018719482421875	3359.69495851759
0.774383544921875	-0.0018756103515625	3360.13746351647
0.76995849609375	-0.0018780517578125	3360.57996851535
0.765533447265625	-0.0018798828125	3361.02247351423
0.7611083984375	-0.001881103515625	3361.46497851312
0.756683349609375	-0.00188140869140625	3361.907483512
0.75225830078125	-0.001881103515625	3362.34998851088
0.747833251953125	-0.00188018798828125	3362.79249350977
0.743408203125	-0.0018792724609375	3363.23499850865
0.738983154296875	-0.00187530517578125	3363.67750350753
0.73455810546875	-0.00187408447265625	3364.12000850641
0.730133056640625	-0.00187164306640625	3364.5625135053
0.7257080078125	-0.00186920166015625	3365.00501850418
0.721282958984375	-0.00186553955078125	3365.44752350306
0.71685791015625	-0.00186279296875	3365.89002850194
0.712432861328125	-0.001859130859375	3366.33253350083
0.7080078125	-0.0018560791015625	3366.77503849971
0.703582763671875	-0.00185089111328125	3367.21754349859
0.69915771484375	-0.0018450927734375	3367.66004849748
0.694732666015625	-0.0018408203125	3368.10255349636
0.6903076171875	-0.0018359375	3368.54505849524
0.685882568359375	-0.0018310546875	3368.98756349412
0.68145751953125	-0.0018255615234375	3369.43006849301
0.677032470703125	-0.0018206787109375	3369.87257349189
0.672607421875	-0.001815185546875	3370.31507849077
0.668182373046875	-0.001810302734375	3370.75758348966
0.66375732421875	-0.00180511474609375	3371.20008848854
0.659332275390625	-0.0017999267578125	3371.64259348742
0.6549072265625	-0.0017950439453125	3372.0850984863
0.650482177734375	-0.00179046630859375	3372.52760348519
0.64605712890625	-0.0017852783203125	3372.97010848407
0.641632080078125	-0.00178131103515625	3373.41261348295
0.63720703125	-0.00177734375	3373.85511848183
0.632781982421875	-0.0017730712890625	3374.29762348072
0.62835693359375	-0.00176971435546875	3374.7401284796
0.623931884765625	-0.00176971435546875	3375.18263347848
0.6195068359375	-0.00176605224609375	3375.62513847737
0.615081787109375	-0.00176239013671875	3376.06764347625
0.61065673828125	-0.001759033203125	3376.51014847513
0.606231689453125	-0.00175628662109375	3376.95265347401
0.601806640625	-0.001754150390625	3377.3951584729
0.597381591796875	-0.0017523193359375	3377.83766347178
0.59295654296875	-0.00175048828125	3378.28016847066
0.588531494140625	-0.00174896240234375	3378.72267346955
0.5841064453125	-0.00174652099609375	3379.16517846843
0.579681396484375	-0.00174591064453125	3379.60768346731
0.57525634765625	-0.00174560546875	3380.05018846619
0.570831298828125	-0.0017462158203125	3380.49269346508
0.56640625	-0.0017462158203125	3380.93519846396
0.561981201171875	-0.0017462158203125	3381.37770346284
0.55755615234375	-0.00174713134765625	3381.82020846172
0.553131103515625	-0.00174835205078125	3382.26271346061
0.5487060546875	-0.00174896240234375	3382.70521845949
0.544281005859375	-0.00175018310546875	3383.14772345837
0.53985595703125	-0.0017523193359375	3383.59022845726
0.535430908203125	-0.0017547607421875	3384.03273345614
0.531005859375	-0.001756591796875	3384.47523845502
0.526580810546875	-0.00175933837890625	3384.9177434539
0.52215576171875	-0.0017620849609375	3385.36024845279
0.517730712890625	-0.0017657470703125	3385.80275345167
0.5133056640625	-0.00176849365234375	3386.24525845055
0.508880615234375	-0.0017718505859375	3386.68776344944
0.50445556640625	-0.00177520751953125	3387.13026844832
0.500030517578125	-0.0017791748046875	3387.5727734472
0.49560546875	-0.0017828369140625	3388.01527844608
0.491180419921875	-0.00178741455078125	3388.45778344497
0.48675537109375	-0.0017913818359375	3388.90028844385
0.482330322265625	-0.00179534912109375	3389.34279344273
0.4779052734375	-0.00179962158203125	3389.78529844161
0.473480224609375	-0.00180419921875	3390.2278034405
0.46905517578125	-0.00180938720703125	3390.67030843938
0.464630126953125	-0.00181304931640625	3391.11281343826
0.460205078125	-0.001817626953125	3391.55531843715
0.455780029296875	-0.00182220458984375	3391.99782343603
0.45135498046875	-0.00182708740234375	3392.44032843491
0.446929931640625	-0.001832275390625	3392.88283343379
0.4425048828125	-0.001837158203125	3393.32533843268
0.438079833984375	-0.001842041015625	3393.76784343156
0.43365478515625	-0.00184661865234375	3394.21034843044
0.429229736328125	-0.00185150146484375	3394.65285342933
0.4248046875	-0.0018560791015625	3395.09535842821
0.420379638671875	-0.00186065673828125	3395.53786342709
0.41595458984375	-0.001865234375	3395.98036842597
0.411529541015625	-0.0018695068359375	3396.42287342486
0.4071044921875	-0.001873779296875	3396.86537842374
0.402679443359375	-0.00187835693359375	3397.30788342262
0.39825439453125	-0.0018829345703125	3397.7503884215
0.393829345703125	-0.00188751220703125	3398.19289342039
0.389404296875	-0.0018902587890625	3398.63539841927
0.384979248046875	-0.0018951416015625	3399.07790341815
0.38055419921875	-0.0018994140625	3399.52040841704
0.376129150390625	-0.00190399169921875	3399.96291341592
0.3717041015625	-0.001907958984375	3400.4054184148
0.367279052734375	-0.0019122314453125	3400.84792341368
0.36285400390625	-0.00191650390625	3401.29042841257
0.358428955078125	-0.0019207763671875	3401.73293341145
0.35400390625	-0.0019256591796875	3402.17543841033
0.349578857421875	-0.0019281005859375	3402.61794340922
0.34515380859375	-0.00193328857421875	3403.0604484081
0.340728759765625	-0.0019384765625	3403.50295340698
0.3363037109375	-0.001943359375	3403.94545840586
0.331878662109375	-0.00194854736328125	3404.38796340475
0.32745361328125	-0.0019537353515625	3404.83046840363
0.323028564453125	-0.00195892333984375	3405.27297340251
0.318603515625	-0.00196380615234375	3405.7154784014
0.314178466796875	-0.0019696044921875	3406.15798340028
0.30975341796875	-0.00197784423828125	3406.60048839916
0.305328369140625	-0.00198272705078125	3407.04299339804
0.3009033203125	-0.0019879150390625	3407.48549839693
0.296478271484375	-0.00199371337890625	3407.92800339581
0.29205322265625	-0.00199920654296875	3408.37050839469
0.287628173828125	-0.002005615234375	3408.81301339357
0.283203125	-0.00201202392578125	3409.25551839246
0.278778076171875	-0.002017822265625	3409.69802339134
0.27435302734375	-0.00202484130859375	3410.14052839022
0.269927978515625	-0.00203094482421875	3410.58303338911
0.2655029296875	-0.00203765869140625	3411.02553838799
0.261077880859375	-0.00204437255859375	3411.46804338687
0.25665283203125	-0.002052001953125	3411.91054838575
0.252227783203125	-0.0020587158203125	3412.35305338464
0.247802734375	-0.0020660400390625	3412.79555838352
0.243377685546875	-0.00207244873046875	3413.2380633824
0.23895263671875	-0.00207977294921875	3413.68056838128
0.234527587890625	-0.00208740234375	3414.12307338017
0.2301025390625	-0.00209381103515625	3414.56557837905
0.225677490234375	-0.0021014404296875	3415.00808337793
0.22125244140625	-0.00210906982421875	3415.45058837682
0.216827392578125	-0.00211639404296875	3415.8930933757
0.21240234375	-0.0021246337890625	3416.33559837458
0.207977294921875	-0.002132568359375	3416.77810337346
0.20355224609375	-0.00214019775390625	3417.22060837235
0.199127197265625	-0.0021484375	3417.66311337123
0.1947021484375	-0.0021563720703125	3418.10561837011
0.190277099609375	-0.0021649169921875	3418.548123369
0.18585205078125	-0.0021734619140625	3418.99062836788
0.181427001953125	-0.00218231201171875	3419.43313336676
0.177001953125	-0.0021905517578125	3419.87563836564
0.172576904296875	-0.00219970703125	3420.31814336453
0.16815185546875	-0.00220947265625	3420.76064836341
0.163726806640625	-0.0022186279296875	3421.20315336229
0.1593017578125	-0.0022283935546875	3421.64565836118
0.154876708984375	-0.00223785400390625	3422.08816336006
0.15045166015625	-0.00224853515625	3422.53066835894
0.146026611328125	-0.0022589111328125	3422.97317335782
0.1416015625	-0.0022698974609375	3423.41567835671
0.137176513671875	-0.0022808837890625	3423.85818335559
0.13275146484375	-0.00229248046875	3424.30068835447
0.128326416015625	-0.0023040771484375	3424.74319335335
0.1239013671875	-0.0023162841796875	3425.18569835224
0.119476318359375	-0.0023284912109375	3425.62820335112
0.11505126953125	-0.00233917236328125	3426.07070835
0.110626220703125	-0.002352294921875	3426.51321334889
0.106201171875	-0.00236541748046875	3426.95571834777
0.101776123046875	-0.002379150390625	3427.39822334665
0.09735107421875	-0.0023931884765625	3427.84072834553
0.092926025390625	-0.00240753173828125	3428.28323334442
0.0885009765625	-0.002421875	3428.7257383433
0.084075927734375	-0.0024359130859375	3429.16824334218
0.07965087890625	-0.002451171875	3429.61074834107
0.075225830078125	-0.0024652099609375	3430.05325333995
0.07080078125	-0.002481689453125	3430.49575833883
0.066375732421875	-0.00249664306640625	3430.93826333771
0.06195068359375	-0.00251220703125	3431.3807683366
0.057525634765625	-0.00252838134765625	3431.82327333548
0.0531005859375	-0.0025445556640625	3432.26577833436
0.048675537109375	-0.00256072998046875	3432.70828333324
0.04425048828125	-0.00257720947265625	3433.15078833213
0.039825439453125	-0.00259429931640625	3433.59329333101
0.035400390625	-0.002611083984375	3434.03579832989
0.030975341796875	-0.00262847900390625	3434.47830332878
0.02655029296875	-0.00264678955078125	3434.92080832766
0.022125244140625	-0.002664794921875	3435.36331332654
0.0177001953125	-0.00268341064453125	3435.80581832542
0.013275146484375	-0.00270294189453125	3436.24832332431
0.00885009765625	-0.00272247314453125	3436.69082832319
0.004425048828125	-0.002742919921875	3437.13333332207
0	-0.0027642822265625	3437.57583832096
0.004425048828125	-0.00194427490234375	3438.01834331984
0.00885009765625	-0.0013037109375	3438.46084831872
0.013275146484375	-0.0007928466796875	3438.9033533176
0.0177001953125	-0.00037841796875	3439.34585831649
0.022125244140625	-3.85528564453125E-05	3439.78836331537
0.02655029296875	0.000242279052734375	3440.23086831425
0.030975341796875	0.000475372314453125	3440.67337331314
0.035400390625	0.0006707763671875	3441.11587831202
0.039825439453125	0.00083404541015625	3441.5583833109
0.04425048828125	0.00097198486328125	3442.00088830978
0.048675537109375	0.0010882568359375	3442.44339330867
0.0531005859375	0.001185302734375	3442.88589830755
0.057525634765625	0.00126678466796875	3443.32840330643
0.06195068359375	0.0013360595703125	3443.77090830531
0.066375732421875	0.0013958740234375	3444.2134133042
0.07080078125	0.00144866943359375	3444.65591830308
0.075225830078125	0.001492919921875	3445.09842330196
0.07965087890625	0.00152923583984375	3445.54092830085
0.084075927734375	0.001561279296875	3445.98343329973
0.0885009765625	0.00158905029296875	3446.42593829861
0.092926025390625	0.00161224365234375	3446.86844329749
0.09735107421875	0.001632080078125	3447.31094829638
0.101776123046875	0.0016485595703125	3447.75345329526
0.106201171875	0.00166229248046875	3448.19595829414
0.110626220703125	0.00167388916015625	3448.63846329302
0.11505126953125	0.00168426513671875	3449.08096829191
0.119476318359375	0.00169036865234375	3449.52347329079
0.1239013671875	0.00169769287109375	3449.96597828967
0.128326416015625	0.00170318603515625	3450.40848328856
0.13275146484375	0.001707763671875	3450.85098828744
0.137176513671875	0.00171142578125	3451.29349328632
0.1416015625	0.00171417236328125	3451.7359982852
0.146026611328125	0.00171661376953125	3452.17850328409
0.15045166015625	0.00171844482421875	3452.62100828297
0.154876708984375	0.00171966552734375	3453.06351328185
0.1593017578125	0.00171966552734375	3453.50601828074
0.163726806640625	0.0017205810546875	3453.94852327962
0.16815185546875	0.00172088623046875	3454.3910282785
0.172576904296875	0.00172149658203125	3454.83353327738
0.177001953125	0.00172119140625	3455.27603827627
0.181427001953125	0.00172119140625	3455.71854327515
0.18585205078125	0.00172149658203125	3456.16104827403
0.190277099609375	0.00172119140625	3456.60355327291
0.1947021484375	0.00172119140625	3457.0460582718
0.199127197265625	0.00172027587890625	3457.48856327068
0.20355224609375	0.00172088623046875	3457.93106826956
0.207977294921875	0.00172088623046875	3458.37357326845
0.21240234375	0.0017205810546875	3458.81607826733
0.216827392578125	0.00172088623046875	3459.25858326621
0.22125244140625	0.0017205810546875	3459.70108826509
0.225677490234375	0.0017205810546875	3460.14359326398
0.2301025390625	0.00172088623046875	3460.58609826286
0.234527587890625	0.00172027587890625	3461.02860326174
0.23895263671875	0.00172119140625	3461.47110826063
0.243377685546875	0.00172210693359375	3461.91361325951
0.247802734375	0.001722412109375	3462.35611825839
0.252227783203125	0.00172332763671875	3462.79862325727
0.25665283203125	0.00172393798828125	3463.24112825616
0.261077880859375	0.0017254638671875	3463.68363325504
0.2655029296875	0.00172607421875	3464.12613825392
0.269927978515625	0.001727294921875	3464.56864325281
0.27435302734375	0.001727294921875	3465.01114825169
0.278778076171875	0.00172821044921875	3465.45365325057
0.283203125	0.00172943115234375	3465.89615824945
0.287628173828125	0.00173095703125	3466.33866324834
0.29205322265625	0.00173248291015625	3466.78116824722
0.296478271484375	0.00173431396484375	3467.2236732461
0.3009033203125	0.00173583984375	3467.66617824498
0.305328369140625	0.00173736572265625	3468.10868324387
0.30975341796875	0.001739501953125	3468.55118824275
0.314178466796875	0.0017431640625	3468.99369324163
0.318603515625	0.00174407958984375	3469.43619824052
0.323028564453125	0.00174560546875	3469.8787032394
0.32745361328125	0.00174652099609375	3470.32120823828
0.331878662109375	0.00174774169921875	3470.76371323716
0.3363037109375	0.00174896240234375	3471.20621823605
0.340728759765625	0.00175018310546875	3471.64872323493
0.34515380859375	0.0017510986328125	3472.09122823381
0.349578857421875	0.00175201416015625	3472.5337332327
0.35400390625	0.00175140380859375	3472.97623823158
0.358428955078125	0.0017529296875	3473.41874323046
0.36285400390625	0.001754150390625	3473.86124822934
0.367279052734375	0.00175506591796875	3474.30375322823
0.3717041015625	0.0017559814453125	3474.74625822711
0.376129150390625	0.001756591796875	3475.18876322599
0.38055419921875	0.001756591796875	3475.63126822487
0.384979248046875	0.00175628662109375	3476.07377322376
0.389404296875	0.00175628662109375	3476.51627822264
0.393829345703125	0.00175445556640625	3476.95878322152
0.39825439453125	0.001754150390625	3477.40128822041
0.402679443359375	0.00175323486328125	3477.84379321929
0.4071044921875	0.00175201416015625	3478.28629821817
0.411529541015625	0.00175048828125	3478.72880321705
0.41595458984375	0.0017486572265625	3479.17130821594
0.420379638671875	0.00174713134765625	3479.61381321482
0.4248046875	0.001744384765625	3480.0563182137
0.429229736328125	0.0017431640625	3480.49882321259
0.43365478515625	0.00174163818359375	3480.94132821147
0.438079833984375	0.0017388916015625	3481.38383321035
0.4425048828125	0.001737060546875	3481.82633820923
0.446929931640625	0.0017352294921875	3482.26884320812
0.45135498046875	0.0017333984375	3482.711348207
0.455780029296875	0.0017315673828125	3483.15385320588
0.460205078125	0.00172943115234375	3483.59635820476
0.464630126953125	0.0017279052734375	3484.03886320365
0.46905517578125	0.001724853515625	3484.48136820253
0.473480224609375	0.0017236328125	3484.92387320141
0.4779052734375	0.00172271728515625	3485.3663782003
0.482330322265625	0.001719970703125	3485.80888319918
0.48675537109375	0.0017193603515625	3486.25138819806
0.491180419921875	0.001717529296875	3486.69389319694
0.49560546875	0.00171630859375	3487.13639819583
0.500030517578125	0.0017144775390625	3487.57890319471
0.50445556640625	0.0017132568359375	3488.02140819359
0.508880615234375	0.00171142578125	3488.46391319248
0.5133056640625	0.001710205078125	3488.90641819136
0.517730712890625	0.001708984375	3489.34892319024
0.52215576171875	0.00170745849609375	3489.79142818912
0.526580810546875	0.00170684814453125	3490.23393318801
0.531005859375	0.0017059326171875	3490.67643818689
0.535430908203125	0.0017047119140625	3491.11894318577
0.53985595703125	0.0017041015625	3491.56144818465
0.544281005859375	0.0017034912109375	3492.00395318354
0.5487060546875	0.0017022705078125	3492.44645818242
0.553131103515625	0.0017022705078125	3492.8889631813
0.55755615234375	0.0017022705078125	3493.33146818019
0.561981201171875	0.0017022705078125	3493.77397317907
0.56640625	0.00170196533203125	3494.21647817795
0.570831298828125	0.001702880859375	3494.65898317683
0.57525634765625	0.00170379638671875	3495.10148817572
0.579681396484375	0.00170440673828125	3495.5439931746
0.5841064453125	0.00170623779296875	3495.98649817348
0.588531494140625	0.00170562744140625	3496.42900317237
0.59295654296875	0.001707763671875	3496.87150817125
0.597381591796875	0.00170989990234375	3497.31401317013
0.601806640625	0.00171173095703125	3497.75651816901
0.606231689453125	0.0017144775390625	3498.1990231679
0.61065673828125	0.0017169189453125	3498.64152816678
0.615081787109375	0.001719970703125	3499.08403316566
0.6195068359375	0.00172332763671875	3499.52653816454
0.623931884765625	0.00172607421875	3499.96904316343
0.62835693359375	0.0017333984375	3500.41154816231
0.632781982421875	0.0017364501953125	3500.85405316119
0.63720703125	0.00173980712890625	3501.29655816008
0.641632080078125	0.001744384765625	3501.73906315896
0.64605712890625	0.0017486572265625	3502.18156815784
0.650482177734375	0.0017529296875	3502.62407315672
0.6549072265625	0.0017578125	3503.06657815561
0.659332275390625	0.001763916015625	3503.50908315449
0.66375732421875	0.00176971435546875	3503.95158815337
0.668182373046875	0.0017755126953125	3504.39409315226
0.672607421875	0.0017816162109375	3504.83659815114
0.677032470703125	0.00178863525390625	3505.27910315002
0.68145751953125	0.0017950439453125	3505.7216081489
0.685882568359375	0.001802978515625	3506.16411314779
0.6903076171875	0.00180999755859375	3506.60661814667
0.694732666015625	0.00181854248046875	3507.04912314555
0.69915771484375	0.0018267822265625	3507.49162814443
0.703582763671875	0.0018353271484375	3507.93413314332
0.7080078125	0.0018438720703125	3508.3766381422
0.712432861328125	0.0018536376953125	3508.81914314108
0.71685791015625	0.001864013671875	3509.26164813997
0.721282958984375	0.00187408447265625	3509.70415313885
0.7257080078125	0.001884765625	3510.14665813773
0.730133056640625	0.0018963623046875	3510.58916313661
0.73455810546875	0.001907958984375	3511.0316681355
0.738983154296875	0.00192047119140625	3511.47417313438
0.743408203125	0.0019305419921875	3511.91667813326
0.747833251953125	0.001944580078125	3512.35918313215
0.75225830078125	0.0019586181640625	3512.80168813103
0.756683349609375	0.00197357177734375	3513.24419312991
0.7611083984375	0.00198822021484375	3513.68669812879
0.765533447265625	0.0020037841796875	3514.12920312768
0.76995849609375	0.002020263671875	3514.57170812656
0.774383544921875	0.00203765869140625	3515.01421312544
0.77880859375	0.00205474853515625	3515.45671812433
0.783233642578125	0.0020733642578125	3515.89922312321
0.78765869140625	0.00209320068359375	3516.34172812209
0.792083740234375	0.002113037109375	3516.78423312097
0.7965087890625	0.002135009765625	3517.22673811986
0.800933837890625	0.00215728759765625	3517.66924311874
0.80535888671875	0.0021807861328125	3518.11174811762
0.809783935546875	0.00220458984375	3518.5542531165
0.814208984375	0.002230224609375	3518.99675811539
0.818634033203125	0.00225677490234375	3519.43926311427
0.82305908203125	0.002283935546875	3519.88176811315
0.827484130859375	0.002313232421875	3520.32427311204
0.8319091796875	0.0023431396484375	3520.76677811092
0.836334228515625	0.002373046875	3521.2092831098
0.84075927734375	0.00240570068359375	3521.65178810868
0.845184326171875	0.0024395751953125	3522.09429310757
0.849609375	0.00247467041015625	3522.53679810645
0.854034423828125	0.0025103759765625	3522.97930310533
0.85845947265625	0.0025482177734375	3523.42180810421
0.862884521484375	0.0025860595703125	3523.8643131031
0.8673095703125	0.002626953125	3524.30681810198
0.871734619140625	0.0026678466796875	3524.74932310086
0.87615966796875	0.00271026611328125	3525.19182809975
0.880584716796875	0.00275421142578125	3525.63433309863
0.885009765625	0.00279998779296875	3526.07683809751
0.889434814453125	0.002845458984375	3526.51934309639
0.89385986328125	0.0028936767578125	3526.96184809528
0.898284912109375	0.00294281005859375	3527.40435309416
0.9027099609375	0.002991943359375	3527.84685809304
0.907135009765625	0.0030426025390625	3528.28936309193
0.91156005859375	0.00309417724609375	3528.73186809081
0.915985107421875	0.00314727783203125	3529.17437308969
0.92041015625	0.0032012939453125	3529.61687808857
0.924835205078125	0.003255615234375	3530.05938308746
0.92926025390625	0.00331085205078125	3530.50188808634
0.933685302734375	0.0033673095703125	3530.94439308522
0.9381103515625	0.003426513671875	3531.38689808411
0.942535400390625	0.00348297119140625	3531.82940308299
0.94696044921875	0.00354034423828125	3532.27190808187
0.951385498046875	0.00359771728515625	3532.71441308075
0.955810546875	0.0036566162109375	3533.15691807964
0.960235595703125	0.0037164306640625	3533.59942307852
0.96466064453125	0.00377655029296875	3534.0419280774
0.969085693359375	0.0038385009765625	3534.48443307628
0.9735107421875	0.00390228271484375	3534.92693807517
0.977935791015625	0.003966064453125	3535.36944307405
0.98236083984375	0.00403411865234375	3535.81194807293
0.986785888671875	0.0041070556640625	3536.25445307182
0.9912109375	0.00418182373046875	3536.6969580707
0.995635986328125	0.00426239013671875	3537.13946306958
1.00006103515625	0.00434722900390625	3537.58196806846
0.995635986328125	0.00357879638671875	3538.02447306735
0.9912109375	0.00296783447265625	3538.46697806623
0.986785888671875	0.00246185302734375	3538.90948306511
0.98236083984375	0.00203125	3539.351988064
0.977935791015625	0.00165771484375	3539.79449306288
0.9735107421875	0.001331787109375	3540.23699806176
0.969085693359375	0.001041259765625	3540.67950306064
0.96466064453125	0.00078155517578125	3541.12200805953
0.960235595703125	0.00054931640625	3541.56451305841
0.955810546875	0.000340057373046875	3542.00701805729
0.951385498046875	0.000150909423828125	3542.44952305617
0.94696044921875	-2.04498291015625E-05	3542.89202805506
0.942535400390625	-0.000176025390625	3543.33453305394
0.9381103515625	-0.000318145751953125	3543.77703805282
0.933685302734375	-0.000450042724609375	3544.21954305171
0.92926025390625	-0.000567138671875	3544.66204805059
0.924835205078125	-0.00067486572265625	3545.10455304947
0.92041015625	-0.00077423095703125	3545.54705804835
0.915985107421875	-0.00086517333984375	3545.98956304724
0.91156005859375	-0.0009490966796875	3546.43206804612
0.907135009765625	-0.0010272216796875	3546.874573045
0.9027099609375	-0.0010986328125	3547.31707804389
0.898284912109375	-0.00116485595703125	3547.75958304277
0.89385986328125	-0.0012261962890625	3548.20208804165
0.889434814453125	-0.0012823486328125	3548.64459304053
0.885009765625	-0.00133453369140625	3549.08709803942
0.880584716796875	-0.00138275146484375	3549.5296030383
0.87615966796875	-0.00142730712890625	3549.97210803718
0.871734619140625	-0.0014678955078125	3550.41461303607
0.8673095703125	-0.0015057373046875	3550.85711803495
0.862884521484375	-0.00154052734375	3551.29962303383
0.85845947265625	-0.0015704345703125	3551.74212803271
0.854034423828125	-0.00160003662109375	3552.1846330316
0.849609375	-0.00162689208984375	3552.62713803048
0.845184326171875	-0.00165069580078125	3553.06964302936
0.84075927734375	-0.0016729736328125	3553.51214802824
0.836334228515625	-0.00169342041015625	3553.95465302713
0.8319091796875	-0.00171173095703125	3554.39715802601
0.827484130859375	-0.0017279052734375	3554.83966302489
0.82305908203125	-0.0017431640625	3555.28216802378
0.818634033203125	-0.00175628662109375	3555.72467302266
0.814208984375	-0.001768798828125	3556.16717802154
0.809783935546875	-0.00177978515625	3556.60968302042
0.80535888671875	-0.00178924560546875	3557.05218801931
0.800933837890625	-0.001798095703125	3557.49469301819
0.7965087890625	-0.00180572509765625	3557.93719801707
0.792083740234375	-0.001812744140625	3558.37970301595
0.78765869140625	-0.0018182373046875	3558.82220801484
0.783233642578125	-0.00182373046875	3559.26471301372
0.77880859375	-0.001827392578125	3559.7072180126
0.774383544921875	-0.00183135986328125	3560.14972301149
0.76995849609375	-0.0018341064453125	3560.59222801037
0.765533447265625	-0.00183563232421875	3561.03473300925
0.7611083984375	-0.0018377685546875	3561.47723800813
0.756683349609375	-0.00183807373046875	3561.91974300702
0.75225830078125	-0.00183807373046875	3562.3622480059
0.747833251953125	-0.00183685302734375	3562.80475300478
0.743408203125	-0.00183624267578125	3563.24725800367
0.738983154296875	-0.0018328857421875	3563.68976300255
0.73455810546875	-0.00183197021484375	3564.13226800143
0.730133056640625	-0.00182952880859375	3564.57477300031
0.7257080078125	-0.001827392578125	3565.0172779992
0.721282958984375	-0.0018243408203125	3565.45978299808
0.71685791015625	-0.00182159423828125	3565.90228799696
0.712432861328125	-0.00181854248046875	3566.34479299584
0.7080078125	-0.00181549072265625	3566.78729799473
0.703582763671875	-0.00181182861328125	3567.22980299361
0.69915771484375	-0.00180694580078125	3567.67230799249
0.694732666015625	-0.00180267333984375	3568.11481299138
0.6903076171875	-0.0017987060546875	3568.55731799026
0.685882568359375	-0.00179412841796875	3568.99982298914
0.68145751953125	-0.00178985595703125	3569.44232798802
0.677032470703125	-0.00178497314453125	3569.88483298691
0.672607421875	-0.00178009033203125	3570.32733798579
0.668182373046875	-0.001776123046875	3570.76984298467
0.66375732421875	-0.001771240234375	3571.21234798356
0.659332275390625	-0.0017669677734375	3571.65485298244
0.6549072265625	-0.0017620849609375	3572.09735798132
0.650482177734375	-0.0017578125	3572.5398629802
0.64605712890625	-0.00175384521484375	3572.98236797909
0.641632080078125	-0.00175018310546875	3573.42487297797
0.63720703125	-0.00174652099609375	3573.86737797685
0.632781982421875	-0.0017431640625	3574.30988297574
0.62835693359375	-0.00174041748046875	3574.75238797462
0.623931884765625	-0.00174102783203125	3575.1948929735
0.6195068359375	-0.0017376708984375	3575.63739797238
0.615081787109375	-0.00173431396484375	3576.07990297127
0.61065673828125	-0.0017315673828125	3576.52240797015
0.606231689453125	-0.001729736328125	3576.96491296903
0.601806640625	-0.00172760009765625	3577.40741796791
0.597381591796875	-0.00172637939453125	3577.8499229668
0.59295654296875	-0.00172515869140625	3578.29242796568
0.588531494140625	-0.00172454833984375	3578.73493296456
0.5841064453125	-0.00172149658203125	3579.17743796345
0.579681396484375	-0.00172210693359375	3579.61994296233
0.57525634765625	-0.001722412109375	3580.06244796121
0.570831298828125	-0.00172271728515625	3580.50495296009
0.56640625	-0.00172393798828125	3580.94745795898
0.561981201171875	-0.00172454833984375	3581.38996295786
0.55755615234375	-0.0017254638671875	3581.83246795674
0.553131103515625	-0.0017266845703125	3582.27497295563
0.5487060546875	-0.00172821044921875	3582.71747795451
0.544281005859375	-0.00172943115234375	3583.15998295339
0.53985595703125	-0.0017315673828125	3583.60248795227
0.535430908203125	-0.0017340087890625	3584.04499295116
0.531005859375	-0.001737060546875	3584.48749795004
0.526580810546875	-0.00173980712890625	3584.93000294892
0.52215576171875	-0.0017431640625	3585.3725079478
0.517730712890625	-0.0017462158203125	3585.81501294669
0.5133056640625	-0.00174957275390625	3586.25751794557
0.508880615234375	-0.00175384521484375	3586.70002294445
0.50445556640625	-0.0017572021484375	3587.14252794334
0.500030517578125	-0.001761474609375	3587.58503294222
0.49560546875	-0.0017657470703125	3588.0275379411
0.491180419921875	-0.00177001953125	3588.47004293998
0.48675537109375	-0.00177459716796875	3588.91254793887
0.482330322265625	-0.00177886962890625	3589.35505293775
0.4779052734375	-0.00178375244140625	3589.79755793663
0.473480224609375	-0.001788330078125	3590.24006293552
0.46905517578125	-0.0017938232421875	3590.6825679344
0.464630126953125	-0.00179779052734375	3591.12507293328
0.460205078125	-0.001802978515625	3591.56757793216
0.455780029296875	-0.00180816650390625	3592.01008293105
0.45135498046875	-0.00181304931640625	3592.45258792993
0.446929931640625	-0.00181793212890625	3592.89509292881
0.4425048828125	-0.0018231201171875	3593.33759792769
0.438079833984375	-0.00182769775390625	3593.78010292658
0.43365478515625	-0.00183258056640625	3594.22260792546
0.429229736328125	-0.0018377685546875	3594.66511292434
0.4248046875	-0.00184234619140625	3595.10761792323
0.420379638671875	-0.001846923828125	3595.55012292211
0.41595458984375	-0.00185150146484375	3595.99262792099
0.411529541015625	-0.00185638427734375	3596.43513291987
0.4071044921875	-0.0018609619140625	3596.87763791876
0.402679443359375	-0.0018658447265625	3597.32014291764
0.39825439453125	-0.00186981201171875	3597.76264791652
0.393829345703125	-0.00187408447265625	3598.20515291541
0.389404296875	-0.00187774658203125	3598.64765791429
0.384979248046875	-0.00188262939453125	3599.09016291317
0.38055419921875	-0.00188690185546875	3599.53266791205
0.376129150390625	-0.00189117431640625	3599.97517291094
0.3717041015625	-0.00189544677734375	3600.41767790982
0.367279052734375	-0.0019000244140625	3600.8601829087
0.36285400390625	-0.001904296875	3601.30268790758
0.358428955078125	-0.00190826416015625	3601.74519290647
0.35400390625	-0.00191314697265625	3602.18769790535
0.349578857421875	-0.00191558837890625	3602.63020290423
0.34515380859375	-0.0019207763671875	3603.07270790312
0.340728759765625	-0.0019256591796875	3603.515212902
0.3363037109375	-0.00193084716796875	3603.95771790088
0.331878662109375	-0.00193603515625	3604.40022289976
0.32745361328125	-0.00194091796875	3604.84272789865
0.323028564453125	-0.00194610595703125	3605.28523289753
0.318603515625	-0.0019512939453125	3605.72773789641
0.314178466796875	-0.0019561767578125	3606.1702428953
0.30975341796875	-0.00196441650390625	3606.61274789418
0.305328369140625	-0.00196929931640625	3607.05525289306
0.3009033203125	-0.00197479248046875	3607.49775789194
0.296478271484375	-0.00198028564453125	3607.94026289083
0.29205322265625	-0.00198577880859375	3608.38276788971
0.287628173828125	-0.00199188232421875	3608.82527288859
0.283203125	-0.001998291015625	3609.26777788747
0.278778076171875	-0.00200439453125	3609.71028288636
0.27435302734375	-0.00201080322265625	3610.15278788524
0.269927978515625	-0.0020166015625	3610.59529288412
0.2655029296875	-0.00202362060546875	3611.03779788301
0.261077880859375	-0.00203033447265625	3611.48030288189
0.25665283203125	-0.0020367431640625	3611.92280788077
0.252227783203125	-0.0020440673828125	3612.36531287965
0.247802734375	-0.00205108642578125	3612.80781787854
0.243377685546875	-0.0020574951171875	3613.25032287742
0.23895263671875	-0.0020648193359375	3613.6928278763
0.234527587890625	-0.00207275390625	3614.13533287519
0.2301025390625	-0.0020782470703125	3614.57783787407
0.225677490234375	-0.002086181640625	3615.02034287295
0.22125244140625	-0.00209320068359375	3615.46284787183
0.216827392578125	-0.00210113525390625	3615.90535287072
0.21240234375	-0.00210906982421875	3616.3478578696
0.207977294921875	-0.00211639404296875	3616.79036286848
0.20355224609375	-0.0021246337890625	3617.23286786736
0.199127197265625	-0.002132568359375	3617.67537286625
0.1947021484375	-0.0021405029296875	3618.11787786513
0.190277099609375	-0.0021490478515625	3618.56038286401
0.18585205078125	-0.0021575927734375	3619.0028878629
0.181427001953125	-0.00216583251953125	3619.44539286178
0.177001953125	-0.00217529296875	3619.88789786066
0.172576904296875	-0.002183837890625	3620.33040285954
0.16815185546875	-0.00219268798828125	3620.77290785843
0.163726806640625	-0.0022021484375	3621.21541285731
0.1593017578125	-0.0022119140625	3621.65791785619
0.154876708984375	-0.0022210693359375	3622.10042285508
0.15045166015625	-0.0022314453125	3622.54292785396
0.146026611328125	-0.002242431640625	3622.98543285284
0.1416015625	-0.00225341796875	3623.42793785172
0.137176513671875	-0.002264404296875	3623.87044285061
0.13275146484375	-0.0022760009765625	3624.31294784949
0.128326416015625	-0.00228790283203125	3624.75545284837
0.1239013671875	-0.0022998046875	3625.19795784726
0.119476318359375	-0.00231201171875	3625.64046284614
0.11505126953125	-0.00232208251953125	3626.08296784502
0.110626220703125	-0.00233612060546875	3626.5254728439
0.106201171875	-0.00235015869140625	3626.96797784279
0.101776123046875	-0.00236328125	3627.41048284167
0.09735107421875	-0.002376708984375	3627.85298784055
0.092926025390625	-0.00239166259765625	3628.29549283943
0.0885009765625	-0.00240570068359375	3628.73799783832
0.084075927734375	-0.00242034912109375	3629.1805028372
0.07965087890625	-0.00243499755859375	3629.62300783608
0.075225830078125	-0.00244903564453125	3630.06551283497
0.07080078125	-0.0024652099609375	3630.50801783385
0.066375732421875	-0.00248077392578125	3630.95052283273
0.06195068359375	-0.0024969482421875	3631.39302783161
0.057525634765625	-0.00251312255859375	3631.8355328305
0.0531005859375	-0.002529296875	3632.27803782938
0.048675537109375	-0.0025457763671875	3632.72054282826
0.04425048828125	-0.002562255859375	3633.16304782714
0.039825439453125	-0.00257965087890625	3633.60555282603
0.035400390625	-0.0025970458984375	3634.04805782491
0.030975341796875	-0.00261444091796875	3634.49056282379
0.02655029296875	-0.00263275146484375	3634.93306782268
0.022125244140625	-0.0026513671875	3635.37557282156
0.0177001953125	-0.0026702880859375	3635.81807782044
0.013275146484375	-0.0026904296875	3636.26058281932
0.00885009765625	-0.00270965576171875	3636.70308781821
0.004425048828125	-0.00273101806640625	3637.14559281709
0	-0.002752685546875	3637.58809781597
0.004425048828125	-0.00193359375	3638.03060281486
0.00885009765625	-0.0012945556640625	3638.47310781374
0.013275146484375	-0.0007843017578125	3638.91561281262
