Potential applied (V)	WE(1).Current (A)	Time (s)
0.004425048828125	-0.015869140625	3957.61256800799
0.00885009765625	-0.0149444580078125	3957.65681800788
0.013275146484375	-0.0140594482421875	3957.70106800777
0.0177001953125	-0.0132080078125	3957.74531800765
0.022125244140625	-0.0123809814453125	3957.78956800754
0.02655029296875	-0.0115814208984375	3957.83381800743
0.030975341796875	-0.010809326171875	3957.87806800732
0.035400390625	-0.01005859375	3957.92231800721
0.039825439453125	-0.0093292236328125	3957.96656800709
0.04425048828125	-0.0086181640625	3958.01081800698
0.048675537109375	-0.0079254150390625	3958.05506800687
0.0531005859375	-0.007257080078125	3958.09931800676
0.057525634765625	-0.0066070556640625	3958.14356800665
0.06195068359375	-0.0059722900390625	3958.18781800654
0.066375732421875	-0.005352783203125	3958.23206800642
0.07080078125	-0.00475372314453125	3958.27631800631
0.075225830078125	-0.00416778564453125	3958.3205680062
0.07965087890625	-0.00359954833984375	3958.36481800609
0.084075927734375	-0.00304412841796875	3958.40906800598
0.0885009765625	-0.0025030517578125	3958.45331800587
0.092926025390625	-0.00198486328125	3958.49756800575
0.09735107421875	-0.0014691162109375	3958.54181800564
0.101776123046875	-0.00096771240234375	3958.58606800553
0.106201171875	-0.00047930908203125	3958.63031800542
0.110626220703125	-2.73742675781249E-06	3958.67456800531
0.11505126953125	0.00046124267578125	3958.7188180052
0.119476318359375	0.0009112548828125	3958.76306800508
0.1239013671875	0.00135284423828125	3958.80731800497
0.128326416015625	0.00178314208984375	3958.85156800486
0.13275146484375	0.00220245361328125	3958.89581800475
0.137176513671875	0.00261138916015625	3958.94006800464
0.1416015625	0.00300933837890625	3958.98431800453
0.146026611328125	0.0033990478515625	3959.02856800441
0.15045166015625	0.00377655029296875	3959.0728180043
0.154876708984375	0.0041448974609375	3959.11706800419
0.1593017578125	0.00450286865234375	3959.16131800408
0.163726806640625	0.00485260009765625	3959.20556800397
0.16815185546875	0.00519317626953125	3959.24981800386
0.172576904296875	0.00552459716796875	3959.29406800374
0.177001953125	0.00584716796875	3959.33831800363
0.181427001953125	0.0061627197265625	3959.38256800352
0.18585205078125	0.00645751953125	3959.42681800341
0.190277099609375	0.006756591796875	3959.4710680033
0.1947021484375	0.0070465087890625	3959.51531800318
0.199127197265625	0.0073272705078125	3959.55956800307
0.20355224609375	0.007598876953125	3959.60381800296
0.207977294921875	0.0078643798828125	3959.64806800285
0.21240234375	0.0081268310546875	3959.69231800274
0.216827392578125	0.008380126953125	3959.73656800263
0.22125244140625	0.0086273193359375	3959.78081800251
0.225677490234375	0.0088653564453125	3959.8250680024
0.2301025390625	0.0090972900390625	3959.86931800229
0.234527587890625	0.0093231201171875	3959.91356800218
0.23895263671875	0.0095367431640625	3959.95781800207
0.243377685546875	0.00975341796875	3960.00206800196
0.247802734375	0.0099609375	3960.04631800184
0.252227783203125	0.010162353515625	3960.09056800173
0.25665283203125	0.010357666015625	3960.13481800162
0.261077880859375	0.010546875	3960.17906800151
0.2655029296875	0.0107330322265625	3960.2233180014
0.269927978515625	0.0109130859375	3960.26756800129
0.27435302734375	0.0110809326171875	3960.31181800117
0.278778076171875	0.0112518310546875	3960.35606800106
0.283203125	0.0114166259765625	3960.40031800095
0.287628173828125	0.011578369140625	3960.44456800084
0.29205322265625	0.0117340087890625	3960.48881800073
0.296478271484375	0.011883544921875	3960.53306800062
0.3009033203125	0.0120269775390625	3960.5773180005
0.305328369140625	0.0121673583984375	3960.62156800039
0.30975341796875	0.0123046875	3960.66581800028
0.314178466796875	0.012445068359375	3960.71006800017
0.318603515625	0.0125762939453125	3960.75431800006
0.323028564453125	0.0126983642578125	3960.79856799994
0.32745361328125	0.0128173828125	3960.84281799983
0.331878662109375	0.0129425048828125	3960.88706799972
0.3363037109375	0.0130645751953125	3960.93131799961
0.340728759765625	0.0131805419921875	3960.9755679995
0.34515380859375	0.013287353515625	3961.01981799939
0.349578857421875	0.01339111328125	3961.06406799927
0.35400390625	0.0134918212890625	3961.10831799916
0.358428955078125	0.0135894775390625	3961.15256799905
0.36285400390625	0.0136871337890625	3961.19681799894
0.367279052734375	0.0137786865234375	3961.24106799883
0.3717041015625	0.0138702392578125	3961.28531799872
0.376129150390625	0.013958740234375	3961.3295679986
0.38055419921875	0.014044189453125	3961.37381799849
0.384979248046875	0.01412353515625	3961.41806799838
0.389404296875	0.014202880859375	3961.46231799827
0.393829345703125	0.0142791748046875	3961.50656799816
0.39825439453125	0.01435546875	3961.55081799805
0.402679443359375	0.0144317626953125	3961.59506799793
0.4071044921875	0.014501953125	3961.63931799782
0.411529541015625	0.0145721435546875	3961.68356799771
0.41595458984375	0.014642333984375	3961.7278179976
0.420379638671875	0.0147064208984375	3961.77206799749
0.4248046875	0.0147705078125	3961.81631799738
0.429229736328125	0.0148345947265625	3961.86056799726
0.43365478515625	0.014892578125	3961.90481799715
0.438079833984375	0.01495361328125	3961.94906799704
0.4425048828125	0.015008544921875	3961.99331799693
0.446929931640625	0.0150665283203125	3962.03756799682
0.45135498046875	0.0151214599609375	3962.08181799671
0.455780029296875	0.01517333984375	3962.12606799659
0.460205078125	0.01522216796875	3962.17031799648
0.464630126953125	0.0152740478515625	3962.21456799637
0.46905517578125	0.01531982421875	3962.25881799626
0.473480224609375	0.01536865234375	3962.30306799615
0.4779052734375	0.0154144287109375	3962.34731799603
0.482330322265625	0.0154571533203125	3962.39156799592
0.48675537109375	0.0154998779296875	3962.43581799581
0.491180419921875	0.0155426025390625	3962.4800679957
0.49560546875	0.015582275390625	3962.52431799559
0.500030517578125	0.0156219482421875	3962.56856799548
0.50445556640625	0.015655517578125	3962.61281799536
0.508880615234375	0.015692138671875	3962.65706799525
0.5133056640625	0.0157257080078125	3962.70131799514
0.517730712890625	0.01575927734375	3962.74556799503
0.52215576171875	0.0157928466796875	3962.78981799492
0.526580810546875	0.0158233642578125	3962.83406799481
0.531005859375	0.015850830078125	3962.87831799469
0.535430908203125	0.01588134765625	3962.92256799458
0.53985595703125	0.01590576171875	3962.96681799447
0.544281005859375	0.01593017578125	3963.01106799436
0.5487060546875	0.01595458984375	3963.05531799425
0.553131103515625	0.01597900390625	3963.09956799414
0.55755615234375	0.015997314453125	3963.14381799402
0.561981201171875	0.0160186767578125	3963.18806799391
0.56640625	0.0160369873046875	3963.2323179938
0.570831298828125	0.0160552978515625	3963.27656799369
0.57525634765625	0.0160736083984375	3963.32081799358
0.579681396484375	0.0160888671875	3963.36506799347
0.5841064453125	0.0161041259765625	3963.40931799335
0.588531494140625	0.0161163330078125	3963.45356799324
0.59295654296875	0.01612548828125	3963.49781799313
0.597381591796875	0.0161376953125	3963.54206799302
0.601806640625	0.0161468505859375	3963.58631799291
0.606231689453125	0.0161590576171875	3963.63056799279
0.61065673828125	0.0161651611328125	3963.67481799268
0.615081787109375	0.01617431640625	3963.71906799257
0.6195068359375	0.016180419921875	3963.76331799246
0.623931884765625	0.0161865234375	3963.80756799235
0.62835693359375	0.01619873046875	3963.85181799224
0.632781982421875	0.0162017822265625	3963.89606799212
0.63720703125	0.0162078857421875	3963.94031799201
0.641632080078125	0.0162109375	3963.9845679919
0.64605712890625	0.0162139892578125	3964.02881799179
0.650482177734375	0.016217041015625	3964.07306799168
0.6549072265625	0.016217041015625	3964.11731799157
0.659332275390625	0.0162200927734375	3964.16156799145
0.66375732421875	0.0162200927734375	3964.20581799134
0.668182373046875	0.0162200927734375	3964.25006799123
0.672607421875	0.01622314453125	3964.29431799112
0.677032470703125	0.0162200927734375	3964.33856799101
0.68145751953125	0.0162200927734375	3964.3828179909
0.685882568359375	0.0162200927734375	3964.42706799078
0.6903076171875	0.01622314453125	3964.47131799067
0.694732666015625	0.0162200927734375	3964.51556799056
0.69915771484375	0.01622314453125	3964.55981799045
0.703582763671875	0.0162200927734375	3964.60406799034
0.7080078125	0.0162200927734375	3964.64831799023
0.712432861328125	0.01622314453125	3964.69256799011
0.71685791015625	0.01622314453125	3964.73681799
0.721282958984375	0.0162261962890625	3964.78106798989
0.7257080078125	0.0162261962890625	3964.82531798978
0.730133056640625	0.016229248046875	3964.86956798967
0.73455810546875	0.0162322998046875	3964.91381798955
0.738983154296875	0.0162353515625	3964.95806798944
0.743408203125	0.0162353515625	3965.00231798933
0.747833251953125	0.016241455078125	3965.04656798922
0.75225830078125	0.01624755859375	3965.09081798911
0.756683349609375	0.016253662109375	3965.135067989
0.7611083984375	0.016259765625	3965.17931798888
0.765533447265625	0.0162689208984375	3965.22356798877
0.76995849609375	0.016278076171875	3965.26781798866
0.774383544921875	0.016290283203125	3965.31206798855
0.77880859375	0.0162994384765625	3965.35631798844
0.783233642578125	0.0163116455078125	3965.40056798833
0.78765869140625	0.016326904296875	3965.44481798821
0.792083740234375	0.016339111328125	3965.4890679881
0.7965087890625	0.0163543701171875	3965.53331798799
0.800933837890625	0.0163726806640625	3965.57756798788
0.80535888671875	0.01639404296875	3965.62181798777
0.809783935546875	0.016412353515625	3965.66606798766
0.814208984375	0.016436767578125	3965.71031798754
0.818634033203125	0.016461181640625	3965.75456798743
0.82305908203125	0.016485595703125	3965.79881798732
0.827484130859375	0.0165130615234375	3965.84306798721
0.8319091796875	0.01654052734375	3965.8873179871
0.836334228515625	0.016571044921875	3965.93156798699
0.84075927734375	0.0166046142578125	3965.97581798687
0.845184326171875	0.01663818359375	3966.02006798676
0.849609375	0.0166748046875	3966.06431798665
0.854034423828125	0.0167144775390625	3966.10856798654
0.85845947265625	0.016754150390625	3966.15281798643
0.862884521484375	0.0167938232421875	3966.19706798632
0.8673095703125	0.016839599609375	3966.2413179862
0.871734619140625	0.0168853759765625	3966.28556798609
0.87615966796875	0.01693115234375	3966.32981798598
0.880584716796875	0.0169830322265625	3966.37406798587
0.885009765625	0.0170318603515625	3966.41831798576
0.889434814453125	0.0170867919921875	3966.46256798564
0.89385986328125	0.017138671875	3966.50681798553
0.898284912109375	0.0171966552734375	3966.55106798542
0.9027099609375	0.0172515869140625	3966.59531798531
0.907135009765625	0.0173126220703125	3966.6395679852
0.91156005859375	0.0173736572265625	3966.68381798509
0.915985107421875	0.0174407958984375	3966.72806798497
0.92041015625	0.0175048828125	3966.77231798486
0.924835205078125	0.0175750732421875	3966.81656798475
0.92926025390625	0.0176422119140625	3966.86081798464
0.933685302734375	0.0177154541015625	3966.90506798453
0.9381103515625	0.017791748046875	3966.94931798442
0.942535400390625	0.01787109375	3966.9935679843
0.94696044921875	0.0179473876953125	3967.03781798419
0.951385498046875	0.0180267333984375	3967.08206798408
0.955810546875	0.0181121826171875	3967.12631798397
0.960235595703125	0.018194580078125	3967.17056798386
0.96466064453125	0.0182830810546875	3967.21481798375
0.969085693359375	0.01837158203125	3967.25906798363
0.9735107421875	0.0184600830078125	3967.30331798352
0.977935791015625	0.0185546875	3967.34756798341
0.98236083984375	0.0186492919921875	3967.3918179833
0.986785888671875	0.0187469482421875	3967.43606798319
0.9912109375	0.01884765625	3967.48031798308
0.995635986328125	0.018951416015625	3967.52456798296
1.00006103515625	0.0190582275390625	3967.56881798285
0.995635986328125	0.01805419921875	3967.61306798274
0.9912109375	0.01710205078125	3967.65731798263
0.986785888671875	0.016192626953125	3967.70156798252
0.98236083984375	0.01531982421875	3967.7458179824
0.977935791015625	0.0144775390625	3967.79006798229
0.9735107421875	0.0136688232421875	3967.83431798218
0.969085693359375	0.0128814697265625	3967.87856798207
0.96466064453125	0.01212158203125	3967.92281798196
0.960235595703125	0.011383056640625	3967.96706798185
0.955810546875	0.0106689453125	3968.01131798173
0.951385498046875	0.00997314453125	3968.05556798162
0.94696044921875	0.0092987060546875	3968.09981798151
0.942535400390625	0.0086395263671875	3968.1440679814
0.9381103515625	0.0079986572265625	3968.18831798129
0.933685302734375	0.0073760986328125	3968.23256798118
0.92926025390625	0.006768798828125	3968.27681798106
0.924835205078125	0.0061798095703125	3968.32106798095
0.92041015625	0.0055999755859375	3968.36531798084
0.915985107421875	0.00504150390625	3968.40956798073
0.91156005859375	0.00449310302734375	3968.45381798062
0.907135009765625	0.00395965576171875	3968.49806798051
0.9027099609375	0.00343963623046875	3968.54231798039
0.898284912109375	0.00293243408203125	3968.58656798028
0.89385986328125	0.00243743896484375	3968.63081798017
0.889434814453125	0.0019549560546875	3968.67506798006
0.885009765625	0.0014825439453125	3968.71931797995
0.880584716796875	0.001021728515625	3968.76356797983
0.87615966796875	0.000572509765625	3968.80781797972
0.871734619140625	0.000133819580078125	3968.85206797961
0.8673095703125	-0.000293548583984375	3968.8963179795
0.862884521484375	-0.00071044921875	3968.94056797939
0.85845947265625	-0.00111602783203125	3968.98481797928
0.854034423828125	-0.001512451171875	3969.02906797917
0.849609375	-0.00189910888671875	3969.07331797905
0.845184326171875	-0.00227630615234375	3969.11756797894
0.84075927734375	-0.00264404296875	3969.16181797883
0.836334228515625	-0.00300262451171875	3969.20606797872
0.8319091796875	-0.00335174560546875	3969.25031797861
0.827484130859375	-0.00369171142578125	3969.29456797849
0.82305908203125	-0.00402313232421875	3969.33881797838
0.818634033203125	-0.00434539794921875	3969.38306797827
0.814208984375	-0.00465911865234375	3969.42731797816
0.809783935546875	-0.004964599609375	3969.47156797805
0.80535888671875	-0.00526275634765625	3969.51581797794
0.800933837890625	-0.0055517578125	3969.56006797782
0.7965087890625	-0.0058331298828125	3969.60431797771
0.792083740234375	-0.0061065673828125	3969.6485679776
0.78765869140625	-0.00634765625	3969.69281797749
0.783233642578125	-0.0066070556640625	3969.73706797738
0.77880859375	-0.0068572998046875	3969.78131797727
0.774383544921875	-0.0071014404296875	3969.82556797715
0.76995849609375	-0.00733642578125	3969.86981797704
0.765533447265625	-0.007568359375	3969.91406797693
0.7611083984375	-0.0077911376953125	3969.95831797682
0.756683349609375	-0.0080047607421875	3970.00256797671
0.75225830078125	-0.00821533203125	3970.0468179766
0.747833251953125	-0.0084197998046875	3970.09106797648
0.743408203125	-0.0086181640625	3970.13531797637
0.738983154296875	-0.0088043212890625	3970.17956797626
0.73455810546875	-0.0089935302734375	3970.22381797615
0.730133056640625	-0.009173583984375	3970.26806797604
0.7257080078125	-0.0093475341796875	3970.31231797592
0.721282958984375	-0.009515380859375	3970.35656797581
0.71685791015625	-0.00968017578125	3970.4008179757
0.712432861328125	-0.0098419189453125	3970.44506797559
0.7080078125	-0.00999755859375	3970.48931797548
0.703582763671875	-0.0101470947265625	3970.53356797537
0.69915771484375	-0.01029052734375	3970.57781797525
0.694732666015625	-0.010430908203125	3970.62206797514
0.6903076171875	-0.0105682373046875	3970.66631797503
0.685882568359375	-0.010699462890625	3970.71056797492
0.68145751953125	-0.01082763671875	3970.75481797481
0.677032470703125	-0.01094970703125	3970.7990679747
0.672607421875	-0.01107177734375	3970.84331797458
0.668182373046875	-0.011187744140625	3970.88756797447
0.66375732421875	-0.0113006591796875	3970.93181797436
0.659332275390625	-0.01141357421875	3970.97606797425
0.6549072265625	-0.0115203857421875	3971.02031797414
0.650482177734375	-0.01162109375	3971.06456797403
0.64605712890625	-0.0117156982421875	3971.10881797391
0.641632080078125	-0.01181640625	3971.1530679738
0.63720703125	-0.0119140625	3971.19731797369
0.632781982421875	-0.012005615234375	3971.24156797358
0.62835693359375	-0.0121002197265625	3971.28581797347
0.623931884765625	-0.0121917724609375	3971.33006797336
0.6195068359375	-0.0122772216796875	3971.37431797324
0.615081787109375	-0.0123626708984375	3971.41856797313
0.61065673828125	-0.0124420166015625	3971.46281797302
0.606231689453125	-0.0125152587890625	3971.50706797291
0.601806640625	-0.012591552734375	3971.5513179728
0.597381591796875	-0.012664794921875	3971.59556797268
0.59295654296875	-0.012738037109375	3971.63981797257
0.588531494140625	-0.012811279296875	3971.68406797246
0.5841064453125	-0.01287841796875	3971.72831797235
0.579681396484375	-0.012945556640625	3971.77256797224
0.57525634765625	-0.0130126953125	3971.81681797213
0.570831298828125	-0.0130767822265625	3971.86106797202
0.56640625	-0.013140869140625	3971.9053179719
0.561981201171875	-0.013201904296875	3971.94956797179
0.55755615234375	-0.0132598876953125	3971.99381797168
0.553131103515625	-0.01331787109375	3972.03806797157
0.5487060546875	-0.0133758544921875	3972.08231797146
0.544281005859375	-0.0134307861328125	3972.12656797134
0.53985595703125	-0.0134857177734375	3972.17081797123
0.535430908203125	-0.0135406494140625	3972.21506797112
0.531005859375	-0.0135955810546875	3972.25931797101
0.526580810546875	-0.0136444091796875	3972.3035679709
0.52215576171875	-0.0136962890625	3972.34781797079
0.517730712890625	-0.0137481689453125	3972.39206797067
0.5133056640625	-0.0137969970703125	3972.43631797056
0.508880615234375	-0.0138458251953125	3972.48056797045
0.50445556640625	-0.0138946533203125	3972.52481797034
0.500030517578125	-0.0139434814453125	3972.56906797023
0.49560546875	-0.0139923095703125	3972.61331797012
0.491180419921875	-0.0140380859375	3972.65756797
0.48675537109375	-0.014080810546875	3972.70181796989
0.482330322265625	-0.0141265869140625	3972.74606796978
0.4779052734375	-0.01417236328125	3972.79031796967
0.473480224609375	-0.0142181396484375	3972.83456796956
0.46905517578125	-0.014263916015625	3972.87881796945
0.464630126953125	-0.014306640625	3972.92306796933
0.460205078125	-0.0143524169921875	3972.96731796922
0.455780029296875	-0.014398193359375	3973.01156796911
0.45135498046875	-0.01444091796875	3973.055817969
0.446929931640625	-0.0144866943359375	3973.10006796889
0.4425048828125	-0.0145294189453125	3973.14431796877
0.438079833984375	-0.0145721435546875	3973.18856796866
0.43365478515625	-0.014617919921875	3973.23281796855
0.429229736328125	-0.01466064453125	3973.27706796844
0.4248046875	-0.0147064208984375	3973.32131796833
0.420379638671875	-0.0147491455078125	3973.36556796822
0.41595458984375	-0.0147918701171875	3973.4098179681
0.411529541015625	-0.0148345947265625	3973.45406796799
0.4071044921875	-0.0148773193359375	3973.49831796788
0.402679443359375	-0.014923095703125	3973.54256796777
0.39825439453125	-0.0149658203125	3973.58681796766
0.393829345703125	-0.0150115966796875	3973.63106796755
0.389404296875	-0.0150543212890625	3973.67531796743
0.384979248046875	-0.0150970458984375	3973.71956796732
0.38055419921875	-0.015142822265625	3973.76381796721
0.376129150390625	-0.0151885986328125	3973.8080679671
0.3717041015625	-0.015234375	3973.85231796699
0.367279052734375	-0.015277099609375	3973.89656796688
0.36285400390625	-0.0153228759765625	3973.94081796676
0.358428955078125	-0.01536865234375	3973.98506796665
0.35400390625	-0.0154144287109375	3974.02931796654
0.349578857421875	-0.0154571533203125	3974.07356796643
0.34515380859375	-0.0155029296875	3974.11781796632
0.340728759765625	-0.015545654296875	3974.16206796621
0.3363037109375	-0.015594482421875	3974.20631796609
0.331878662109375	-0.0156402587890625	3974.25056796598
0.32745361328125	-0.01568603515625	3974.29481796587
0.323028564453125	-0.01573486328125	3974.33906796576
0.318603515625	-0.0157806396484375	3974.38331796565
0.314178466796875	-0.0158294677734375	3974.42756796553
0.30975341796875	-0.0158782958984375	3974.47181796542
0.305328369140625	-0.015924072265625	3974.51606796531
0.3009033203125	-0.015972900390625	3974.5603179652
0.296478271484375	-0.016021728515625	3974.60456796509
0.29205322265625	-0.016070556640625	3974.64881796498
0.287628173828125	-0.016119384765625	3974.69306796486
0.283203125	-0.0161651611328125	3974.73731796475
0.278778076171875	-0.0162139892578125	3974.78156796464
0.27435302734375	-0.0162628173828125	3974.82581796453
0.269927978515625	-0.0163116455078125	3974.87006796442
0.2655029296875	-0.016357421875	3974.91431796431
0.261077880859375	-0.01640625	3974.95856796419
0.25665283203125	-0.016455078125	3975.00281796408
0.252227783203125	-0.01650390625	3975.04706796397
0.247802734375	-0.0165496826171875	3975.09131796386
0.243377685546875	-0.0165985107421875	3975.13556796375
0.23895263671875	-0.0166473388671875	3975.17981796364
0.234527587890625	-0.0166961669921875	3975.22406796352
0.2301025390625	-0.016741943359375	3975.26831796341
0.225677490234375	-0.016790771484375	3975.3125679633
0.22125244140625	-0.016839599609375	3975.35681796319
0.216827392578125	-0.016888427734375	3975.40106796308
0.21240234375	-0.016937255859375	3975.44531796297
0.207977294921875	-0.016986083984375	3975.48956796285
0.20355224609375	-0.017034912109375	3975.53381796274
0.199127197265625	-0.017083740234375	3975.57806796263
0.1947021484375	-0.017132568359375	3975.62231796252
0.190277099609375	-0.0171783447265625	3975.66656796241
0.18585205078125	-0.0172271728515625	3975.7108179623
0.181427001953125	-0.01727294921875	3975.75506796218
0.177001953125	-0.0173248291015625	3975.79931796207
0.172576904296875	-0.0173736572265625	3975.84356796196
0.16815185546875	-0.0174224853515625	3975.88781796185
0.163726806640625	-0.0174713134765625	3975.93206796174
0.1593017578125	-0.0175201416015625	3975.97631796162
0.154876708984375	-0.0175689697265625	3976.02056796151
0.15045166015625	-0.0176177978515625	3976.0648179614
0.146026611328125	-0.0176666259765625	3976.10906796129
0.1416015625	-0.017718505859375	3976.15331796118
0.137176513671875	-0.0177642822265625	3976.19756796107
0.13275146484375	-0.017816162109375	3976.24181796095
0.128326416015625	-0.017864990234375	3976.28606796084
0.1239013671875	-0.017913818359375	3976.33031796073
0.119476318359375	-0.017962646484375	3976.37456796062
0.11505126953125	-0.018011474609375	3976.41881796051
0.110626220703125	-0.0180572509765625	3976.4630679604
0.106201171875	-0.018109130859375	3976.50731796028
0.101776123046875	-0.0181610107421875	3976.55156796017
0.09735107421875	-0.0182098388671875	3976.59581796006
0.092926025390625	-0.01826171875	3976.64006795995
0.0885009765625	-0.018310546875	3976.68431795984
0.084075927734375	-0.0183624267578125	3976.72856795973
0.07965087890625	-0.018414306640625	3976.77281795961
0.075225830078125	-0.018463134765625	3976.8170679595
0.07080078125	-0.0185150146484375	3976.86131795939
0.066375732421875	-0.01856689453125	3976.90556795928
0.06195068359375	-0.0186187744140625	3976.94981795917
0.057525634765625	-0.018670654296875	3976.99406795906
0.0531005859375	-0.0187225341796875	3977.03831795894
0.048675537109375	-0.0187744140625	3977.08256795883
0.04425048828125	-0.018829345703125	3977.12681795872
0.039825439453125	-0.0188812255859375	3977.17106795861
0.035400390625	-0.0189361572265625	3977.2153179585
0.030975341796875	-0.0189910888671875	3977.25956795838
0.02655029296875	-0.0190460205078125	3977.30381795827
0.022125244140625	-0.0191009521484375	3977.34806795816
0.0177001953125	-0.0191558837890625	3977.39231795805
0.013275146484375	-0.0192138671875	3977.43656795794
0.00885009765625	-0.0192718505859375	3977.48081795783
0.004425048828125	-0.019329833984375	3977.52506795771
0	-0.019390869140625	3977.5693179576
0.004425048828125	-0.0183441162109375	3977.61356795749
0.00885009765625	-0.01734619140625	3977.65781795738
0.013275146484375	-0.0163909912109375	3977.70206795727
0.0177001953125	-0.015472412109375	3977.74631795716
0.022125244140625	-0.014581298828125	3977.79056795704
0.02655029296875	-0.0137237548828125	3977.83481795693
0.030975341796875	-0.012890625	3977.87906795682
0.035400390625	-0.0120819091796875	3977.92331795671
0.039825439453125	-0.011297607421875	3977.9675679566
0.04425048828125	-0.010540771484375	3978.01181795649
0.048675537109375	-0.00980224609375	3978.05606795637
0.0531005859375	-0.0090850830078125	3978.10031795626
0.057525634765625	-0.0083892822265625	3978.14456795615
0.06195068359375	-0.00771484375	3978.18881795604
0.066375732421875	-0.0070526123046875	3978.23306795593
0.07080078125	-0.00640869140625	3978.27731795582
0.075225830078125	-0.0057861328125	3978.3215679557
0.07965087890625	-0.0051788330078125	3978.36581795559
0.084075927734375	-0.00458648681640625	3978.41006795548
0.0885009765625	-0.00400970458984375	3978.45431795537
0.092926025390625	-0.00344696044921875	3978.49856795526
0.09735107421875	-0.002899169921875	3978.54281795514
0.101776123046875	-0.00236541748046875	3978.58706795503
0.106201171875	-0.00185394287109375	3978.63131795492
0.110626220703125	-0.00134521484375	3978.67556795481
0.11505126953125	-0.000849609375	3978.7198179547
0.119476318359375	-0.000369903564453125	3978.76406795459
0.1239013671875	0.0001005859375	3978.80831795447
0.128326416015625	0.00055938720703125	3978.85256795436
0.13275146484375	0.00100738525390625	3978.89681795425
0.137176513671875	0.00144378662109375	3978.94106795414
0.1416015625	0.001868896484375	3978.98531795403
0.146026611328125	0.00228363037109375	3979.02956795392
0.15045166015625	0.00268707275390625	3979.0738179538
0.154876708984375	0.0030810546875	3979.11806795369
0.1593017578125	0.0034637451171875	3979.16231795358
0.163726806640625	0.00383941650390625	3979.20656795347
0.16815185546875	0.0042041015625	3979.25081795336
0.172576904296875	0.00455963134765625	3979.29506795325
0.177001953125	0.004906005859375	3979.33931795313
0.181427001953125	0.00524322509765625	3979.38356795302
0.18585205078125	0.0055712890625	3979.42781795291
0.190277099609375	0.0058917236328125	3979.4720679528
0.1947021484375	0.0062042236328125	3979.51631795269
0.199127197265625	0.0064971923828125	3979.56056795258
0.20355224609375	0.006793212890625	3979.60481795246
0.207977294921875	0.007080078125	3979.64906795235
0.21240234375	0.00736083984375	3979.69331795224
0.216827392578125	0.0076324462890625	3979.73756795213
0.22125244140625	0.0078948974609375	3979.78181795202
0.225677490234375	0.0081512451171875	3979.82606795191
0.2301025390625	0.008404541015625	3979.87031795179
0.234527587890625	0.0086456298828125	3979.91456795168
0.23895263671875	0.0088836669921875	3979.95881795157
0.243377685546875	0.0091156005859375	3980.00306795146
0.247802734375	0.0093414306640625	3980.04731795135
0.252227783203125	0.0095550537109375	3980.09156795123
0.25665283203125	0.0097686767578125	3980.13581795112
0.261077880859375	0.00997314453125	3980.18006795101
0.2655029296875	0.010174560546875	3980.2243179509
0.269927978515625	0.010369873046875	3980.26856795079
0.27435302734375	0.01055908203125	3980.31281795068
0.278778076171875	0.0107421875	3980.35706795056
0.283203125	0.010919189453125	3980.40131795045
0.287628173828125	0.011090087890625	3980.44556795034
0.29205322265625	0.0112579345703125	3980.48981795023
0.296478271484375	0.0114227294921875	3980.53406795012
0.3009033203125	0.0115814208984375	3980.57831795001
0.305328369140625	0.0117340087890625	3980.62256794989
0.30975341796875	0.011883544921875	3980.66681794978
0.314178466796875	0.0120330810546875	3980.71106794967
0.318603515625	0.0121734619140625	3980.75531794956
0.323028564453125	0.012310791015625	3980.79956794945
0.32745361328125	0.0124420166015625	3980.84381794934
0.331878662109375	0.012567138671875	3980.88806794922
0.3363037109375	0.0126953125	3980.93231794911
0.340728759765625	0.0128173828125	3980.976567949
0.34515380859375	0.0129364013671875	3981.02081794889
0.349578857421875	0.0130523681640625	3981.06506794878
0.35400390625	0.0131622314453125	3981.10931794867
0.358428955078125	0.01326904296875	3981.15356794855
0.36285400390625	0.013372802734375	3981.19781794844
0.367279052734375	0.0134735107421875	3981.24206794833
0.3717041015625	0.0135711669921875	3981.28631794822
0.376129150390625	0.013665771484375	3981.33056794811
0.38055419921875	0.01375732421875	3981.37481794799
0.384979248046875	0.0138519287109375	3981.41906794788
0.389404296875	0.0139404296875	3981.46331794777
0.393829345703125	0.0140228271484375	3981.50756794766
0.39825439453125	0.0140960693359375	3981.55181794755
0.402679443359375	0.014178466796875	3981.59606794744
0.4071044921875	0.0142578125	3981.64031794732
0.411529541015625	0.0143341064453125	3981.68456794721
0.41595458984375	0.0144073486328125	3981.7288179471
0.420379638671875	0.0144805908203125	3981.77306794699
0.4248046875	0.0145477294921875	3981.81731794688
0.429229736328125	0.0146148681640625	3981.86156794677
0.43365478515625	0.014678955078125	3981.90581794665
0.438079833984375	0.0147430419921875	3981.95006794654
0.4425048828125	0.014801025390625	3981.99431794643
0.446929931640625	0.0148590087890625	3982.03856794632
0.45135498046875	0.0149169921875	3982.08281794621
0.455780029296875	0.0149688720703125	3982.1270679461
0.460205078125	0.0150238037109375	3982.17131794598
0.464630126953125	0.01507568359375	3982.21556794587
0.46905517578125	0.01512451171875	3982.25981794576
0.473480224609375	0.01517333984375	3982.30406794565
0.4779052734375	0.015216064453125	3982.34831794554
0.482330322265625	0.015264892578125	3982.39256794543
0.48675537109375	0.0153076171875	3982.43681794531
0.491180419921875	0.015350341796875	3982.4810679452
0.49560546875	0.01539306640625	3982.52531794509
0.500030517578125	0.0154327392578125	3982.56956794498
0.50445556640625	0.0154693603515625	3982.61381794487
0.508880615234375	0.0155059814453125	3982.65806794476
0.5133056640625	0.01553955078125	3982.70231794464
0.517730712890625	0.0155731201171875	3982.74656794453
0.52215576171875	0.0156036376953125	3982.79081794442
0.526580810546875	0.0156341552734375	3982.83506794431
0.531005859375	0.01566162109375	3982.8793179442
0.535430908203125	0.0156890869140625	3982.92356794408
0.53985595703125	0.015716552734375	3982.96781794397
0.544281005859375	0.015740966796875	3983.01206794386
0.5487060546875	0.015765380859375	3983.05631794375
0.553131103515625	0.0157867431640625	3983.10056794364
0.55755615234375	0.01580810546875	3983.14481794353
0.561981201171875	0.0158294677734375	3983.18906794341
0.56640625	0.0158477783203125	3983.2333179433
0.570831298828125	0.0158660888671875	3983.27756794319
0.57525634765625	0.0158843994140625	3983.32181794308
0.579681396484375	0.015899658203125	3983.36606794297
0.5841064453125	0.0159149169921875	3983.41031794286
0.588531494140625	0.0159271240234375	3983.45456794274
0.59295654296875	0.0159423828125	3983.49881794263
0.597381591796875	0.01595458984375	3983.54306794252
0.601806640625	0.0159637451171875	3983.58731794241
0.606231689453125	0.0159759521484375	3983.6315679423
0.61065673828125	0.0159820556640625	3983.67581794219
0.615081787109375	0.0159912109375	3983.72006794207
0.6195068359375	0.0160003662109375	3983.76431794196
0.623931884765625	0.016009521484375	3983.80856794185
0.62835693359375	0.016021728515625	3983.85281794174
0.632781982421875	0.01602783203125	3983.89706794163
0.63720703125	0.0160308837890625	3983.94131794152
0.641632080078125	0.016033935546875	3983.9855679414
0.64605712890625	0.0160369873046875	3984.02981794129
0.650482177734375	0.0160400390625	3984.07406794118
0.6549072265625	0.0160430908203125	3984.11831794107
0.659332275390625	0.016046142578125	3984.16256794096
0.66375732421875	0.0160491943359375	3984.20681794084
0.668182373046875	0.0160491943359375	3984.25106794073
0.672607421875	0.01605224609375	3984.29531794062
0.677032470703125	0.0160491943359375	3984.33956794051
0.68145751953125	0.01605224609375	3984.3838179404
0.685882568359375	0.01605224609375	3984.42806794029
0.6903076171875	0.0160491943359375	3984.47231794017
0.694732666015625	0.01605224609375	3984.51656794006
0.69915771484375	0.01605224609375	3984.56081793995
0.703582763671875	0.0160491943359375	3984.60506793984
0.7080078125	0.0160491943359375	3984.64931793973
0.712432861328125	0.01605224609375	3984.69356793962
0.71685791015625	0.01605224609375	3984.7378179395
0.721282958984375	0.01605224609375	3984.78206793939
0.7257080078125	0.01605224609375	3984.82631793928
0.730133056640625	0.01605224609375	3984.87056793917
0.73455810546875	0.0160552978515625	3984.91481793906
0.738983154296875	0.0160552978515625	3984.95906793895
0.743408203125	0.0160552978515625	3985.00331793883
0.747833251953125	0.016058349609375	3985.04756793872
0.75225830078125	0.0160614013671875	3985.09181793861
0.756683349609375	0.0160675048828125	3985.1360679385
0.7611083984375	0.016070556640625	3985.18031793839
0.765533447265625	0.01607666015625	3985.22456793827
0.76995849609375	0.0160797119140625	3985.26881793816
0.774383544921875	0.0160858154296875	3985.31306793805
0.77880859375	0.0160919189453125	3985.35731793794
0.783233642578125	0.01610107421875	3985.40156793783
0.78765869140625	0.0161102294921875	3985.44581793772
0.792083740234375	0.016119384765625	3985.49006793761
0.7965087890625	0.0161285400390625	3985.53431793749
0.800933837890625	0.0161407470703125	3985.57856793738
0.80535888671875	0.01614990234375	3985.62281793727
0.809783935546875	0.0161651611328125	3985.66706793716
0.814208984375	0.016180419921875	3985.71131793705
0.818634033203125	0.0161956787109375	3985.75556793693
0.82305908203125	0.0162139892578125	3985.79981793682
0.827484130859375	0.0162322998046875	3985.84406793671
0.8319091796875	0.0162506103515625	3985.8883179366
0.836334228515625	0.01627197265625	3985.93256793649
0.84075927734375	0.0162933349609375	3985.97681793638
0.845184326171875	0.0163177490234375	3986.02106793626
0.849609375	0.0163421630859375	3986.06531793615
0.854034423828125	0.01636962890625	3986.10956793604
0.85845947265625	0.0163970947265625	3986.15381793593
0.862884521484375	0.016424560546875	3986.19806793582
0.8673095703125	0.0164581298828125	3986.24231793571
0.871734619140625	0.0164886474609375	3986.28656793559
0.87615966796875	0.0165252685546875	3986.33081793548
0.880584716796875	0.016558837890625	3986.37506793537
0.885009765625	0.0165985107421875	3986.41931793526
0.889434814453125	0.01663818359375	3986.46356793515
0.89385986328125	0.016680908203125	3986.50781793504
0.898284912109375	0.0167236328125	3986.55206793492
0.9027099609375	0.0167724609375	3986.59631793481
0.907135009765625	0.0168182373046875	3986.6405679347
0.91156005859375	0.0168701171875	3986.68481793459
0.915985107421875	0.0169219970703125	3986.72906793448
0.92041015625	0.0169769287109375	3986.77331793436
0.924835205078125	0.017034912109375	3986.81756793425
0.92926025390625	0.0170928955078125	3986.86181793414
0.933685302734375	0.0171539306640625	3986.90606793403
0.9381103515625	0.017218017578125	3986.95031793392
0.942535400390625	0.01728515625	3986.99456793381
0.94696044921875	0.017352294921875	3987.03881793369
0.951385498046875	0.017425537109375	3987.08306793358
0.955810546875	0.017498779296875	3987.12731793347
0.960235595703125	0.0175750732421875	3987.17156793336
0.96466064453125	0.0176544189453125	3987.21581793325
0.969085693359375	0.01773681640625	3987.26006793314
0.9735107421875	0.017822265625	3987.30431793302
0.977935791015625	0.01790771484375	3987.34856793291
0.98236083984375	0.0179962158203125	3987.3928179328
0.986785888671875	0.0180908203125	3987.43706793269
0.9912109375	0.0181884765625	3987.48131793258
0.995635986328125	0.0182861328125	3987.52556793247
1.00006103515625	0.018389892578125	3987.56981793235
0.995635986328125	0.0173797607421875	3987.61406793224
0.9912109375	0.0164306640625	3987.65831793213
0.986785888671875	0.015521240234375	3987.70256793202
0.98236083984375	0.0146484375	3987.74681793191
0.977935791015625	0.013812255859375	3987.7910679318
0.9735107421875	0.0130035400390625	3987.83531793168
0.969085693359375	0.01221923828125	3987.87956793157
0.96466064453125	0.01146240234375	3987.92381793146
0.960235595703125	0.01072998046875	3987.96806793135
0.955810546875	0.0100189208984375	3988.01231793124
0.951385498046875	0.0093292236328125	3988.05656793112
0.94696044921875	0.0086578369140625	3988.10081793101
0.942535400390625	0.0080047607421875	3988.1450679309
0.9381103515625	0.007373046875	3988.18931793079
0.933685302734375	0.0067535400390625	3988.23356793068
0.92926025390625	0.00615234375	3988.27781793057
0.924835205078125	0.00556640625	3988.32206793045
0.92041015625	0.004998779296875	3988.36631793034
0.915985107421875	0.0044439697265625	3988.41056793023
0.91156005859375	0.00390411376953125	3988.45481793012
0.907135009765625	0.0033782958984375	3988.49906793001
0.9027099609375	0.002864990234375	3988.5433179299
0.898284912109375	0.0023663330078125	3988.58756792978
0.89385986328125	0.00187774658203125	3988.63181792967
0.889434814453125	0.00140167236328125	3988.67606792956
0.885009765625	0.0009368896484375	3988.72031792945
0.880584716796875	0.00048406982421875	3988.76456792934
0.87615966796875	4.217529296875E-05	3988.80881792923
0.871734619140625	-0.000388671875	3988.85306792911
0.8673095703125	-0.00080810546875	3988.897317929
0.862884521484375	-0.00121734619140625	3988.94156792889
0.85845947265625	-0.001614990234375	3988.98581792878
0.854034423828125	-0.0020050048828125	3989.03006792867
0.849609375	-0.00238372802734375	3989.07431792856
0.845184326171875	-0.00275299072265625	3989.11856792844
0.84075927734375	-0.00311279296875	3989.16281792833
0.836334228515625	-0.0034637451171875	3989.20706792822
0.8319091796875	-0.00380523681640625	3989.25131792811
0.827484130859375	-0.00413726806640625	3989.295567928
0.82305908203125	-0.00446136474609375	3989.33981792789
0.818634033203125	-0.00477569580078125	3989.38406792777
0.814208984375	-0.00508209228515625	3989.42831792766
0.809783935546875	-0.00537994384765625	3989.47256792755
0.80535888671875	-0.00566986083984375	3989.51681792744
0.800933837890625	-0.00595123291015625	3989.56106792733
0.7965087890625	-0.00622467041015625	3989.60531792721
0.792083740234375	-0.0064666748046875	3989.6495679271
0.78765869140625	-0.00672607421875	3989.69381792699
0.783233642578125	-0.006976318359375	3989.73806792688
0.77880859375	-0.0072174072265625	3989.78231792677
0.774383544921875	-0.0074554443359375	3989.82656792666
0.76995849609375	-0.007684326171875	3989.87081792654
0.765533447265625	-0.007904052734375	3989.91506792643
0.7611083984375	-0.0081207275390625	3989.95931792632
0.756683349609375	-0.0083282470703125	3990.00356792621
0.75225830078125	-0.00853271484375	3990.0478179261
0.747833251953125	-0.00872802734375	3990.09206792599
0.743408203125	-0.0089202880859375	3990.13631792587
0.738983154296875	-0.0091033935546875	3990.18056792576
0.73455810546875	-0.009283447265625	3990.22481792565
0.730133056640625	-0.009454345703125	3990.26906792554
0.7257080078125	-0.0096221923828125	3990.31331792543
0.721282958984375	-0.0097869873046875	3990.35756792532
0.71685791015625	-0.0099456787109375	3990.4018179252
0.712432861328125	-0.0100982666015625	3990.44606792509
0.7080078125	-0.0102447509765625	3990.49031792498
0.703582763671875	-0.01038818359375	3990.53456792487
0.69915771484375	-0.010528564453125	3990.57881792476
0.694732666015625	-0.010662841796875	3990.62306792465
0.6903076171875	-0.0107940673828125	3990.66731792453
0.685882568359375	-0.010919189453125	3990.71156792442
0.68145751953125	-0.0110382080078125	3990.75581792431
0.677032470703125	-0.0111572265625	3990.8000679242
0.672607421875	-0.011273193359375	3990.84431792409
0.668182373046875	-0.01138916015625	3990.88856792397
0.66375732421875	-0.0114990234375	3990.93281792386
0.659332275390625	-0.011602783203125	3990.97706792375
0.6549072265625	-0.0117034912109375	3991.02131792364
0.650482177734375	-0.0118011474609375	3991.06556792353
0.64605712890625	-0.011895751953125	3991.10981792342
0.641632080078125	-0.0119842529296875	3991.1540679233
0.63720703125	-0.0120758056640625	3991.19831792319
0.632781982421875	-0.0121673583984375	3991.24256792308
0.62835693359375	-0.012255859375	3991.28681792297
0.623931884765625	-0.0123443603515625	3991.33106792286
0.6195068359375	-0.0124267578125	3991.37531792275
0.615081787109375	-0.0125030517578125	3991.41956792263
0.61065673828125	-0.012579345703125	3991.46381792252
0.606231689453125	-0.012652587890625	3991.50806792241
0.601806640625	-0.012725830078125	3991.5523179223
0.597381591796875	-0.0127960205078125	3991.59656792219
0.59295654296875	-0.0128662109375	3991.64081792208
0.588531494140625	-0.012933349609375	3991.68506792196
0.5841064453125	-0.0129974365234375	3991.72931792185
0.579681396484375	-0.0130615234375	3991.77356792174
0.57525634765625	-0.01312255859375	3991.81781792163
0.570831298828125	-0.01318359375	3991.86206792152
0.56640625	-0.01324462890625	3991.90631792141
0.561981201171875	-0.013299560546875	3991.95056792129
0.55755615234375	-0.0133575439453125	3991.99481792118
0.553131103515625	-0.0134124755859375	3992.03906792107
0.5487060546875	-0.01346435546875	3992.08331792096
0.544281005859375	-0.0135162353515625	3992.12756792085
0.53985595703125	-0.0135711669921875	3992.17181792074
0.535430908203125	-0.013623046875	3992.21606792062
0.531005859375	-0.013671875	3992.26031792051
0.526580810546875	-0.013720703125	3992.3045679204
0.52215576171875	-0.01376953125	3992.34881792029
0.517730712890625	-0.013818359375	3992.39306792018
0.5133056640625	-0.0138671875	3992.43731792006
0.508880615234375	-0.0139129638671875	3992.48156791995
0.50445556640625	-0.013958740234375	3992.52581791984
0.500030517578125	-0.0140045166015625	3992.57006791973
0.49560546875	-0.01405029296875	3992.61431791962
0.491180419921875	-0.014093017578125	3992.65856791951
0.48675537109375	-0.0141357421875	3992.70281791939
0.482330322265625	-0.014178466796875	3992.74706791928
0.4779052734375	-0.0142242431640625	3992.79131791917
0.473480224609375	-0.0142669677734375	3992.83556791906
0.46905517578125	-0.0143096923828125	3992.87981791895
0.464630126953125	-0.0143524169921875	3992.92406791884
0.460205078125	-0.0143951416015625	3992.96831791872
0.455780029296875	-0.01444091796875	3993.01256791861
0.45135498046875	-0.014483642578125	3993.0568179185
0.446929931640625	-0.0145233154296875	3993.10106791839
0.4425048828125	-0.014569091796875	3993.14531791828
0.438079833984375	-0.0146087646484375	3993.18956791817
0.43365478515625	-0.0146514892578125	3993.23381791805
0.429229736328125	-0.0146942138671875	3993.27806791794
0.4248046875	-0.0147369384765625	3993.32231791783
0.420379638671875	-0.0147796630859375	3993.36656791772
0.41595458984375	-0.0148193359375	3993.41081791761
0.411529541015625	-0.0148651123046875	3993.4550679175
0.4071044921875	-0.0149078369140625	3993.49931791738
0.402679443359375	-0.0149505615234375	3993.54356791727
0.39825439453125	-0.0149932861328125	3993.58781791716
0.393829345703125	-0.0150360107421875	3993.63206791705
0.389404296875	-0.0150787353515625	3993.67631791694
0.384979248046875	-0.01512451171875	3993.72056791682
0.38055419921875	-0.015167236328125	3993.76481791671
0.376129150390625	-0.0152099609375	3993.8090679166
0.3717041015625	-0.0152557373046875	3993.85331791649
0.367279052734375	-0.0152984619140625	3993.89756791638
0.36285400390625	-0.01534423828125	3993.94181791627
0.358428955078125	-0.0153900146484375	3993.98606791615
0.35400390625	-0.015435791015625	3994.03031791604
0.349578857421875	-0.0154754638671875	3994.07456791593
0.34515380859375	-0.015521240234375	3994.11881791582
0.340728759765625	-0.015570068359375	3994.16306791571
0.3363037109375	-0.01561279296875	3994.2073179156
0.331878662109375	-0.0156585693359375	3994.25156791548
0.32745361328125	-0.015704345703125	3994.29581791537
0.323028564453125	-0.015753173828125	3994.34006791526
0.318603515625	-0.0157989501953125	3994.38431791515
0.314178466796875	-0.0158447265625	3994.42856791504
0.30975341796875	-0.0158966064453125	3994.47281791493
0.305328369140625	-0.0159423828125	3994.51706791481
0.3009033203125	-0.0159912109375	3994.5613179147
0.296478271484375	-0.0160400390625	3994.60556791459
0.29205322265625	-0.0160858154296875	3994.64981791448
0.287628173828125	-0.0161346435546875	3994.69406791437
0.283203125	-0.016180419921875	3994.73831791426
0.278778076171875	-0.016229248046875	3994.78256791414
0.27435302734375	-0.016278076171875	3994.82681791403
0.269927978515625	-0.0163238525390625	3994.87106791392
0.2655029296875	-0.0163726806640625	3994.91531791381
0.261077880859375	-0.0164215087890625	3994.9595679137
0.25665283203125	-0.0164703369140625	3995.00381791358
0.252227783203125	-0.01651611328125	3995.04806791347
0.247802734375	-0.01656494140625	3995.09231791336
0.243377685546875	-0.01661376953125	3995.13656791325
0.23895263671875	-0.01666259765625	3995.18081791314
0.234527587890625	-0.01671142578125	3995.22506791303
0.2301025390625	-0.0167572021484375	3995.26931791291
0.225677490234375	-0.0168060302734375	3995.3135679128
0.22125244140625	-0.0168548583984375	3995.35781791269
0.216827392578125	-0.0169036865234375	3995.40206791258
0.21240234375	-0.0169525146484375	3995.44631791247
0.207977294921875	-0.0170013427734375	3995.49056791236
0.20355224609375	-0.0170501708984375	3995.53481791224
0.199127197265625	-0.0170989990234375	3995.57906791213
0.1947021484375	-0.017144775390625	3995.62331791202
0.190277099609375	-0.017193603515625	3995.66756791191
0.18585205078125	-0.0172393798828125	3995.7118179118
0.181427001953125	-0.0172882080078125	3995.75606791169
0.177001953125	-0.0173370361328125	3995.80031791157
0.172576904296875	-0.0173858642578125	3995.84456791146
0.16815185546875	-0.0174346923828125	3995.88881791135
0.163726806640625	-0.0174835205078125	3995.93306791124
0.1593017578125	-0.0175323486328125	3995.97731791113
0.154876708984375	-0.0175811767578125	3996.02156791102
0.15045166015625	-0.0176300048828125	3996.0658179109
0.146026611328125	-0.01767578125	3996.11006791079
0.1416015625	-0.017724609375	3996.15431791068
0.137176513671875	-0.0177764892578125	3996.19856791057
0.13275146484375	-0.0178253173828125	3996.24281791046
0.128326416015625	-0.0178741455078125	3996.28706791035
0.1239013671875	-0.0179229736328125	3996.33131791023
0.119476318359375	-0.0179718017578125	3996.37556791012
0.11505126953125	-0.0180206298828125	3996.41981791001
0.110626220703125	-0.0180694580078125	3996.4640679099
0.106201171875	-0.0181182861328125	3996.50831790979
0.101776123046875	-0.0181671142578125	3996.55256790967
0.09735107421875	-0.018218994140625	3996.59681790956
0.092926025390625	-0.018267822265625	3996.64106790945
0.0885009765625	-0.0183197021484375	3996.68531790934
0.084075927734375	-0.0183685302734375	3996.72956790923
0.07965087890625	-0.01842041015625	3996.77381790912
0.075225830078125	-0.01846923828125	3996.818067909
0.07080078125	-0.0185211181640625	3996.86231790889
0.066375732421875	-0.018572998046875	3996.90656790878
0.06195068359375	-0.0186248779296875	3996.95081790867
0.057525634765625	-0.0186767578125	3996.99506790856
0.0531005859375	-0.018731689453125	3997.03931790845
0.048675537109375	-0.0187835693359375	3997.08356790833
0.04425048828125	-0.01883544921875	3997.12781790822
0.039825439453125	-0.018890380859375	3997.17206790811
0.035400390625	-0.0189453125	3997.216317908
0.030975341796875	-0.019000244140625	3997.26056790789
0.02655029296875	-0.01905517578125	3997.30481790778
0.022125244140625	-0.0191131591796875	3997.34906790766
0.0177001953125	-0.0191680908203125	3997.39331790755
0.013275146484375	-0.01922607421875	3997.43756790744
0.00885009765625	-0.0192840576171875	3997.48181790733
0.004425048828125	-0.0193450927734375	3997.52606790722
0	-0.019403076171875	3997.57031790711
0.004425048828125	-0.018353271484375	3997.61456790699
0.00885009765625	-0.0173583984375	3997.65881790688
0.013275146484375	-0.0164031982421875	3997.70306790677
0.0177001953125	-0.0154815673828125	3997.74731790666
0.022125244140625	-0.0145904541015625	3997.79156790655
0.02655029296875	-0.01373291015625	3997.83581790643
0.030975341796875	-0.0128997802734375	3997.88006790632
0.035400390625	-0.012091064453125	3997.92431790621
0.039825439453125	-0.0113067626953125	3997.9685679061
0.04425048828125	-0.0105499267578125	3998.01281790599
0.048675537109375	-0.0098114013671875	3998.05706790588
0.0531005859375	-0.00909423828125	3998.10131790576
0.057525634765625	-0.0083953857421875	3998.14556790565
0.06195068359375	-0.0077178955078125	3998.18981790554
0.066375732421875	-0.0070587158203125	3998.23406790543
0.07080078125	-0.006414794921875	3998.27831790532
0.075225830078125	-0.0057891845703125	3998.32256790521
0.07965087890625	-0.005181884765625	3998.36681790509
0.084075927734375	-0.00459075927734375	3998.41106790498
0.0885009765625	-0.00401336669921875	3998.45531790487
0.092926025390625	-0.00345062255859375	3998.49956790476
0.09735107421875	-0.0029022216796875	3998.54381790465
0.101776123046875	-0.0023681640625	3998.58806790454
0.106201171875	-0.0018560791015625	3998.63231790442
0.110626220703125	-0.0013470458984375	3998.67656790431
0.11505126953125	-0.00085174560546875	3998.7208179042
0.119476318359375	-0.00037115478515625	3998.76506790409
0.1239013671875	9.9853515625E-05	3998.80931790398
0.128326416015625	0.00055908203125	3998.85356790387
0.13275146484375	0.001007080078125	3998.89781790375
0.137176513671875	0.0014447021484375	3998.94206790364
0.1416015625	0.0018701171875	3998.98631790353
0.146026611328125	0.00228546142578125	3999.03056790342
0.15045166015625	0.0026898193359375	3999.07481790331
0.154876708984375	0.0030841064453125	3999.1190679032
0.1593017578125	0.0034674072265625	3999.16331790308
0.163726806640625	0.00384429931640625	3999.20756790297
0.16815185546875	0.00420928955078125	3999.25181790286
0.172576904296875	0.0045648193359375	3999.29606790275
0.177001953125	0.0049114990234375	3999.34031790264
0.181427001953125	0.00524932861328125	3999.38456790252
0.18585205078125	0.00557861328125	3999.42881790241
0.190277099609375	0.00589935302734375	3999.4730679023
0.1947021484375	0.006212158203125	3999.51731790219
0.199127197265625	0.00650634765625	3999.56156790208
0.20355224609375	0.0068023681640625	3999.60581790197
0.207977294921875	0.0070892333984375	3999.65006790185
0.21240234375	0.0073699951171875	3999.69431790174
0.216827392578125	0.0076416015625	3999.73856790163
0.22125244140625	0.007904052734375	3999.78281790152
0.225677490234375	0.008160400390625	3999.82706790141
0.2301025390625	0.0084136962890625	3999.8713179013
0.234527587890625	0.0086578369140625	3999.91556790118
0.23895263671875	0.0088958740234375	3999.95981790107
0.243377685546875	0.0091278076171875	4000.00406790096
0.247802734375	0.0093505859375	4000.04831790085
0.252227783203125	0.0095703125	4000.09256790074
0.25665283203125	0.0097808837890625	4000.13681790063
0.261077880859375	0.0099884033203125	4000.18106790051
0.2655029296875	0.010186767578125	4000.2253179004
0.269927978515625	0.010382080078125	4000.26956790029
0.27435302734375	0.0105712890625	4000.31381790018
0.278778076171875	0.0107574462890625	4000.35806790007
0.283203125	0.0109344482421875	4000.40231789996
0.287628173828125	0.0111053466796875	4000.44656789984
0.29205322265625	0.011273193359375	4000.49081789973
0.296478271484375	0.01143798828125	4000.53506789962
0.3009033203125	0.0115966796875	4000.57931789951
0.305328369140625	0.011749267578125	4000.6235678994
0.30975341796875	0.0118988037109375	4000.66781789928
0.314178466796875	0.0120452880859375	4000.71206789917
0.318603515625	0.0121856689453125	4000.75631789906
0.323028564453125	0.0123260498046875	4000.80056789895
0.32745361328125	0.012457275390625	4000.84481789884
0.331878662109375	0.0125823974609375	4000.88906789873
0.3363037109375	0.01270751953125	4000.93331789861
0.340728759765625	0.01282958984375	4000.9775678985
0.34515380859375	0.0129486083984375	4001.02181789839
0.349578857421875	0.0130645751953125	4001.06606789828
0.35400390625	0.0131744384765625	4001.11031789817
0.358428955078125	0.01328125	4001.15456789806
0.36285400390625	0.013385009765625	4001.19881789794
0.367279052734375	0.0134857177734375	4001.24306789783
0.3717041015625	0.0135833740234375	4001.28731789772
0.376129150390625	0.0136749267578125	4001.33156789761
0.38055419921875	0.01376953125	4001.3758178975
0.384979248046875	0.013861083984375	4001.42006789739
0.389404296875	0.0139495849609375	4001.46431789727
0.393829345703125	0.01402587890625	4001.50856789716
0.39825439453125	0.0141082763671875	4001.55281789705
0.402679443359375	0.0141876220703125	4001.59706789694
0.4071044921875	0.01427001953125	4001.64131789683
0.411529541015625	0.0143463134765625	4001.68556789671
0.41595458984375	0.01441650390625	4001.7298178966
0.420379638671875	0.0144866943359375	4001.77406789649
0.4248046875	0.0145538330078125	4001.81831789638
0.429229736328125	0.014617919921875	4001.86256789627
0.43365478515625	0.0146820068359375	4001.90681789616
0.438079833984375	0.0147430419921875	4001.95106789605
0.4425048828125	0.014801025390625	4001.99531789593
0.446929931640625	0.0148590087890625	4002.03956789582
0.45135498046875	0.0149139404296875	4002.08381789571
0.455780029296875	0.0149688720703125	4002.1280678956
0.460205078125	0.015020751953125	4002.17231789549
0.464630126953125	0.0150726318359375	4002.21656789537
0.46905517578125	0.0151214599609375	4002.26081789526
0.473480224609375	0.015167236328125	4002.30506789515
0.4779052734375	0.0152130126953125	4002.34931789504
0.482330322265625	0.0152557373046875	4002.39356789493
0.48675537109375	0.0152984619140625	4002.43781789482
0.491180419921875	0.0153411865234375	4002.4820678947
0.49560546875	0.015380859375	4002.52631789459
0.500030517578125	0.0154205322265625	4002.57056789448
0.50445556640625	0.0154541015625	4002.61481789437
0.508880615234375	0.01549072265625	4002.65906789426
0.5133056640625	0.0155242919921875	4002.70331789415
0.517730712890625	0.0155548095703125	4002.74756789403
0.52215576171875	0.0155853271484375	4002.79181789392
0.526580810546875	0.0156158447265625	4002.83606789381
0.531005859375	0.015643310546875	4002.8803178937
0.535430908203125	0.015667724609375	4002.92456789359
0.53985595703125	0.0156951904296875	4002.96881789348
0.544281005859375	0.0157196044921875	4003.01306789336
0.5487060546875	0.015740966796875	4003.05731789325
0.553131103515625	0.0157623291015625	4003.10156789314
0.55755615234375	0.01578369140625	4003.14581789303
0.561981201171875	0.0158050537109375	4003.19006789292
0.56640625	0.0158203125	4003.2343178928
0.570831298828125	0.015838623046875	4003.27856789269
0.57525634765625	0.0158538818359375	4003.32281789258
0.579681396484375	0.015869140625	4003.36706789247
0.5841064453125	0.0158843994140625	4003.41131789236
0.588531494140625	0.0158935546875	4003.45556789225
0.59295654296875	0.01590576171875	4003.49981789213
0.597381591796875	0.01591796875	4003.54406789202
0.601806640625	0.01593017578125	4003.58831789191
0.606231689453125	0.0159393310546875	4003.6325678918
0.61065673828125	0.0159454345703125	4003.67681789169
0.615081787109375	0.01595458984375	4003.72106789158
0.6195068359375	0.015960693359375	4003.76531789146
0.623931884765625	0.015966796875	4003.80956789135
0.62835693359375	0.01597900390625	4003.85381789124
0.632781982421875	0.0159820556640625	4003.89806789113
0.63720703125	0.0159881591796875	4003.94231789102
0.641632080078125	0.0159881591796875	4003.98656789091
0.64605712890625	0.0159942626953125	4004.03081789079
0.650482177734375	0.015997314453125	4004.07506789068
0.6549072265625	0.015997314453125	4004.11931789057
0.659332275390625	0.015997314453125	4004.16356789046
0.66375732421875	0.0160003662109375	4004.20781789035
0.668182373046875	0.0160003662109375	4004.25206789024
0.672607421875	0.0160003662109375	4004.29631789012
0.677032470703125	0.0160003662109375	4004.34056789001
0.68145751953125	0.0160003662109375	4004.3848178899
0.685882568359375	0.0160003662109375	4004.42906788979
0.6903076171875	0.015997314453125	4004.47331788968
0.694732666015625	0.015997314453125	4004.51756788956
0.69915771484375	0.015997314453125	4004.56181788945
0.703582763671875	0.015997314453125	4004.60606788934
0.7080078125	0.0159942626953125	4004.65031788923
0.712432861328125	0.0159942626953125	4004.69456788912
0.71685791015625	0.0159942626953125	4004.73881788901
0.721282958984375	0.0159942626953125	4004.78306788889
0.7257080078125	0.015997314453125	4004.82731788878
0.730133056640625	0.015997314453125	4004.87156788867
0.73455810546875	0.015997314453125	4004.91581788856
0.738983154296875	0.015997314453125	4004.96006788845
0.743408203125	0.0159942626953125	4005.00431788834
0.747833251953125	0.015997314453125	4005.04856788822
0.75225830078125	0.0160003662109375	4005.09281788811
0.756683349609375	0.01600341796875	4005.137067888
0.7611083984375	0.0160064697265625	4005.18131788789
0.765533447265625	0.016009521484375	4005.22556788778
0.76995849609375	0.0160125732421875	4005.26981788767
0.774383544921875	0.0160186767578125	4005.31406788755
0.77880859375	0.0160247802734375	4005.35831788744
0.783233642578125	0.0160308837890625	4005.40256788733
0.78765869140625	0.0160369873046875	4005.44681788722
0.792083740234375	0.016046142578125	4005.49106788711
0.7965087890625	0.0160552978515625	4005.535317887
0.800933837890625	0.016064453125	4005.57956788688
0.80535888671875	0.01607666015625	4005.62381788677
0.809783935546875	0.0160888671875	4005.66806788666
0.814208984375	0.01610107421875	4005.71231788655
0.818634033203125	0.0161163330078125	4005.75656788644
0.82305908203125	0.016131591796875	4005.80081788633
0.827484130859375	0.01614990234375	4005.84506788621
0.8319091796875	0.016168212890625	4005.8893178861
0.836334228515625	0.0161865234375	4005.93356788599
0.84075927734375	0.016204833984375	4005.97781788588
0.845184326171875	0.016229248046875	4006.02206788577
0.849609375	0.016253662109375	4006.06631788565
0.854034423828125	0.016278076171875	4006.11056788554
0.85845947265625	0.0163055419921875	4006.15481788543
0.862884521484375	0.0163299560546875	4006.19906788532
0.8673095703125	0.0163604736328125	4006.24331788521
0.871734619140625	0.0163909912109375	4006.2875678851
0.87615966796875	0.0164215087890625	4006.33181788498
0.880584716796875	0.0164581298828125	4006.37606788487
0.885009765625	0.0164947509765625	4006.42031788476
0.889434814453125	0.016534423828125	4006.46456788465
0.89385986328125	0.0165740966796875	4006.50881788454
0.898284912109375	0.01661376953125	4006.55306788443
0.9027099609375	0.0166595458984375	4006.59731788431
0.907135009765625	0.016705322265625	4006.6415678842
0.91156005859375	0.016754150390625	4006.68581788409
0.915985107421875	0.0168060302734375	4006.73006788398
0.92041015625	0.01685791015625	4006.77431788387
0.924835205078125	0.016912841796875	4006.81856788376
0.92926025390625	0.0169708251953125	4006.86281788364
0.933685302734375	0.0170318603515625	4006.90706788353
0.9381103515625	0.0170989990234375	4006.95131788342
0.942535400390625	0.0171600341796875	4006.99556788331
0.94696044921875	0.0172271728515625	4007.0398178832
0.951385498046875	0.0172943115234375	4007.08406788309
0.955810546875	0.0173675537109375	4007.12831788297
0.960235595703125	0.01744384765625	4007.17256788286
0.96466064453125	0.0175201416015625	4007.21681788275
0.969085693359375	0.0176025390625	4007.26106788264
0.9735107421875	0.01768798828125	4007.30531788253
0.977935791015625	0.0177703857421875	4007.34956788241
0.98236083984375	0.01785888671875	4007.3938178823
0.986785888671875	0.0179534912109375	4007.43806788219
0.9912109375	0.018048095703125	4007.48231788208
0.995635986328125	0.018145751953125	4007.52656788197
1.00006103515625	0.0182464599609375	4007.57081788186
0.995635986328125	0.017236328125	4007.61506788174
0.9912109375	0.0162872314453125	4007.65931788163
0.986785888671875	0.0153778076171875	4007.70356788152
0.98236083984375	0.014501953125	4007.74781788141
0.977935791015625	0.013665771484375	4007.7920678813
0.9735107421875	0.0128570556640625	4007.83631788119
0.969085693359375	0.01207275390625	4007.88056788107
0.96466064453125	0.01131591796875	4007.92481788096
0.960235595703125	0.01058349609375	4007.96906788085
0.955810546875	0.0098724365234375	4008.01331788074
0.951385498046875	0.0091827392578125	4008.05756788063
0.94696044921875	0.008514404296875	4008.10181788052
0.942535400390625	0.007861328125	4008.1460678804
0.9381103515625	0.0072296142578125	4008.19031788029
0.933685302734375	0.006610107421875	4008.23456788018
0.92926025390625	0.006011962890625	4008.27881788007
0.924835205078125	0.0054290771484375	4008.32306787996
0.92041015625	0.004859619140625	4008.36731787985
0.915985107421875	0.00430633544921875	4008.41156787973
0.91156005859375	0.00376800537109375	4008.45581787962
0.907135009765625	0.00324371337890625	4008.50006787951
0.9027099609375	0.00273162841796875	4008.5443178794
0.898284912109375	0.0022344970703125	4008.58856787929
0.89385986328125	0.00174713134765625	4008.63281787918
0.889434814453125	0.00127166748046875	4008.67706787906
0.885009765625	0.0008087158203125	4008.72131787895
0.880584716796875	0.000357025146484375	4008.76556787884
0.87615966796875	-8.331298828125E-05	4008.80981787873
0.871734619140625	-0.00051239013671875	4008.85406787862
0.8673095703125	-0.00093048095703125	4008.8983178785
0.862884521484375	-0.00133819580078125	4008.94256787839
0.85845947265625	-0.0017340087890625	4008.98681787828
0.854034423828125	-0.00212158203125	4009.03106787817
0.849609375	-0.00249908447265625	4009.07531787806
0.845184326171875	-0.00286651611328125	4009.11956787795
0.84075927734375	-0.00322479248046875	4009.16381787783
0.836334228515625	-0.0035736083984375	4009.20806787772
0.8319091796875	-0.003912353515625	4009.25231787761
0.827484130859375	-0.0042431640625	4009.2965678775
0.82305908203125	-0.00456512451171875	4009.34081787739
0.818634033203125	-0.0048773193359375	4009.38506787728
0.814208984375	-0.0051824951171875	4009.42931787716
0.809783935546875	-0.00547821044921875	4009.47356787705
0.80535888671875	-0.005765380859375	4009.51781787694
0.800933837890625	-0.0060455322265625	4009.56206787683
0.7965087890625	-0.006292724609375	4009.60631787672
0.792083740234375	-0.00655517578125	4009.65056787661
0.78765869140625	-0.0068145751953125	4009.69481787649
0.783233642578125	-0.007061767578125	4009.73906787638
0.77880859375	-0.0073028564453125	4009.78331787627
0.774383544921875	-0.0075347900390625	4009.82756787616
0.76995849609375	-0.007763671875	4009.87181787605
0.765533447265625	-0.0079803466796875	4009.91606787594
0.7611083984375	-0.0081939697265625	4009.96031787582
0.756683349609375	-0.0084014892578125	4010.00456787571
0.75225830078125	-0.0086029052734375	4010.0488178756
0.747833251953125	-0.0087982177734375	4010.09306787549
0.743408203125	-0.0089874267578125	4010.13731787538
0.738983154296875	-0.00916748046875	4010.18156787526
0.73455810546875	-0.009344482421875	4010.22581787515
0.730133056640625	-0.009515380859375	4010.27006787504
0.7257080078125	-0.0096832275390625	4010.31431787493
0.721282958984375	-0.009844970703125	4010.35856787482
0.71685791015625	-0.0100006103515625	4010.40281787471
0.712432861328125	-0.010150146484375	4010.44706787459
0.7080078125	-0.010296630859375	4010.49131787448
0.703582763671875	-0.0104400634765625	4010.53556787437
0.69915771484375	-0.0105743408203125	4010.57981787426
0.694732666015625	-0.0107086181640625	4010.62406787415
0.6903076171875	-0.0108367919921875	4010.66831787404
0.685882568359375	-0.0109588623046875	4010.71256787392
0.68145751953125	-0.0110809326171875	4010.75681787381
0.677032470703125	-0.0111968994140625	4010.8010678737
0.672607421875	-0.0113128662109375	4010.84531787359
0.668182373046875	-0.01142578125	4010.88956787348
0.66375732421875	-0.0115325927734375	4010.93381787337
0.659332275390625	-0.0116363525390625	4010.97806787325
0.6549072265625	-0.011737060546875	4011.02231787314
0.650482177734375	-0.0118316650390625	4011.06656787303
0.64605712890625	-0.011920166015625	4011.11081787292
0.641632080078125	-0.01201171875	4011.15506787281
0.63720703125	-0.012103271484375	4011.1993178727
0.632781982421875	-0.0121917724609375	4011.24356787258
0.62835693359375	-0.0122802734375	4011.28781787247
0.623931884765625	-0.01236572265625	4011.33206787236
0.6195068359375	-0.012445068359375	4011.37631787225
0.615081787109375	-0.0125213623046875	4011.42056787214
0.61065673828125	-0.01259765625	4011.46481787202
0.606231689453125	-0.0126678466796875	4011.50906787191
0.601806640625	-0.0127410888671875	4011.5533178718
0.597381591796875	-0.0128082275390625	4011.59756787169
0.59295654296875	-0.01287841796875	4011.64181787158
0.588531494140625	-0.012945556640625	4011.68606787147
0.5841064453125	-0.013006591796875	4011.73031787135
0.579681396484375	-0.0130706787109375	4011.77456787124
0.57525634765625	-0.0131317138671875	4011.81881787113
0.570831298828125	-0.013189697265625	4011.86306787102
0.56640625	-0.0132476806640625	4011.90731787091
0.561981201171875	-0.0133056640625	4011.9515678708
0.55755615234375	-0.013360595703125	4011.99581787068
0.553131103515625	-0.01341552734375	4012.04006787057
0.5487060546875	-0.0134674072265625	4012.08431787046
0.544281005859375	-0.013519287109375	4012.12856787035
0.53985595703125	-0.0135711669921875	4012.17281787024
0.535430908203125	-0.0136199951171875	4012.21706787013
0.531005859375	-0.0136688232421875	4012.26131787001
0.526580810546875	-0.013720703125	4012.3055678699
0.52215576171875	-0.01376953125	4012.34981786979
0.517730712890625	-0.0138153076171875	4012.39406786968
0.5133056640625	-0.0138641357421875	4012.43831786957
0.508880615234375	-0.013909912109375	4012.48256786946
0.50445556640625	-0.0139556884765625	4012.52681786934
0.500030517578125	-0.01400146484375	4012.57106786923
0.49560546875	-0.014044189453125	4012.61531786912
0.491180419921875	-0.0140869140625	4012.65956786901
0.48675537109375	-0.014129638671875	4012.7038178689
0.482330322265625	-0.01417236328125	4012.74806786879
0.4779052734375	-0.014215087890625	4012.79231786867
0.473480224609375	-0.0142578125	4012.83656786856
0.46905517578125	-0.0143035888671875	4012.88081786845
0.464630126953125	-0.0143463134765625	4012.92506786834
0.460205078125	-0.014385986328125	4012.96931786823
0.455780029296875	-0.0144287109375	4013.01356786811
0.45135498046875	-0.014471435546875	4013.057817868
0.446929931640625	-0.01451416015625	4013.10206786789
0.4425048828125	-0.014556884765625	4013.14631786778
0.438079833984375	-0.0145965576171875	4013.19056786767
0.43365478515625	-0.0146392822265625	4013.23481786756
0.429229736328125	-0.0146820068359375	4013.27906786744
0.4248046875	-0.0147247314453125	4013.32331786733
0.420379638671875	-0.014764404296875	4013.36756786722
0.41595458984375	-0.01480712890625	4013.41181786711
0.411529541015625	-0.014849853515625	4013.456067867
0.4071044921875	-0.014892578125	4013.50031786689
0.402679443359375	-0.014935302734375	4013.54456786677
0.39825439453125	-0.01497802734375	4013.58881786666
0.393829345703125	-0.015020751953125	4013.63306786655
0.389404296875	-0.0150634765625	4013.67731786644
0.384979248046875	-0.015106201171875	4013.72156786633
0.38055419921875	-0.01514892578125	4013.76581786622
0.376129150390625	-0.0151947021484375	4013.8100678661
0.3717041015625	-0.0152374267578125	4013.85431786599
0.367279052734375	-0.0152801513671875	4013.89856786588
0.36285400390625	-0.015325927734375	4013.94281786577
0.358428955078125	-0.0153717041015625	4013.98706786566
0.35400390625	-0.01541748046875	4014.03131786555
0.349578857421875	-0.015460205078125	4014.07556786543
0.34515380859375	-0.0155059814453125	4014.11981786532
0.340728759765625	-0.0155517578125	4014.16406786521
0.3363037109375	-0.0155975341796875	4014.2083178651
0.331878662109375	-0.015643310546875	4014.25256786499
0.32745361328125	-0.01568603515625	4014.29681786487
0.323028564453125	-0.0157318115234375	4014.34106786476
0.318603515625	-0.0157806396484375	4014.38531786465
0.314178466796875	-0.015826416015625	4014.42956786454
0.30975341796875	-0.0158782958984375	4014.47381786443
0.305328369140625	-0.015924072265625	4014.51806786432
0.3009033203125	-0.015972900390625	4014.5623178642
0.296478271484375	-0.0160186767578125	4014.60656786409
0.29205322265625	-0.0160675048828125	4014.65081786398
0.287628173828125	-0.01611328125	4014.69506786387
0.283203125	-0.016162109375	4014.73931786376
0.278778076171875	-0.0162109375	4014.78356786365
0.27435302734375	-0.016259765625	4014.82781786353
0.269927978515625	-0.0163055419921875	4014.87206786342
0.2655029296875	-0.0163543701171875	4014.91631786331
0.261077880859375	-0.0164031982421875	4014.9605678632
0.25665283203125	-0.016448974609375	4015.00481786309
0.252227783203125	-0.016497802734375	4015.04906786298
0.247802734375	-0.016546630859375	4015.09331786286
0.243377685546875	-0.016595458984375	4015.13756786275
0.23895263671875	-0.0166412353515625	4015.18181786264
0.234527587890625	-0.0166900634765625	4015.22606786253
0.2301025390625	-0.0167388916015625	4015.27031786242
0.225677490234375	-0.01678466796875	4015.31456786231
0.22125244140625	-0.01683349609375	4015.35881786219
0.216827392578125	-0.01688232421875	4015.40306786208
0.21240234375	-0.01693115234375	4015.44731786197
0.207977294921875	-0.01697998046875	4015.49156786186
0.20355224609375	-0.0170257568359375	4015.53581786175
0.199127197265625	-0.01707763671875	4015.58006786164
0.1947021484375	-0.01712646484375	4015.62431786152
0.190277099609375	-0.0171722412109375	4015.66856786141
0.18585205078125	-0.017218017578125	4015.7128178613
0.181427001953125	-0.017266845703125	4015.75706786119
0.177001953125	-0.017315673828125	4015.80131786108
0.172576904296875	-0.017364501953125	4015.84556786096
0.16815185546875	-0.017413330078125	4015.88981786085
0.163726806640625	-0.017462158203125	4015.93406786074
0.1593017578125	-0.0175079345703125	4015.97831786063
0.154876708984375	-0.0175567626953125	4016.02256786052
0.15045166015625	-0.0176055908203125	4016.06681786041
0.146026611328125	-0.0176544189453125	4016.11106786029
0.1416015625	-0.0177032470703125	4016.15531786018
0.137176513671875	-0.017755126953125	4016.19956786007
0.13275146484375	-0.0178009033203125	4016.24381785996
0.128326416015625	-0.0178497314453125	4016.28806785985
0.1239013671875	-0.017901611328125	4016.33231785974
0.119476318359375	-0.0179473876953125	4016.37656785962
0.11505126953125	-0.0179962158203125	4016.42081785951
0.110626220703125	-0.0180450439453125	4016.4650678594
0.106201171875	-0.0180938720703125	4016.50931785929
0.101776123046875	-0.018145751953125	4016.55356785918
0.09735107421875	-0.018194580078125	4016.59781785907
0.092926025390625	-0.0182464599609375	4016.64206785895
0.0885009765625	-0.0182952880859375	4016.68631785884
0.084075927734375	-0.01834716796875	4016.73056785873
0.07965087890625	-0.01839599609375	4016.77481785862
0.075225830078125	-0.01844482421875	4016.81906785851
0.07080078125	-0.0184967041015625	4016.8633178584
0.066375732421875	-0.018548583984375	4016.90756785828
0.06195068359375	-0.0186004638671875	4016.95181785817
0.057525634765625	-0.0186553955078125	4016.99606785806
0.0531005859375	-0.018707275390625	4017.04031785795
0.048675537109375	-0.0187591552734375	4017.08456785784
0.04425048828125	-0.0188140869140625	4017.12881785772
0.039825439453125	-0.018865966796875	4017.17306785761
0.035400390625	-0.0189208984375	4017.2173178575
0.030975341796875	-0.018975830078125	4017.26156785739
0.02655029296875	-0.0190338134765625	4017.30581785728
0.022125244140625	-0.0190887451171875	4017.35006785717
0.0177001953125	-0.0191436767578125	4017.39431785705
0.013275146484375	-0.0192047119140625	4017.43856785694
0.00885009765625	-0.0192626953125	4017.48281785683
0.004425048828125	-0.0193206787109375	4017.52706785672
0	-0.0193817138671875	4017.57131785661
0.004425048828125	-0.0183349609375	4017.6155678565
0.00885009765625	-0.0173370361328125	4017.65981785638
0.013275146484375	-0.0163818359375	4017.70406785627
