Potential applied (V)	WE(1).Current (A)	Time (s)
0.004425048828125	-0.0081573486328125	4019.55248885161
0.00885009765625	-0.0075103759765625	4019.57461385155
0.013275146484375	-0.006878662109375	4019.59673885149
0.0177001953125	-0.0062591552734375	4019.61886385144
0.022125244140625	-0.00565185546875	4019.64098885138
0.02655029296875	-0.005059814453125	4019.66311385133
0.030975341796875	-0.004478759765625	4019.68523885127
0.035400390625	-0.003905029296875	4019.70736385121
0.039825439453125	-0.0033404541015625	4019.72948885116
0.04425048828125	-0.00278533935546875	4019.7516138511
0.048675537109375	-0.00223846435546875	4019.77373885105
0.0531005859375	-0.001708984375	4019.79586385099
0.057525634765625	-0.00117706298828125	4019.81798885094
0.06195068359375	-0.00065338134765625	4019.84011385088
0.066375732421875	-0.0001370849609375	4019.86223885082
0.07080078125	0.00037127685546875	4019.88436385077
0.075225830078125	0.00087310791015625	4019.90648885071
0.07965087890625	0.00136627197265625	4019.92861385066
0.084075927734375	0.00185455322265625	4019.9507388506
0.0885009765625	0.00233673095703125	4019.97286385054
0.092926025390625	0.0028118896484375	4019.99498885049
0.09735107421875	0.003280029296875	4020.01711385043
0.101776123046875	0.0037420654296875	4020.03923885038
0.106201171875	0.00419769287109375	4020.06136385032
0.110626220703125	0.00464691162109375	4020.08348885026
0.11505126953125	0.00508941650390625	4020.10561385021
0.119476318359375	0.005523681640625	4020.12773885015
0.1239013671875	0.00595703125	4020.1498638501
0.128326416015625	0.006383056640625	4020.17198885004
0.13275146484375	0.0067901611328125	4020.19411384999
0.137176513671875	0.0072052001953125	4020.21623884993
0.1416015625	0.0076141357421875	4020.23836384987
0.146026611328125	0.008013916015625	4020.26048884982
0.15045166015625	0.00841064453125	4020.28261384976
0.154876708984375	0.00880126953125	4020.30473884971
0.1593017578125	0.0091888427734375	4020.32686384965
0.163726806640625	0.0095672607421875	4020.34898884959
0.16815185546875	0.009942626953125	4020.37111384954
0.172576904296875	0.0103118896484375	4020.39323884948
0.177001953125	0.0106781005859375	4020.41536384943
0.181427001953125	0.01103515625	4020.43748884937
0.18585205078125	0.01138916015625	4020.45961384932
0.190277099609375	0.0117401123046875	4020.48173884926
0.1947021484375	0.0120849609375	4020.5038638492
0.199127197265625	0.0124237060546875	4020.52598884915
0.20355224609375	0.0127593994140625	4020.54811384909
0.207977294921875	0.0130889892578125	4020.57023884904
0.21240234375	0.01341552734375	4020.59236384898
0.216827392578125	0.013739013671875	4020.61448884892
0.22125244140625	0.014056396484375	4020.63661384887
0.225677490234375	0.01436767578125	4020.65873884881
0.2301025390625	0.0146759033203125	4020.68086384876
0.234527587890625	0.0149749755859375	4020.7029888487
0.23895263671875	0.0152740478515625	4020.72511384864
0.243377685546875	0.015570068359375	4020.74723884859
0.247802734375	0.01585693359375	4020.76936384853
0.252227783203125	0.016143798828125	4020.79148884848
0.25665283203125	0.016424560546875	4020.81361384842
0.261077880859375	0.0167022705078125	4020.83573884837
0.2655029296875	0.016973876953125	4020.85786384831
0.269927978515625	0.0172393798828125	4020.87998884825
0.27435302734375	0.0175048828125	4020.9021138482
0.278778076171875	0.017767333984375	4020.92423884814
0.283203125	0.0180206298828125	4020.94636384809
0.287628173828125	0.01827392578125	4020.96848884803
0.29205322265625	0.0185211181640625	4020.99061384797
0.296478271484375	0.0187652587890625	4021.01273884792
0.3009033203125	0.01900634765625	4021.03486384786
0.305328369140625	0.019244384765625	4021.05698884781
0.30975341796875	0.019476318359375	4021.07911384775
0.314178466796875	0.019708251953125	4021.1012388477
0.318603515625	0.01993408203125	4021.12336384764
0.323028564453125	0.0201568603515625	4021.14548884758
0.32745361328125	0.0203704833984375	4021.16761384753
0.331878662109375	0.0205841064453125	4021.18973884747
0.3363037109375	0.0207977294921875	4021.21186384742
0.340728759765625	0.02100830078125	4021.23398884736
0.34515380859375	0.0212127685546875	4021.2561138473
0.349578857421875	0.0214141845703125	4021.27823884725
0.35400390625	0.021612548828125	4021.30036384719
0.358428955078125	0.0218048095703125	4021.32248884714
0.36285400390625	0.0219940185546875	4021.34461384708
0.367279052734375	0.02218017578125	4021.36673884702
0.3717041015625	0.0223602294921875	4021.38886384697
0.376129150390625	0.0225433349609375	4021.41098884691
0.38055419921875	0.0227264404296875	4021.43311384686
0.384979248046875	0.0229095458984375	4021.4552388468
0.389404296875	0.02308349609375	4021.47736384675
0.393829345703125	0.023248291015625	4021.49948884669
0.39825439453125	0.0234100341796875	4021.52161384663
0.402679443359375	0.0235748291015625	4021.54373884658
0.4071044921875	0.0237457275390625	4021.56586384652
0.411529541015625	0.0239105224609375	4021.58798884647
0.41595458984375	0.0240692138671875	4021.61011384641
0.420379638671875	0.0242218017578125	4021.63223884635
0.4248046875	0.024371337890625	4021.6543638463
0.429229736328125	0.0245208740234375	4021.67648884624
0.43365478515625	0.024664306640625	4021.69861384619
0.438079833984375	0.0248077392578125	4021.72073884613
0.4425048828125	0.0249481201171875	4021.74286384608
0.446929931640625	0.02508544921875	4021.76498884602
0.45135498046875	0.0252227783203125	4021.78711384596
0.455780029296875	0.0253570556640625	4021.80923884591
0.460205078125	0.02548828125	4021.83136384585
0.464630126953125	0.0256195068359375	4021.8534888458
0.46905517578125	0.0257476806640625	4021.87561384574
0.473480224609375	0.0258697509765625	4021.89773884568
0.4779052734375	0.0259918212890625	4021.91986384563
0.482330322265625	0.0261138916015625	4021.94198884557
0.48675537109375	0.02623291015625	4021.96411384552
0.491180419921875	0.0263519287109375	4021.98623884546
0.49560546875	0.02646484375	4022.00836384541
0.500030517578125	0.0265777587890625	4022.03048884535
0.50445556640625	0.0266876220703125	4022.05261384529
0.508880615234375	0.0267974853515625	4022.07473884524
0.5133056640625	0.026904296875	4022.09686384518
0.517730712890625	0.0270111083984375	4022.11898884513
0.52215576171875	0.0271148681640625	4022.14111384507
0.526580810546875	0.0272186279296875	4022.16323884501
0.531005859375	0.0273193359375	4022.18536384496
0.535430908203125	0.0274169921875	4022.2074888449
0.53985595703125	0.0275146484375	4022.22961384485
0.544281005859375	0.0276092529296875	4022.25173884479
0.5487060546875	0.027703857421875	4022.27386384473
0.553131103515625	0.02779541015625	4022.29598884468
0.55755615234375	0.027886962890625	4022.31811384462
0.561981201171875	0.0279754638671875	4022.34023884457
0.56640625	0.02806396484375	4022.36236384451
0.570831298828125	0.0281494140625	4022.38448884446
0.57525634765625	0.02823486328125	4022.4066138444
0.579681396484375	0.0283172607421875	4022.42873884434
0.5841064453125	0.028399658203125	4022.45086384429
0.588531494140625	0.02847900390625	4022.47298884423
0.59295654296875	0.0285552978515625	4022.49511384418
0.597381591796875	0.0286346435546875	4022.51723884412
0.601806640625	0.0287109375	4022.53936384406
0.606231689453125	0.0287841796875	4022.56148884401
0.61065673828125	0.028857421875	4022.58361384395
0.615081787109375	0.0289306640625	4022.6057388439
0.6195068359375	0.028997802734375	4022.62786384384
0.623931884765625	0.0290679931640625	4022.64998884379
0.62835693359375	0.0291412353515625	4022.67211384373
0.632781982421875	0.029205322265625	4022.69423884367
0.63720703125	0.0292755126953125	4022.71636384362
0.641632080078125	0.0293365478515625	4022.73848884356
0.64605712890625	0.02939453125	4022.76061384351
0.650482177734375	0.02945556640625	4022.78273884345
0.6549072265625	0.0295135498046875	4022.80486384339
0.659332275390625	0.0295684814453125	4022.82698884334
0.66375732421875	0.0296234130859375	4022.84911384328
0.668182373046875	0.0296783447265625	4022.87123884323
0.672607421875	0.029730224609375	4022.89336384317
0.677032470703125	0.0297821044921875	4022.91548884311
0.68145751953125	0.0298309326171875	4022.93761384306
0.685882568359375	0.0298797607421875	4022.959738843
0.6903076171875	0.0299285888671875	4022.98186384295
0.694732666015625	0.029974365234375	4023.00398884289
0.69915771484375	0.0300201416015625	4023.02611384284
0.703582763671875	0.030059814453125	4023.04823884278
0.7080078125	0.0301055908203125	4023.07036384272
0.712432861328125	0.0301483154296875	4023.09248884267
0.71685791015625	0.03018798828125	4023.11461384261
0.721282958984375	0.030230712890625	4023.13673884256
0.7257080078125	0.030267333984375	4023.1588638425
0.730133056640625	0.0303009033203125	4023.18098884244
0.73455810546875	0.03033447265625	4023.20311384239
0.738983154296875	0.03037109375	4023.22523884233
0.743408203125	0.030401611328125	4023.24736384228
0.747833251953125	0.0304351806640625	4023.26948884222
0.75225830078125	0.0304656982421875	4023.29161384217
0.756683349609375	0.0304962158203125	4023.31373884211
0.7611083984375	0.030523681640625	4023.33586384205
0.765533447265625	0.0305511474609375	4023.357988842
0.76995849609375	0.0305816650390625	4023.38011384194
0.774383544921875	0.030609130859375	4023.40223884189
0.77880859375	0.030633544921875	4023.42436384183
0.783233642578125	0.030657958984375	4023.44648884177
0.78765869140625	0.030682373046875	4023.46861384172
0.792083740234375	0.030706787109375	4023.49073884166
0.7965087890625	0.030731201171875	4023.51286384161
0.800933837890625	0.0307525634765625	4023.53498884155
0.80535888671875	0.0307769775390625	4023.55711384149
0.809783935546875	0.0307952880859375	4023.57923884144
0.814208984375	0.030816650390625	4023.60136384138
0.818634033203125	0.0308380126953125	4023.62348884133
0.82305908203125	0.030859375	4023.64561384127
0.827484130859375	0.030877685546875	4023.66773884122
0.8319091796875	0.03089599609375	4023.68986384116
0.836334228515625	0.0309173583984375	4023.7119888411
0.84075927734375	0.030938720703125	4023.73411384105
0.845184326171875	0.0309600830078125	4023.75623884099
0.849609375	0.030975341796875	4023.77836384094
0.854034423828125	0.03099365234375	4023.80048884088
0.85845947265625	0.0310150146484375	4023.82261384082
0.862884521484375	0.0310333251953125	4023.84473884077
0.8673095703125	0.0310516357421875	4023.86686384071
0.871734619140625	0.031072998046875	4023.88898884066
0.87615966796875	0.03109130859375	4023.9111138406
0.880584716796875	0.031109619140625	4023.93323884055
0.885009765625	0.031134033203125	4023.95536384049
0.889434814453125	0.03115234375	4023.97748884043
0.89385986328125	0.0311737060546875	4023.99961384038
0.898284912109375	0.031195068359375	4024.02173884032
0.9027099609375	0.0312164306640625	4024.04386384027
0.907135009765625	0.0312408447265625	4024.06598884021
0.91156005859375	0.0312652587890625	4024.08811384015
0.915985107421875	0.03128662109375	4024.1102388401
0.92041015625	0.03131103515625	4024.13236384004
0.924835205078125	0.0313385009765625	4024.15448883999
0.92926025390625	0.031365966796875	4024.17661383993
0.933685302734375	0.031396484375	4024.19873883987
0.9381103515625	0.0314300537109375	4024.22086383982
0.942535400390625	0.0314605712890625	4024.24298883976
0.94696044921875	0.0314910888671875	4024.26511383971
0.951385498046875	0.031524658203125	4024.28723883965
0.955810546875	0.0315582275390625	4024.3093638396
0.960235595703125	0.031591796875	4024.33148883954
0.96466064453125	0.0316314697265625	4024.35361383948
0.969085693359375	0.031671142578125	4024.37573883943
0.9735107421875	0.0317108154296875	4024.39786383937
0.977935791015625	0.03175048828125	4024.41998883932
0.98236083984375	0.031793212890625	4024.44211383926
0.986785888671875	0.0318389892578125	4024.4642388392
0.9912109375	0.031884765625	4024.48636383915
0.995635986328125	0.0319366455078125	4024.50848883909
1.00006103515625	0.0319854736328125	4024.53061383904
0.995635986328125	0.0308990478515625	4024.55273883898
0.9912109375	0.02984619140625	4024.57486383893
0.986785888671875	0.0288360595703125	4024.59698883887
0.98236083984375	0.0278472900390625	4024.61911383881
0.977935791015625	0.026885986328125	4024.64123883876
0.9735107421875	0.0259521484375	4024.6633638387
0.969085693359375	0.0250335693359375	4024.68548883865
0.96466064453125	0.0241363525390625	4024.70761383859
0.960235595703125	0.023260498046875	4024.72973883853
0.955810546875	0.02239990234375	4024.75186383848
0.951385498046875	0.0215606689453125	4024.77398883842
0.94696044921875	0.0207366943359375	4024.79611383837
0.942535400390625	0.019927978515625	4024.81823883831
0.9381103515625	0.019134521484375	4024.84036383826
0.933685302734375	0.0183502197265625	4024.8624888382
0.92926025390625	0.0175872802734375	4024.88461383814
0.924835205078125	0.0168365478515625	4024.90673883809
0.92041015625	0.0160980224609375	4024.92886383803
0.915985107421875	0.0153778076171875	4024.95098883798
0.91156005859375	0.014666748046875	4024.97311383792
0.907135009765625	0.0139678955078125	4024.99523883786
0.9027099609375	0.01328125	4025.01736383781
0.898284912109375	0.0126068115234375	4025.03948883775
0.89385986328125	0.011944580078125	4025.0616138377
0.889434814453125	0.01129150390625	4025.08373883764
0.885009765625	0.0106536865234375	4025.10586383758
0.880584716796875	0.01002197265625	4025.12798883753
0.87615966796875	0.0093994140625	4025.15011383747
0.871734619140625	0.0087890625	4025.17223883742
0.8673095703125	0.0081878662109375	4025.19436383736
0.862884521484375	0.007598876953125	4025.21648883731
0.85845947265625	0.00701904296875	4025.23861383725
0.854034423828125	0.0064453125	4025.26073883719
0.849609375	0.0058837890625	4025.28286383714
0.845184326171875	0.005328369140625	4025.30498883708
0.84075927734375	0.00478363037109375	4025.32711383703
0.836334228515625	0.0042462158203125	4025.34923883697
0.8319091796875	0.00371795654296875	4025.37136383691
0.827484130859375	0.00319854736328125	4025.39348883686
0.82305908203125	0.00268646240234375	4025.4156138368
0.818634033203125	0.00218414306640625	4025.43773883675
0.814208984375	0.00168701171875	4025.45986383669
0.809783935546875	0.0011981201171875	4025.48198883664
0.80535888671875	0.000716552734375	4025.50411383658
0.800933837890625	0.0002421875	4025.52623883652
0.7965087890625	-0.000224334716796875	4025.54836383647
0.792083740234375	-0.00068328857421875	4025.57048883641
0.78765869140625	-0.00113494873046875	4025.59261383636
0.783233642578125	-0.00157989501953125	4025.6147388363
0.77880859375	-0.00201751708984375	4025.63686383624
0.774383544921875	-0.00244720458984375	4025.65898883619
0.76995849609375	-0.00287139892578125	4025.68111383613
0.765533447265625	-0.0032891845703125	4025.70323883608
0.7611083984375	-0.00370025634765625	4025.72536383602
0.756683349609375	-0.00410400390625	4025.74748883596
0.75225830078125	-0.004501953125	4025.76961383591
0.747833251953125	-0.004892578125	4025.79173883585
0.743408203125	-0.00527801513671875	4025.8138638358
0.738983154296875	-0.00565399169921875	4025.83598883574
0.73455810546875	-0.0060272216796875	4025.85811383569
0.730133056640625	-0.0063690185546875	4025.88023883563
0.7257080078125	-0.0067291259765625	4025.90236383557
0.721282958984375	-0.0070831298828125	4025.92448883552
0.71685791015625	-0.0074310302734375	4025.94661383546
0.712432861328125	-0.00777587890625	4025.96873883541
0.7080078125	-0.0081085205078125	4025.99086383535
0.703582763671875	-0.0084381103515625	4026.01298883529
0.69915771484375	-0.0087615966796875	4026.03511383524
0.694732666015625	-0.00908203125	4026.05723883518
0.6903076171875	-0.0093963623046875	4026.07936383513
0.685882568359375	-0.00970458984375	4026.10148883507
0.68145751953125	-0.010009765625	4026.12361383502
0.677032470703125	-0.0103118896484375	4026.14573883496
0.672607421875	-0.0106048583984375	4026.1678638349
0.668182373046875	-0.010894775390625	4026.18998883485
0.66375732421875	-0.011175537109375	4026.21211383479
0.659332275390625	-0.011456298828125	4026.23423883474
0.6549072265625	-0.01173095703125	4026.25636383468
0.650482177734375	-0.0120025634765625	4026.27848883462
0.64605712890625	-0.01226806640625	4026.30061383457
0.641632080078125	-0.0125274658203125	4026.32273883451
0.63720703125	-0.012786865234375	4026.34486383446
0.632781982421875	-0.0130401611328125	4026.3669888344
0.62835693359375	-0.013287353515625	4026.38911383434
0.623931884765625	-0.0135406494140625	4026.41123883429
0.6195068359375	-0.01378173828125	4026.43336383423
0.615081787109375	-0.0140167236328125	4026.45548883418
0.61065673828125	-0.01424560546875	4026.47761383412
0.606231689453125	-0.0144744873046875	4026.49973883407
0.601806640625	-0.0147003173828125	4026.52186383401
0.597381591796875	-0.014923095703125	4026.54398883395
0.59295654296875	-0.0151397705078125	4026.5661138339
0.588531494140625	-0.0153564453125	4026.58823883384
0.5841064453125	-0.0155670166015625	4026.61036383379
0.579681396484375	-0.0157684326171875	4026.63248883373
0.57525634765625	-0.015972900390625	4026.65461383367
0.570831298828125	-0.01617431640625	4026.67673883362
0.56640625	-0.0163726806640625	4026.69886383356
0.561981201171875	-0.016571044921875	4026.72098883351
0.55755615234375	-0.0167724609375	4026.74311383345
0.553131103515625	-0.016961669921875	4026.76523883339
0.5487060546875	-0.0171478271484375	4026.78736383334
0.544281005859375	-0.017327880859375	4026.80948883328
0.53985595703125	-0.017510986328125	4026.83161383323
0.535430908203125	-0.01768798828125	4026.85373883317
0.531005859375	-0.017864990234375	4026.87586383312
0.526580810546875	-0.018035888671875	4026.89798883306
0.52215576171875	-0.0181976318359375	4026.920113833
0.517730712890625	-0.0183624267578125	4026.94223883295
0.5133056640625	-0.0185272216796875	4026.96436383289
0.508880615234375	-0.018695068359375	4026.98648883284
0.50445556640625	-0.018865966796875	4027.00861383278
0.500030517578125	-0.0190277099609375	4027.03073883272
0.49560546875	-0.0191864013671875	4027.05286383267
0.491180419921875	-0.019342041015625	4027.07498883261
0.48675537109375	-0.0194976806640625	4027.09711383256
0.482330322265625	-0.0196502685546875	4027.1192388325
0.4779052734375	-0.0197998046875	4027.14136383245
0.473480224609375	-0.0199462890625	4027.16348883239
0.46905517578125	-0.0200958251953125	4027.18561383233
0.464630126953125	-0.0202392578125	4027.20773883228
0.460205078125	-0.0203765869140625	4027.22986383222
0.455780029296875	-0.0205230712890625	4027.25198883217
0.45135498046875	-0.0206634521484375	4027.27411383211
0.446929931640625	-0.02080078125	4027.29623883205
0.4425048828125	-0.0209381103515625	4027.318363832
0.438079833984375	-0.0210723876953125	4027.34048883194
0.43365478515625	-0.0212066650390625	4027.36261383189
0.429229736328125	-0.021337890625	4027.38473883183
0.4248046875	-0.02147216796875	4027.40686383177
0.420379638671875	-0.021600341796875	4027.42898883172
0.41595458984375	-0.021728515625	4027.45111383166
0.411529541015625	-0.021856689453125	4027.47323883161
0.4071044921875	-0.021978759765625	4027.49536383155
0.402679443359375	-0.02210693359375	4027.5174888315
0.39825439453125	-0.02222900390625	4027.53961383144
0.393829345703125	-0.0223541259765625	4027.56173883138
0.389404296875	-0.02247314453125	4027.58386383133
0.384979248046875	-0.02259521484375	4027.60598883127
0.38055419921875	-0.0227142333984375	4027.62811383122
0.376129150390625	-0.0228363037109375	4027.65023883116
0.3717041015625	-0.0229522705078125	4027.67236383111
0.367279052734375	-0.0230682373046875	4027.69448883105
0.36285400390625	-0.023187255859375	4027.71661383099
0.358428955078125	-0.02330322265625	4027.73873883094
0.35400390625	-0.023419189453125	4027.76086383088
0.349578857421875	-0.0235260009765625	4027.78298883083
0.34515380859375	-0.0236419677734375	4027.80511383077
0.340728759765625	-0.0237548828125	4027.82723883071
0.3363037109375	-0.0238677978515625	4027.84936383066
0.331878662109375	-0.023980712890625	4027.8714888306
0.32745361328125	-0.024090576171875	4027.89361383055
0.323028564453125	-0.024200439453125	4027.91573883049
0.318603515625	-0.024310302734375	4027.93786383043
0.314178466796875	-0.024420166015625	4027.95998883038
0.30975341796875	-0.0245330810546875	4027.98211383032
0.305328369140625	-0.0246429443359375	4028.00423883027
0.3009033203125	-0.0247528076171875	4028.02636383021
0.296478271484375	-0.024859619140625	4028.04848883016
0.29205322265625	-0.0249664306640625	4028.0706138301
0.287628173828125	-0.0250701904296875	4028.09273883004
0.283203125	-0.025177001953125	4028.11486382999
0.278778076171875	-0.0252838134765625	4028.13698882993
0.27435302734375	-0.0253875732421875	4028.15911382988
0.269927978515625	-0.025494384765625	4028.18123882982
0.2655029296875	-0.02559814453125	4028.20336382976
0.261077880859375	-0.025701904296875	4028.22548882971
0.25665283203125	-0.0258056640625	4028.24761382965
0.252227783203125	-0.025909423828125	4028.2697388296
0.247802734375	-0.02601318359375	4028.29186382954
0.243377685546875	-0.026116943359375	4028.31398882948
0.23895263671875	-0.026220703125	4028.33611382943
0.234527587890625	-0.0263214111328125	4028.35823882937
0.2301025390625	-0.0264251708984375	4028.38036382932
0.225677490234375	-0.02652587890625	4028.40248882926
0.22125244140625	-0.0266265869140625	4028.42461382921
0.216827392578125	-0.026727294921875	4028.44673882915
0.21240234375	-0.0268280029296875	4028.46886382909
0.207977294921875	-0.0269287109375	4028.49098882904
0.20355224609375	-0.027032470703125	4028.51311382898
0.199127197265625	-0.0271331787109375	4028.53523882893
0.1947021484375	-0.0272308349609375	4028.55736382887
0.190277099609375	-0.0273345947265625	4028.57948882881
0.18585205078125	-0.027435302734375	4028.60161382876
0.181427001953125	-0.0275360107421875	4028.6237388287
0.177001953125	-0.0276336669921875	4028.64586382865
0.172576904296875	-0.027734375	4028.66798882859
0.16815185546875	-0.02783203125	4028.69011382854
0.163726806640625	-0.0279327392578125	4028.71223882848
0.1593017578125	-0.028033447265625	4028.73436382842
0.154876708984375	-0.0281280517578125	4028.75648882837
0.15045166015625	-0.0282257080078125	4028.77861382831
0.146026611328125	-0.028326416015625	4028.80073882826
0.1416015625	-0.028424072265625	4028.8228638282
0.137176513671875	-0.028521728515625	4028.84498882814
0.13275146484375	-0.028619384765625	4028.86711382809
0.128326416015625	-0.0287139892578125	4028.88923882803
0.1239013671875	-0.028814697265625	4028.91136382798
0.119476318359375	-0.0289093017578125	4028.93348882792
0.11505126953125	-0.02900390625	4028.95561382786
0.110626220703125	-0.0291046142578125	4028.97773882781
0.106201171875	-0.02919921875	4028.99986382775
0.101776123046875	-0.029296875	4029.0219888277
0.09735107421875	-0.0293914794921875	4029.04411382764
0.092926025390625	-0.0294891357421875	4029.06623882759
0.0885009765625	-0.0295867919921875	4029.08836382753
0.084075927734375	-0.029681396484375	4029.11048882747
0.07965087890625	-0.0297760009765625	4029.13261382742
0.075225830078125	-0.0298675537109375	4029.15473882736
0.07080078125	-0.0299652099609375	4029.17686382731
0.066375732421875	-0.0300628662109375	4029.19898882725
0.06195068359375	-0.030157470703125	4029.22111382719
0.057525634765625	-0.030255126953125	4029.24323882714
0.0531005859375	-0.0303497314453125	4029.26536382708
0.048675537109375	-0.0304412841796875	4029.28748882703
0.04425048828125	-0.030535888671875	4029.30961382697
0.039825439453125	-0.03062744140625	4029.33173882692
0.035400390625	-0.0307220458984375	4029.35386382686
0.030975341796875	-0.030816650390625	4029.3759888268
0.02655029296875	-0.030914306640625	4029.39811382675
0.022125244140625	-0.031005859375	4029.42023882669
0.0177001953125	-0.0311004638671875	4029.44236382664
0.013275146484375	-0.031195068359375	4029.46448882658
0.00885009765625	-0.0312896728515625	4029.48661382652
0.004425048828125	-0.03138427734375	4029.50873882647
0	-0.0314788818359375	4029.53086382641
0.004425048828125	-0.0304351806640625	4029.55298882636
0.00885009765625	-0.029425048828125	4029.5751138263
0.013275146484375	-0.0284423828125	4029.59723882624
0.0177001953125	-0.0274810791015625	4029.61936382619
0.022125244140625	-0.026544189453125	4029.64148882613
0.02655029296875	-0.025628662109375	4029.66361382608
0.030975341796875	-0.0247314453125	4029.68573882602
0.035400390625	-0.0238525390625	4029.70786382597
0.039825439453125	-0.0229888916015625	4029.72998882591
0.04425048828125	-0.0221405029296875	4029.75211382585
0.048675537109375	-0.0213104248046875	4029.7742388258
0.0531005859375	-0.0204925537109375	4029.79636382574
0.057525634765625	-0.0196929931640625	4029.81848882569
0.06195068359375	-0.0189056396484375	4029.84061382563
0.066375732421875	-0.0181304931640625	4029.86273882557
0.07080078125	-0.0173675537109375	4029.88486382552
0.075225830078125	-0.0166229248046875	4029.90698882546
0.07965087890625	-0.015887451171875	4029.92911382541
0.084075927734375	-0.0151611328125	4029.95123882535
0.0885009765625	-0.014447021484375	4029.9733638253
0.092926025390625	-0.0137481689453125	4029.99548882524
0.09735107421875	-0.0130584716796875	4030.01761382518
0.101776123046875	-0.0123779296875	4030.03973882513
0.106201171875	-0.01170654296875	4030.06186382507
0.110626220703125	-0.01104736328125	4030.08398882502
0.11505126953125	-0.010400390625	4030.10611382496
0.119476318359375	-0.009765625	4030.1282388249
0.1239013671875	-0.009136962890625	4030.15036382485
0.128326416015625	-0.0085174560546875	4030.17248882479
0.13275146484375	-0.007904052734375	4030.19461382474
0.137176513671875	-0.007305908203125	4030.21673882468
0.1416015625	-0.0067108154296875	4030.23886382462
0.146026611328125	-0.0061279296875	4030.26098882457
0.15045166015625	-0.0055511474609375	4030.28311382451
0.154876708984375	-0.0049859619140625	4030.30523882446
0.1593017578125	-0.0044281005859375	4030.3273638244
0.163726806640625	-0.0038775634765625	4030.34948882435
0.16815185546875	-0.00333526611328125	4030.37161382429
0.172576904296875	-0.00280059814453125	4030.39373882423
0.177001953125	-0.0022833251953125	4030.41586382418
0.181427001953125	-0.00176177978515625	4030.43798882412
0.18585205078125	-0.00124908447265625	4030.46011382407
0.190277099609375	-0.00074371337890625	4030.48223882401
0.1947021484375	-0.000245147705078125	4030.50436382395
0.199127197265625	0.00024542236328125	4030.5264888239
0.20355224609375	0.0007293701171875	4030.54861382384
0.207977294921875	0.0012066650390625	4030.57073882379
0.21240234375	0.00167724609375	4030.59286382373
0.216827392578125	0.002142333984375	4030.61498882368
0.22125244140625	0.00260009765625	4030.63711382362
0.225677490234375	0.003050537109375	4030.65923882356
0.2301025390625	0.00349456787109375	4030.68136382351
0.234527587890625	0.00393096923828125	4030.70348882345
0.23895263671875	0.0043621826171875	4030.7256138234
0.243377685546875	0.00478668212890625	4030.74773882334
0.247802734375	0.00520721435546875	4030.76986382328
0.252227783203125	0.00562103271484375	4030.79198882323
0.25665283203125	0.00602813720703125	4030.81411382317
0.261077880859375	0.0064178466796875	4030.83623882312
0.2655029296875	0.0068145751953125	4030.85836382306
0.269927978515625	0.0072021484375	4030.88048882301
0.27435302734375	0.0075897216796875	4030.90261382295
0.278778076171875	0.0079620361328125	4030.92473882289
0.283203125	0.00833740234375	4030.94686382284
0.287628173828125	0.00870361328125	4030.96898882278
0.29205322265625	0.0090667724609375	4030.99111382273
0.296478271484375	0.009417724609375	4031.01323882267
0.3009033203125	0.009771728515625	4031.03536382261
0.305328369140625	0.0101165771484375	4031.05748882256
0.30975341796875	0.0104583740234375	4031.0796138225
0.314178466796875	0.010797119140625	4031.10173882245
0.318603515625	0.0111236572265625	4031.12386382239
0.323028564453125	0.0114471435546875	4031.14598882233
0.32745361328125	0.011767578125	4031.16811382228
0.331878662109375	0.0120849609375	4031.19023882222
0.3363037109375	0.01240234375	4031.21236382217
0.340728759765625	0.01270751953125	4031.23448882211
0.34515380859375	0.0130096435546875	4031.25661382206
0.349578857421875	0.0133087158203125	4031.278738822
0.35400390625	0.0135986328125	4031.30086382194
0.358428955078125	0.0138885498046875	4031.32298882189
0.36285400390625	0.0141693115234375	4031.34511382183
0.367279052734375	0.0144500732421875	4031.36723882178
0.3717041015625	0.0147247314453125	4031.38936382172
0.376129150390625	0.014996337890625	4031.41148882166
0.38055419921875	0.015264892578125	4031.43361382161
0.384979248046875	0.01552734375	4031.45573882155
0.389404296875	0.01578369140625	4031.4778638215
0.393829345703125	0.0160369873046875	4031.49998882144
0.39825439453125	0.016290283203125	4031.52211382139
0.402679443359375	0.016534423828125	4031.54423882133
0.4071044921875	0.016778564453125	4031.56636382127
0.411529541015625	0.0170196533203125	4031.58848882122
0.41595458984375	0.0172515869140625	4031.61061382116
0.420379638671875	0.0174835205078125	4031.63273882111
0.4248046875	0.0177093505859375	4031.65486382105
0.429229736328125	0.0179351806640625	4031.67698882099
0.43365478515625	0.0181549072265625	4031.69911382094
0.438079833984375	0.01837158203125	4031.72123882088
0.4425048828125	0.0185882568359375	4031.74336382083
0.446929931640625	0.018798828125	4031.76548882077
0.45135498046875	0.01900634765625	4031.78761382071
0.455780029296875	0.0192138671875	4031.80973882066
0.460205078125	0.0194183349609375	4031.8318638206
0.464630126953125	0.01961669921875	4031.85398882055
0.46905517578125	0.01981201171875	4031.87611382049
0.473480224609375	0.0200042724609375	4031.89823882044
0.4779052734375	0.0201934814453125	4031.92036382038
0.482330322265625	0.02037353515625	4031.94248882032
0.48675537109375	0.020556640625	4031.96461382027
0.491180419921875	0.020733642578125	4031.98673882021
0.49560546875	0.02091064453125	4032.00886382016
0.500030517578125	0.0210906982421875	4032.0309888201
0.50445556640625	0.0212677001953125	4032.05311382004
0.508880615234375	0.0214385986328125	4032.07523881999
0.5133056640625	0.0215972900390625	4032.09736381993
0.517730712890625	0.0217559814453125	4032.11948881988
0.52215576171875	0.021917724609375	4032.14161381982
0.526580810546875	0.0220794677734375	4032.16373881977
0.531005859375	0.0222442626953125	4032.18586381971
0.535430908203125	0.0223968505859375	4032.20798881965
0.53985595703125	0.02254638671875	4032.2301138196
0.544281005859375	0.0226959228515625	4032.25223881954
0.5487060546875	0.02283935546875	4032.27436381949
0.553131103515625	0.0229827880859375	4032.29648881943
0.55755615234375	0.0231231689453125	4032.31861381937
0.561981201171875	0.0232635498046875	4032.34073881932
0.56640625	0.0233978271484375	4032.36286381926
0.570831298828125	0.0235260009765625	4032.38498881921
0.57525634765625	0.0236572265625	4032.40711381915
0.579681396484375	0.023785400390625	4032.42923881909
0.5841064453125	0.02391357421875	4032.45136381904
0.588531494140625	0.0240325927734375	4032.47348881898
0.59295654296875	0.0241546630859375	4032.49561381893
0.597381591796875	0.024273681640625	4032.51773881887
0.601806640625	0.0243896484375	4032.53986381882
0.606231689453125	0.024505615234375	4032.56198881876
0.61065673828125	0.0246185302734375	4032.5841138187
0.615081787109375	0.0247314453125	4032.60623881865
0.6195068359375	0.0248382568359375	4032.62836381859
0.623931884765625	0.024945068359375	4032.65048881854
0.62835693359375	0.0250518798828125	4032.67261381848
0.632781982421875	0.025152587890625	4032.69473881842
0.63720703125	0.0252532958984375	4032.71686381837
0.641632080078125	0.0253509521484375	4032.73898881831
0.64605712890625	0.0254486083984375	4032.76111381826
0.650482177734375	0.025543212890625	4032.7832388182
0.6549072265625	0.025634765625	4032.80536381815
0.659332275390625	0.025726318359375	4032.82748881809
0.66375732421875	0.025811767578125	4032.84961381803
0.668182373046875	0.0259002685546875	4032.87173881798
0.672607421875	0.025982666015625	4032.89386381792
0.677032470703125	0.0260650634765625	4032.91598881787
0.68145751953125	0.0261474609375	4032.93811381781
0.685882568359375	0.026226806640625	4032.96023881775
0.6903076171875	0.02630615234375	4032.9823638177
0.694732666015625	0.0263824462890625	4033.00448881764
0.69915771484375	0.0264556884765625	4033.02661381759
0.703582763671875	0.0265289306640625	4033.04873881753
0.7080078125	0.0265960693359375	4033.07086381747
0.712432861328125	0.026666259765625	4033.09298881742
0.71685791015625	0.0267303466796875	4033.11511381736
0.721282958984375	0.0267974853515625	4033.13723881731
0.7257080078125	0.0268646240234375	4033.15936381725
0.730133056640625	0.0269256591796875	4033.1814888172
0.73455810546875	0.0269866943359375	4033.20361381714
0.738983154296875	0.0270477294921875	4033.22573881708
0.743408203125	0.027105712890625	4033.24786381703
0.747833251953125	0.027166748046875	4033.26998881697
0.75225830078125	0.0272186279296875	4033.29211381692
0.756683349609375	0.027276611328125	4033.31423881686
0.7611083984375	0.0273284912109375	4033.3363638168
0.765533447265625	0.02738037109375	4033.35848881675
0.76995849609375	0.027435302734375	4033.38061381669
0.774383544921875	0.027484130859375	4033.40273881664
0.77880859375	0.0275360107421875	4033.42486381658
0.783233642578125	0.0275848388671875	4033.44698881653
0.78765869140625	0.0276336669921875	4033.46911381647
0.792083740234375	0.027679443359375	4033.49123881641
0.7965087890625	0.027728271484375	4033.51336381636
0.800933837890625	0.0277740478515625	4033.5354888163
0.80535888671875	0.0278167724609375	4033.55761381625
0.809783935546875	0.027862548828125	4033.57973881619
0.814208984375	0.0279083251953125	4033.60186381613
0.818634033203125	0.0279510498046875	4033.62398881608
0.82305908203125	0.0279937744140625	4033.64611381602
0.827484130859375	0.028033447265625	4033.66823881597
0.8319091796875	0.0280792236328125	4033.69036381591
0.836334228515625	0.028118896484375	4033.71248881586
0.84075927734375	0.02816162109375	4033.7346138158
0.845184326171875	0.0282012939453125	4033.75673881574
0.849609375	0.028240966796875	4033.77886381569
0.854034423828125	0.02828369140625	4033.80098881563
0.85845947265625	0.0283233642578125	4033.82311381558
0.862884521484375	0.028363037109375	4033.84523881552
0.8673095703125	0.0284027099609375	4033.86736381546
0.871734619140625	0.0284454345703125	4033.88948881541
0.87615966796875	0.0284881591796875	4033.91161381535
0.880584716796875	0.02852783203125	4033.9337388153
0.885009765625	0.028570556640625	4033.95586381524
0.889434814453125	0.0286102294921875	4033.97798881518
0.89385986328125	0.0286529541015625	4034.00011381513
0.898284912109375	0.0286956787109375	4034.02223881507
0.9027099609375	0.0287384033203125	4034.04436381502
0.907135009765625	0.0287872314453125	4034.06648881496
0.91156005859375	0.028826904296875	4034.08861381491
0.915985107421875	0.028875732421875	4034.11073881485
0.92041015625	0.02891845703125	4034.13286381479
0.924835205078125	0.0289642333984375	4034.15498881474
0.92926025390625	0.0290130615234375	4034.17711381468
0.933685302734375	0.0290618896484375	4034.19923881463
0.9381103515625	0.02911376953125	4034.22136381457
0.942535400390625	0.0291656494140625	4034.24348881451
0.94696044921875	0.0292144775390625	4034.26561381446
0.951385498046875	0.0292694091796875	4034.2877388144
0.955810546875	0.0293243408203125	4034.30986381435
0.960235595703125	0.0293792724609375	4034.33198881429
0.96466064453125	0.0294342041015625	4034.35411381424
0.969085693359375	0.0294952392578125	4034.37623881418
0.9735107421875	0.02955322265625	4034.39836381412
0.977935791015625	0.0296142578125	4034.42048881407
0.98236083984375	0.02967529296875	4034.44261381401
0.986785888671875	0.0297393798828125	4034.46473881396
0.9912109375	0.029803466796875	4034.4868638139
0.995635986328125	0.0298736572265625	4034.50898881384
1.00006103515625	0.0299468994140625	4034.53111381379
0.995635986328125	0.0288818359375	4034.55323881373
0.9912109375	0.0278564453125	4034.57536381368
0.986785888671875	0.026861572265625	4034.59748881362
0.98236083984375	0.0258941650390625	4034.61961381356
0.977935791015625	0.0249542236328125	4034.64173881351
0.9735107421875	0.0240386962890625	4034.66386381345
0.969085693359375	0.02314453125	4034.6859888134
0.96466064453125	0.022265625	4034.70811381334
0.960235595703125	0.021405029296875	4034.73023881329
0.955810546875	0.02056884765625	4034.75236381323
0.951385498046875	0.0197479248046875	4034.77448881317
0.94696044921875	0.0189422607421875	4034.79661381312
0.942535400390625	0.01815185546875	4034.81873881306
0.9381103515625	0.0173797607421875	4034.84086381301
0.933685302734375	0.016619873046875	4034.86298881295
0.92926025390625	0.015875244140625	4034.88511381289
0.924835205078125	0.0151458740234375	4034.90723881284
0.92041015625	0.014422607421875	4034.92936381278
0.915985107421875	0.0137237548828125	4034.95148881273
0.91156005859375	0.013031005859375	4034.97361381267
0.907135009765625	0.012353515625	4034.99573881261
0.9027099609375	0.0116851806640625	4035.01786381256
0.898284912109375	0.0110260009765625	4035.0399888125
0.89385986328125	0.0103851318359375	4035.06211381245
0.889434814453125	0.0097503662109375	4035.08423881239
0.885009765625	0.0091278076171875	4035.10636381234
0.880584716796875	0.008514404296875	4035.12848881228
0.87615966796875	0.00791015625	4035.15061381222
0.871734619140625	0.0073211669921875	4035.17273881217
0.8673095703125	0.0067352294921875	4035.19486381211
0.862884521484375	0.0061614990234375	4035.21698881206
0.85845947265625	0.005596923828125	4035.239113812
0.854034423828125	0.00504150390625	4035.26123881194
0.849609375	0.004493408203125	4035.28336381189
0.845184326171875	0.00395538330078125	4035.30548881183
0.84075927734375	0.003426513671875	4035.32761381178
0.836334228515625	0.0029052734375	4035.34973881172
0.8319091796875	0.002392578125	4035.37186381167
0.827484130859375	0.00188873291015625	4035.39398881161
0.82305908203125	0.001390380859375	4035.41611381155
0.818634033203125	0.00090057373046875	4035.4382388115
0.814208984375	0.000418060302734375	4035.46036381144
0.809783935546875	-5.6182861328125E-05	4035.48248881139
0.80535888671875	-0.0005230712890625	4035.50461381133
0.800933837890625	-0.00098297119140625	4035.52673881127
0.7965087890625	-0.00143463134765625	4035.54886381122
0.792083740234375	-0.00188018798828125	4035.57098881116
0.78765869140625	-0.00231781005859375	4035.59311381111
0.783233642578125	-0.0027484130859375	4035.61523881105
0.77880859375	-0.0031719970703125	4035.637363811
0.774383544921875	-0.0035894775390625	4035.65948881094
0.76995849609375	-0.004000244140625	4035.68161381088
0.765533447265625	-0.004404296875	4035.70373881083
0.7611083984375	-0.00480194091796875	4035.72586381077
0.756683349609375	-0.00519317626953125	4035.74798881072
0.75225830078125	-0.00557830810546875	4035.77011381066
0.747833251953125	-0.00595703125	4035.7922388106
0.743408203125	-0.00632904052734375	4035.81436381055
0.738983154296875	-0.0066680908203125	4035.83648881049
0.73455810546875	-0.007025146484375	4035.85861381044
0.730133056640625	-0.007379150390625	4035.88073881038
0.7257080078125	-0.00772705078125	4035.90286381032
0.721282958984375	-0.0080657958984375	4035.92498881027
0.71685791015625	-0.0084014892578125	4035.94711381021
0.712432861328125	-0.0087310791015625	4035.96923881016
0.7080078125	-0.0090576171875	4035.9913638101
0.703582763671875	-0.009375	4036.01348881005
0.69915771484375	-0.009686279296875	4036.03561380999
0.694732666015625	-0.00999755859375	4036.05773880993
0.6903076171875	-0.0102996826171875	4036.07986380988
0.685882568359375	-0.0105987548828125	4036.10198880982
0.68145751953125	-0.0108917236328125	4036.12411380977
0.677032470703125	-0.011175537109375	4036.14623880971
0.672607421875	-0.0114593505859375	4036.16836380965
0.668182373046875	-0.011737060546875	4036.1904888096
0.66375732421875	-0.01201171875	4036.21261380954
0.659332275390625	-0.0122802734375	4036.23473880949
0.6549072265625	-0.012542724609375	4036.25686380943
0.650482177734375	-0.0128021240234375	4036.27898880938
0.64605712890625	-0.0130584716796875	4036.30111380932
0.641632080078125	-0.0133087158203125	4036.32323880926
0.63720703125	-0.013555908203125	4036.34536380921
0.632781982421875	-0.013800048828125	4036.36748880915
0.62835693359375	-0.0140380859375	4036.3896138091
0.623931884765625	-0.0142730712890625	4036.41173880904
0.6195068359375	-0.0145050048828125	4036.43386380898
0.615081787109375	-0.0147308349609375	4036.45598880893
0.61065673828125	-0.0149505615234375	4036.47811380887
0.606231689453125	-0.0151702880859375	4036.50023880882
0.601806640625	-0.015386962890625	4036.52236380876
0.597381591796875	-0.0156005859375	4036.5444888087
0.59295654296875	-0.01580810546875	4036.56661380865
0.588531494140625	-0.016015625	4036.58873880859
0.5841064453125	-0.016217041015625	4036.61086380854
0.579681396484375	-0.01641845703125	4036.63298880848
0.57525634765625	-0.01661376953125	4036.65511380843
0.570831298828125	-0.016802978515625	4036.67723880837
0.56640625	-0.0169891357421875	4036.69936380831
0.561981201171875	-0.0171630859375	4036.72148880826
0.55755615234375	-0.01734619140625	4036.7436138082
0.553131103515625	-0.017529296875	4036.76573880815
0.5487060546875	-0.0177154541015625	4036.78786380809
0.544281005859375	-0.0178924560546875	4036.80998880803
0.53985595703125	-0.0180633544921875	4036.83211380798
0.535430908203125	-0.018231201171875	4036.85423880792
0.531005859375	-0.018402099609375	4036.87636380787
0.526580810546875	-0.0185699462890625	4036.89848880781
0.52215576171875	-0.0187347412109375	4036.92061380776
0.517730712890625	-0.0188934326171875	4036.9427388077
0.5133056640625	-0.0190521240234375	4036.96486380764
0.508880615234375	-0.0192108154296875	4036.98698880759
0.50445556640625	-0.0193634033203125	4037.00911380753
0.500030517578125	-0.0195159912109375	4037.03123880748
0.49560546875	-0.0196685791015625	4037.05336380742
0.491180419921875	-0.0198150634765625	4037.07548880736
0.48675537109375	-0.019964599609375	4037.09761380731
0.482330322265625	-0.020111083984375	4037.11973880725
0.4779052734375	-0.0202545166015625	4037.1418638072
0.473480224609375	-0.0203887939453125	4037.16398880714
0.46905517578125	-0.0205291748046875	4037.18611380708
0.464630126953125	-0.02066650390625	4037.20823880703
0.460205078125	-0.0208038330078125	4037.23036380697
0.455780029296875	-0.0209381103515625	4037.25248880692
0.45135498046875	-0.0210723876953125	4037.27461380686
0.446929931640625	-0.02120361328125	4037.29673880681
0.4425048828125	-0.0213348388671875	4037.31886380675
0.438079833984375	-0.0214630126953125	4037.34098880669
0.43365478515625	-0.0215911865234375	4037.36311380664
0.429229736328125	-0.02171630859375	4037.38523880658
0.4248046875	-0.02183837890625	4037.40736380653
0.420379638671875	-0.02196044921875	4037.42948880647
0.41595458984375	-0.0220855712890625	4037.45161380641
0.411529541015625	-0.0222076416015625	4037.47373880636
0.4071044921875	-0.02232666015625	4037.4958638063
0.402679443359375	-0.0224456787109375	4037.51798880625
0.39825439453125	-0.022564697265625	4037.54011380619
0.393829345703125	-0.0226837158203125	4037.56223880614
0.389404296875	-0.022796630859375	4037.58436380608
0.384979248046875	-0.02291259765625	4037.60648880602
0.38055419921875	-0.023028564453125	4037.62861380597
0.376129150390625	-0.0231414794921875	4037.65073880591
0.3717041015625	-0.0232574462890625	4037.67286380586
0.367279052734375	-0.023370361328125	4037.6949888058
0.36285400390625	-0.0234771728515625	4037.71711380574
0.358428955078125	-0.0235870361328125	4037.73923880569
0.35400390625	-0.0236968994140625	4037.76136380563
0.349578857421875	-0.0238037109375	4037.78348880558
0.34515380859375	-0.02391357421875	4037.80561380552
0.340728759765625	-0.0240234375	4037.82773880546
0.3363037109375	-0.0241302490234375	4037.84986380541
0.331878662109375	-0.024237060546875	4037.87198880535
0.32745361328125	-0.024346923828125	4037.8941138053
0.323028564453125	-0.0244537353515625	4037.91623880524
0.318603515625	-0.024560546875	4037.93836380519
0.314178466796875	-0.024664306640625	4037.96048880513
0.30975341796875	-0.0247711181640625	4037.98261380507
0.305328369140625	-0.0248779296875	4038.00473880502
0.3009033203125	-0.024981689453125	4038.02686380496
0.296478271484375	-0.0250823974609375	4038.04898880491
0.29205322265625	-0.0251861572265625	4038.07111380485
0.287628173828125	-0.025286865234375	4038.09323880479
0.283203125	-0.025390625	4038.11536380474
0.278778076171875	-0.025494384765625	4038.13748880468
0.27435302734375	-0.02559814453125	4038.15961380463
0.269927978515625	-0.0256988525390625	4038.18173880457
0.2655029296875	-0.025799560546875	4038.20386380452
0.261077880859375	-0.0259002685546875	4038.22598880446
0.25665283203125	-0.0260009765625	4038.2481138044
0.252227783203125	-0.026104736328125	4038.27023880435
0.247802734375	-0.0262054443359375	4038.29236380429
0.243377685546875	-0.0263031005859375	4038.31448880424
0.23895263671875	-0.02640380859375	4038.33661380418
0.234527587890625	-0.0265045166015625	4038.35873880412
0.2301025390625	-0.02659912109375	4038.38086380407
0.225677490234375	-0.0266998291015625	4038.40298880401
0.22125244140625	-0.0267974853515625	4038.42511380396
0.216827392578125	-0.026898193359375	4038.4472388039
0.21240234375	-0.0269989013671875	4038.46936380385
0.207977294921875	-0.0270965576171875	4038.49148880379
0.20355224609375	-0.027197265625	4038.51361380373
0.199127197265625	-0.027294921875	4038.53573880368
0.1947021484375	-0.027392578125	4038.55786380362
0.190277099609375	-0.027490234375	4038.57998880357
0.18585205078125	-0.0275848388671875	4038.60211380351
0.181427001953125	-0.0276824951171875	4038.62423880345
0.177001953125	-0.0277801513671875	4038.6463638034
0.172576904296875	-0.0278778076171875	4038.66848880334
0.16815185546875	-0.0279754638671875	4038.69061380329
0.163726806640625	-0.028076171875	4038.71273880323
0.1593017578125	-0.028167724609375	4038.73486380317
0.154876708984375	-0.0282623291015625	4038.75698880312
0.15045166015625	-0.0283599853515625	4038.77911380306
0.146026611328125	-0.02845458984375	4038.80123880301
0.1416015625	-0.02855224609375	4038.82336380295
0.137176513671875	-0.0286468505859375	4038.8454888029
0.13275146484375	-0.0287445068359375	4038.86761380284
0.128326416015625	-0.028839111328125	4038.88973880278
0.1239013671875	-0.028936767578125	4038.91186380273
0.119476318359375	-0.0290313720703125	4038.93398880267
0.11505126953125	-0.0291259765625	4038.95611380262
0.110626220703125	-0.0292205810546875	4038.97823880256
0.106201171875	-0.029315185546875	4039.0003638025
0.101776123046875	-0.0294097900390625	4039.02248880245
0.09735107421875	-0.02950439453125	4039.04461380239
0.092926025390625	-0.0295989990234375	4039.06673880234
0.0885009765625	-0.0296905517578125	4039.08886380228
0.084075927734375	-0.02978515625	4039.11098880223
0.07965087890625	-0.0298797607421875	4039.13311380217
0.075225830078125	-0.029974365234375	4039.15523880211
0.07080078125	-0.0300689697265625	4039.17736380206
0.066375732421875	-0.0301605224609375	4039.199488802
0.06195068359375	-0.0302581787109375	4039.22161380195
0.057525634765625	-0.0303497314453125	4039.24373880189
0.0531005859375	-0.0304443359375	4039.26586380183
0.048675537109375	-0.030535888671875	4039.28798880178
0.04425048828125	-0.03062744140625	4039.31011380172
0.039825439453125	-0.0307220458984375	4039.33223880167
0.035400390625	-0.0308135986328125	4039.35436380161
0.030975341796875	-0.030908203125	4039.37648880155
0.02655029296875	-0.0310028076171875	4039.3986138015
0.022125244140625	-0.0310943603515625	4039.42073880144
0.0177001953125	-0.0311859130859375	4039.44286380139
0.013275146484375	-0.031280517578125	4039.46498880133
0.00885009765625	-0.0313751220703125	4039.48711380128
0.004425048828125	-0.0314697265625	4039.50923880122
0	-0.0315643310546875	4039.53136380116
0.004425048828125	-0.0305145263671875	4039.55348880111
0.00885009765625	-0.0295074462890625	4039.57561380105
0.013275146484375	-0.0285186767578125	4039.597738801
0.0177001953125	-0.0275604248046875	4039.61986380094
0.022125244140625	-0.026617431640625	4039.64198880088
0.02655029296875	-0.0257049560546875	4039.66411380083
0.030975341796875	-0.0248077392578125	4039.68623880077
0.035400390625	-0.0239227294921875	4039.70836380072
0.039825439453125	-0.0230621337890625	4039.73048880066
0.04425048828125	-0.022210693359375	4039.75261380061
0.048675537109375	-0.021380615234375	4039.77473880055
0.0531005859375	-0.020562744140625	4039.79686380049
0.057525634765625	-0.01976318359375	4039.81898880044
0.06195068359375	-0.0189727783203125	4039.84111380038
0.066375732421875	-0.018194580078125	4039.86323880033
0.07080078125	-0.017431640625	4039.88536380027
0.075225830078125	-0.0166839599609375	4039.90748880021
0.07965087890625	-0.015948486328125	4039.92961380016
0.084075927734375	-0.0152252197265625	4039.9517388001
0.0885009765625	-0.0145111083984375	4039.97386380005
0.092926025390625	-0.0138092041015625	4039.99598879999
0.09735107421875	-0.013116455078125	4040.01811379993
0.101776123046875	-0.01243896484375	4040.04023879988
0.106201171875	-0.0117645263671875	4040.06236379982
0.110626220703125	-0.0111053466796875	4040.08448879977
0.11505126953125	-0.0104583740234375	4040.10661379971
0.119476318359375	-0.0098236083984375	4040.12873879966
0.1239013671875	-0.00919189453125	4040.1508637996
0.128326416015625	-0.0085723876953125	4040.17298879954
0.13275146484375	-0.007958984375	4040.19511379949
0.137176513671875	-0.0073577880859375	4040.21723879943
0.1416015625	-0.0067657470703125	4040.23936379938
0.146026611328125	-0.0061798095703125	4040.26148879932
0.15045166015625	-0.00560302734375	4040.28361379926
0.154876708984375	-0.005035400390625	4040.30573879921
0.1593017578125	-0.00447906494140625	4040.32786379915
0.163726806640625	-0.00392791748046875	4040.3499887991
0.16815185546875	-0.003385009765625	4040.37211379904
0.172576904296875	-0.00284942626953125	4040.39423879899
0.177001953125	-0.0023223876953125	4040.41636379893
0.181427001953125	-0.001810302734375	4040.43848879887
0.18585205078125	-0.00129669189453125	4040.46061379882
0.190277099609375	-0.00079071044921875	4040.48273879876
0.1947021484375	-0.0002916259765625	4040.50486379871
0.199127197265625	0.000199493408203125	4040.52698879865
0.20355224609375	0.0006842041015625	4040.54911379859
0.207977294921875	0.0011614990234375	4040.57123879854
0.21240234375	0.00163330078125	4040.59336379848
0.216827392578125	0.0020977783203125	4040.61548879843
0.22125244140625	0.00255645751953125	4040.63761379837
0.225677490234375	0.00300750732421875	4040.65973879831
0.2301025390625	0.00345306396484375	4040.68186379826
0.234527587890625	0.0038897705078125	4040.7039887982
0.23895263671875	0.00432220458984375	4040.72611379815
0.243377685546875	0.0047467041015625	4040.74823879809
0.247802734375	0.00516754150390625	4040.77036379804
0.252227783203125	0.00558258056640625	4040.79248879798
0.25665283203125	0.00598968505859375	4040.81461379792
0.261077880859375	0.0063922119140625	4040.83673879787
0.2655029296875	0.0067779541015625	4040.85886379781
0.269927978515625	0.0071685791015625	4040.88098879776
0.27435302734375	0.0075531005859375	4040.9031137977
0.278778076171875	0.007928466796875	4040.92523879764
0.283203125	0.00830078125	4040.94736379759
0.287628173828125	0.0086669921875	4040.96948879753
0.29205322265625	0.0090301513671875	4040.99161379748
0.296478271484375	0.0093841552734375	4041.01373879742
0.3009033203125	0.0097381591796875	4041.03586379736
0.305328369140625	0.0100830078125	4041.05798879731
0.30975341796875	0.0104248046875	4041.08011379725
0.314178466796875	0.0107635498046875	4041.1022387972
0.318603515625	0.011090087890625	4041.12436379714
0.323028564453125	0.0114166259765625	4041.14648879709
0.32745361328125	0.011737060546875	4041.16861379703
0.331878662109375	0.0120513916015625	4041.19073879697
0.3363037109375	0.01236572265625	4041.21286379692
0.340728759765625	0.0126739501953125	4041.23498879686
0.34515380859375	0.0129791259765625	4041.25711379681
0.349578857421875	0.013275146484375	4041.27923879675
0.35400390625	0.0135650634765625	4041.3013637967
0.358428955078125	0.01385498046875	4041.32348879664
0.36285400390625	0.0141357421875	4041.34561379658
0.367279052734375	0.01441650390625	4041.36773879653
0.3717041015625	0.0146942138671875	4041.38986379647
0.376129150390625	0.0149658203125	4041.41198879642
0.38055419921875	0.0152313232421875	4041.43411379636
0.384979248046875	0.015496826171875	4041.4562387963
0.389404296875	0.015753173828125	4041.47836379625
0.393829345703125	0.0160064697265625	4041.50048879619
0.39825439453125	0.016259765625	4041.52261379614
0.402679443359375	0.0165069580078125	4041.54473879608
0.4071044921875	0.016748046875	4041.56686379602
0.411529541015625	0.0169891357421875	4041.58898879597
0.41595458984375	0.0172210693359375	4041.61111379591
0.420379638671875	0.017449951171875	4041.63323879586
0.4248046875	0.0176788330078125	4041.6553637958
0.429229736328125	0.017901611328125	4041.67748879575
0.43365478515625	0.0181243896484375	4041.69961379569
0.438079833984375	0.018341064453125	4041.72173879563
0.4425048828125	0.0185546875	4041.74386379558
0.446929931640625	0.0187652587890625	4041.76598879552
0.45135498046875	0.0189727783203125	4041.78811379547
0.455780029296875	0.01917724609375	4041.81023879541
0.460205078125	0.0193817138671875	4041.83236379535
0.464630126953125	0.019580078125	4041.8544887953
0.46905517578125	0.019775390625	4041.87661379524
0.473480224609375	0.019970703125	4041.89873879519
0.4779052734375	0.0201568603515625	4041.92086379513
0.482330322265625	0.020343017578125	4041.94298879508
0.48675537109375	0.0205230712890625	4041.96511379502
0.491180419921875	0.020703125	4041.98723879496
0.49560546875	0.0208770751953125	4042.00936379491
0.500030517578125	0.0210479736328125	4042.03148879485
0.50445556640625	0.0212127685546875	4042.0536137948
0.508880615234375	0.0213897705078125	4042.07573879474
0.5133056640625	0.0215606689453125	4042.09786379468
0.517730712890625	0.0217254638671875	4042.11998879463
0.52215576171875	0.0218780517578125	4042.14211379457
0.526580810546875	0.0220306396484375	4042.16423879452
0.531005859375	0.0221893310546875	4042.18636379446
0.535430908203125	0.022344970703125	4042.2084887944
0.53985595703125	0.022503662109375	4042.23061379435
0.544281005859375	0.022650146484375	4042.25273879429
0.5487060546875	0.02279052734375	4042.27486379424
0.553131103515625	0.0229339599609375	4042.29698879418
0.55755615234375	0.0230712890625	4042.31911379413
0.561981201171875	0.0232086181640625	4042.34123879407
0.56640625	0.0233428955078125	4042.36336379401
0.570831298828125	0.0234710693359375	4042.38548879396
0.57525634765625	0.0235992431640625	4042.4076137939
0.579681396484375	0.0237274169921875	4042.42973879385
0.5841064453125	0.0238525390625	4042.45186379379
0.588531494140625	0.0239715576171875	4042.47398879373
0.59295654296875	0.0240936279296875	4042.49611379368
0.597381591796875	0.024212646484375	4042.51823879362
0.601806640625	0.0243255615234375	4042.54036379357
0.606231689453125	0.0244415283203125	4042.56248879351
0.61065673828125	0.024554443359375	4042.58461379345
0.615081787109375	0.024664306640625	4042.6067387934
0.6195068359375	0.024774169921875	4042.62886379334
0.623931884765625	0.0248779296875	4042.65098879329
0.62835693359375	0.0249847412109375	4042.67311379323
0.632781982421875	0.0250823974609375	4042.69523879318
0.63720703125	0.02518310546875	4042.71736379312
0.641632080078125	0.02528076171875	4042.73948879306
0.64605712890625	0.0253753662109375	4042.76161379301
0.650482177734375	0.025469970703125	4042.78373879295
0.6549072265625	0.0255584716796875	4042.8058637929
0.659332275390625	0.02564697265625	4042.82798879284
0.66375732421875	0.0257354736328125	4042.85011379278
0.668182373046875	0.0258209228515625	4042.87223879273
0.672607421875	0.0259063720703125	4042.89436379267
0.677032470703125	0.0259857177734375	4042.91648879262
0.68145751953125	0.0260650634765625	4042.93861379256
0.685882568359375	0.0261444091796875	4042.96073879251
0.6903076171875	0.026220703125	4042.98286379245
0.694732666015625	0.0262939453125	4043.00498879239
0.69915771484375	0.0263671875	4043.02711379234
0.703582763671875	0.0264373779296875	4043.04923879228
0.7080078125	0.026507568359375	4043.07136379223
0.712432861328125	0.0265716552734375	4043.09348879217
0.71685791015625	0.0266387939453125	4043.11561379211
0.721282958984375	0.026702880859375	4043.13773879206
0.7257080078125	0.0267669677734375	4043.159863792
0.730133056640625	0.0268310546875	4043.18198879195
0.73455810546875	0.02689208984375	4043.20411379189
0.738983154296875	0.026953125	4043.22623879183
0.743408203125	0.027008056640625	4043.24836379178
0.747833251953125	0.0270660400390625	4043.27048879172
0.75225830078125	0.027117919921875	4043.29261379167
0.756683349609375	0.0271759033203125	4043.31473879161
0.7611083984375	0.027227783203125	4043.33686379156
0.765533447265625	0.0272796630859375	4043.3589887915
0.76995849609375	0.02733154296875	4043.38111379144
0.774383544921875	0.0273834228515625	4043.40323879139
0.77880859375	0.0274322509765625	4043.42536379133
0.783233642578125	0.02747802734375	4043.44748879128
0.78765869140625	0.02752685546875	4043.46961379122
0.792083740234375	0.0275726318359375	4043.49173879116
0.7965087890625	0.027618408203125	4043.51386379111
0.800933837890625	0.0276641845703125	4043.53598879105
0.80535888671875	0.0277069091796875	4043.558113791
0.809783935546875	0.027752685546875	4043.58023879094
0.814208984375	0.0277984619140625	4043.60236379089
0.818634033203125	0.027838134765625	4043.62448879083
0.82305908203125	0.027880859375	4043.64661379077
0.827484130859375	0.027923583984375	4043.66873879072
0.8319091796875	0.0279632568359375	4043.69086379066
0.836334228515625	0.0280029296875	4043.71298879061
0.84075927734375	0.0280426025390625	4043.73511379055
0.845184326171875	0.0280853271484375	4043.75723879049
0.849609375	0.0281219482421875	4043.77936379044
0.854034423828125	0.02816162109375	4043.80148879038
0.85845947265625	0.028204345703125	4043.82361379033
0.862884521484375	0.028240966796875	4043.84573879027
0.8673095703125	0.0282806396484375	4043.86786379021
0.871734619140625	0.0283203125	4043.88998879016
0.87615966796875	0.0283599853515625	4043.9121137901
0.880584716796875	0.0284027099609375	4043.93423879005
0.885009765625	0.0284423828125	4043.95636378999
0.889434814453125	0.028485107421875	4043.97848878994
0.89385986328125	0.02852783203125	4044.00061378988
0.898284912109375	0.0285675048828125	4044.02273878982
0.9027099609375	0.0286102294921875	4044.04486378977
0.907135009765625	0.0286529541015625	4044.06698878971
0.91156005859375	0.02869873046875	4044.08911378966
0.915985107421875	0.028741455078125	4044.1112387896
0.92041015625	0.0287872314453125	4044.13336378955
0.924835205078125	0.0288330078125	4044.15548878949
0.92926025390625	0.0288818359375	4044.17761378943
0.933685302734375	0.0289276123046875	4044.19973878938
0.9381103515625	0.0289794921875	4044.22186378932
0.942535400390625	0.0290283203125	4044.24398878927
0.94696044921875	0.029083251953125	4044.26611378921
0.951385498046875	0.029132080078125	4044.28823878915
0.955810546875	0.02918701171875	4044.3103637891
0.960235595703125	0.029241943359375	4044.33248878904
0.96466064453125	0.029296875	4044.35461378899
0.969085693359375	0.0293548583984375	4044.37673878893
0.9735107421875	0.029412841796875	4044.39886378887
0.977935791015625	0.029473876953125	4044.42098878882
0.98236083984375	0.029534912109375	4044.44311378876
0.986785888671875	0.02960205078125	4044.46523878871
0.9912109375	0.0296661376953125	4044.48736378865
0.995635986328125	0.0297332763671875	4044.5094887886
1.00006103515625	0.029803466796875	4044.53161378854
0.995635986328125	0.0287384033203125	4044.55373878848
0.9912109375	0.0277069091796875	4044.57586378843
0.986785888671875	0.026715087890625	4044.59798878837
0.98236083984375	0.025750732421875	4044.62011378832
0.977935791015625	0.0248077392578125	4044.64223878826
0.9735107421875	0.02388916015625	4044.6643637882
0.969085693359375	0.0229949951171875	4044.68648878815
0.96466064453125	0.0221160888671875	4044.70861378809
0.960235595703125	0.021258544921875	4044.73073878804
0.955810546875	0.020416259765625	4044.75286378798
0.951385498046875	0.019598388671875	4044.77498878792
0.94696044921875	0.018792724609375	4044.79711378787
0.942535400390625	0.01800537109375	4044.81923878781
0.9381103515625	0.017230224609375	4044.84136378776
0.933685302734375	0.0164703369140625	4044.8634887877
0.92926025390625	0.0157257080078125	4044.88561378765
0.924835205078125	0.014996337890625	4044.90773878759
0.92041015625	0.0142791748046875	4044.92986378753
0.915985107421875	0.0135772705078125	4044.95198878748
0.91156005859375	0.012884521484375	4044.97411378742
0.907135009765625	0.01220703125	4044.99623878737
0.9027099609375	0.0115386962890625	4045.01836378731
0.898284912109375	0.0108856201171875	4045.04048878725
0.89385986328125	0.01024169921875	4045.0626137872
0.889434814453125	0.00960693359375	4045.08473878714
0.885009765625	0.008984375	4045.10686378709
0.880584716796875	0.0083709716796875	4045.12898878703
0.87615966796875	0.0077728271484375	4045.15111378698
0.871734619140625	0.007177734375	4045.17323878692
0.8673095703125	0.0065948486328125	4045.19536378686
0.862884521484375	0.0060211181640625	4045.21748878681
0.85845947265625	0.0054595947265625	4045.23961378675
0.854034423828125	0.0049029541015625	4045.2617387867
0.849609375	0.0043572998046875	4045.28386378664
0.845184326171875	0.00381988525390625	4045.30598878658
0.84075927734375	0.003291015625	4045.32811378653
0.836334228515625	0.00277191162109375	4045.35023878647
0.8319091796875	0.00226165771484375	4045.37236378642
0.827484130859375	0.00175628662109375	4045.39448878636
0.82305908203125	0.00125946044921875	4045.4166137863
0.818634033203125	0.00077117919921875	4045.43873878625
0.814208984375	0.00028973388671875	4045.46086378619
0.809783935546875	-0.00018359375	4045.48298878614
0.80535888671875	-0.00064910888671875	4045.50511378608
0.800933837890625	-0.00110748291015625	4045.52723878603
0.7965087890625	-0.00155914306640625	4045.54936378597
0.792083740234375	-0.002003173828125	4045.57148878591
0.78765869140625	-0.00243927001953125	4045.59361378586
0.783233642578125	-0.00286956787109375	4045.6157387858
0.77880859375	-0.0032916259765625	4045.63786378575
0.774383544921875	-0.00370758056640625	4045.65998878569
0.76995849609375	-0.004117431640625	4045.68211378563
0.765533447265625	-0.00452056884765625	4045.70423878558
0.7611083984375	-0.00491729736328125	4045.72636378552
0.756683349609375	-0.00530670166015625	4045.74848878547
0.75225830078125	-0.00569000244140625	4045.77061378541
0.747833251953125	-0.00606719970703125	4045.79273878536
0.743408203125	-0.0064117431640625	4045.8148637853
0.738983154296875	-0.00677490234375	4045.83698878524
0.73455810546875	-0.0071319580078125	4045.85911378519
0.730133056640625	-0.0074859619140625	4045.88123878513
0.7257080078125	-0.0078277587890625	4045.90336378508
0.721282958984375	-0.0081695556640625	4045.92548878502
0.71685791015625	-0.0085052490234375	4045.94761378496
0.712432861328125	-0.008831787109375	4045.96973878491
0.7080078125	-0.0091583251953125	4045.99186378485
0.703582763671875	-0.00947265625	4046.0139887848
0.69915771484375	-0.009783935546875	4046.03611378474
0.694732666015625	-0.0100921630859375	4046.05823878468
0.6903076171875	-0.0103912353515625	4046.08036378463
0.685882568359375	-0.0106903076171875	4046.10248878457
0.68145751953125	-0.0109771728515625	4046.12461378452
0.677032470703125	-0.0112640380859375	4046.14673878446
0.672607421875	-0.0115478515625	4046.16886378441
0.668182373046875	-0.011822509765625	4046.19098878435
0.66375732421875	-0.01209716796875	4046.21311378429
0.659332275390625	-0.01236572265625	4046.23523878424
0.6549072265625	-0.0126251220703125	4046.25736378418
0.650482177734375	-0.012884521484375	4046.27948878413
0.64605712890625	-0.0131378173828125	4046.30161378407
0.641632080078125	-0.013385009765625	4046.32373878401
0.63720703125	-0.0136322021484375	4046.34586378396
0.632781982421875	-0.013873291015625	4046.3679887839
0.62835693359375	-0.014105224609375	4046.39011378385
0.623931884765625	-0.0143402099609375	4046.41223878379
0.6195068359375	-0.014569091796875	4046.43436378374
0.615081787109375	-0.014794921875	4046.45648878368
0.61065673828125	-0.0150177001953125	4046.47861378362
0.606231689453125	-0.0152374267578125	4046.50073878357
0.601806640625	-0.0154541015625	4046.52286378351
0.597381591796875	-0.01566162109375	4046.54498878346
0.59295654296875	-0.015869140625	4046.5671137834
0.588531494140625	-0.0160736083984375	4046.58923878334
0.5841064453125	-0.01627197265625	4046.61136378329
0.579681396484375	-0.01646728515625	4046.63348878323
0.57525634765625	-0.0166534423828125	4046.65561378318
0.570831298828125	-0.016839599609375	4046.67773878312
0.56640625	-0.01702880859375	4046.69986378306
0.561981201171875	-0.0172149658203125	4046.72198878301
0.55755615234375	-0.0174072265625	4046.74411378295
0.553131103515625	-0.017584228515625	4046.7662387829
0.5487060546875	-0.01776123046875	4046.78836378284
0.544281005859375	-0.01793212890625	4046.81048878279
0.53985595703125	-0.0181060791015625	4046.83261378273
0.535430908203125	-0.0182769775390625	4046.85473878267
0.531005859375	-0.0184417724609375	4046.87686378262
0.526580810546875	-0.018603515625	4046.89898878256
0.52215576171875	-0.018768310546875	4046.92111378251
0.517730712890625	-0.018927001953125	4046.94323878245
0.5133056640625	-0.019085693359375	4046.96536378239
0.508880615234375	-0.0192413330078125	4046.98748878234
0.50445556640625	-0.01939697265625	4047.00961378228
0.500030517578125	-0.019549560546875	4047.03173878223
0.49560546875	-0.019696044921875	4047.05386378217
0.491180419921875	-0.0198455810546875	4047.07598878212
0.48675537109375	-0.0199920654296875	4047.09811378206
0.482330322265625	-0.020135498046875	4047.120238782
0.4779052734375	-0.02027587890625	4047.14236378195
0.473480224609375	-0.0204132080078125	4047.16448878189
0.46905517578125	-0.020550537109375	4047.18661378184
0.464630126953125	-0.0206878662109375	4047.20873878178
0.460205078125	-0.0208221435546875	4047.23086378172
0.455780029296875	-0.0209564208984375	4047.25298878167
0.45135498046875	-0.021087646484375	4047.27511378161
0.446929931640625	-0.0212188720703125	4047.29723878156
0.4425048828125	-0.0213470458984375	4047.3193637815
0.438079833984375	-0.0214752197265625	4047.34148878145
0.43365478515625	-0.021600341796875	4047.36361378139
0.429229736328125	-0.021728515625	4047.38573878133
0.4248046875	-0.0218505859375	4047.40786378128
0.420379638671875	-0.02197265625	4047.42998878122
0.41595458984375	-0.0220947265625	4047.45211378117
0.411529541015625	-0.0222137451171875	4047.47423878111
0.4071044921875	-0.0223358154296875	4047.49636378105
0.402679443359375	-0.0224517822265625	4047.518488781
0.39825439453125	-0.02257080078125	4047.54061378094
0.393829345703125	-0.0226837158203125	4047.56273878089
0.389404296875	-0.0227996826171875	4047.58486378083
0.384979248046875	-0.0229156494140625	4047.60698878077
0.38055419921875	-0.0230316162109375	4047.62911378072
0.376129150390625	-0.02314453125	4047.65123878066
0.3717041015625	-0.0232574462890625	4047.67336378061
0.367279052734375	-0.0233673095703125	4047.69548878055
0.36285400390625	-0.02347412109375	4047.7176137805
0.358428955078125	-0.023583984375	4047.73973878044
0.35400390625	-0.02369384765625	4047.76186378038
0.349578857421875	-0.0238037109375	4047.78398878033
0.34515380859375	-0.0239105224609375	4047.80611378027
0.340728759765625	-0.0240203857421875	4047.82823878022
0.3363037109375	-0.024127197265625	4047.85036378016
0.331878662109375	-0.0242340087890625	4047.8724887801
0.32745361328125	-0.0243408203125	4047.89461378005
0.323028564453125	-0.024444580078125	4047.91673877999
0.318603515625	-0.0245513916015625	4047.93886377994
0.314178466796875	-0.024658203125	4047.96098877988
0.30975341796875	-0.0247650146484375	4047.98311377983
0.305328369140625	-0.0248687744140625	4048.00523877977
0.3009033203125	-0.0249725341796875	4048.02736377971
0.296478271484375	-0.0250732421875	4048.04948877966
0.29205322265625	-0.0251739501953125	4048.0716137796
0.287628173828125	-0.0252777099609375	4048.09373877955
0.283203125	-0.02537841796875	4048.11586377949
0.278778076171875	-0.025482177734375	4048.13798877943
0.27435302734375	-0.0255828857421875	4048.16011377938
0.269927978515625	-0.0256866455078125	4048.18223877932
0.2655029296875	-0.0257843017578125	4048.20436377927
0.261077880859375	-0.0258880615234375	4048.22648877921
0.25665283203125	-0.0259857177734375	4048.24861377915
0.252227783203125	-0.02608642578125	4048.2707387791
0.247802734375	-0.0261871337890625	4048.29286377904
0.243377685546875	-0.026287841796875	4048.31498877899
0.23895263671875	-0.0263885498046875	4048.33711377893
0.234527587890625	-0.0264892578125	4048.35923877888
0.2301025390625	-0.0265838623046875	4048.38136377882
0.225677490234375	-0.0266815185546875	4048.40348877876
0.22125244140625	-0.0267791748046875	4048.42561377871
0.216827392578125	-0.0268798828125	4048.44773877865
0.21240234375	-0.0269775390625	4048.4698637786
0.207977294921875	-0.0270751953125	4048.49198877854
0.20355224609375	-0.0271728515625	4048.51411377848
0.199127197265625	-0.0272705078125	4048.53623877843
0.1947021484375	-0.0273681640625	4048.55836377837
0.190277099609375	-0.0274627685546875	4048.58048877832
0.18585205078125	-0.0275604248046875	4048.60261377826
0.181427001953125	-0.0276611328125	4048.62473877821
0.177001953125	-0.0277587890625	4048.64686377815
0.172576904296875	-0.0278564453125	4048.66898877809
0.16815185546875	-0.0279510498046875	4048.69111377804
0.163726806640625	-0.0280487060546875	4048.71323877798
0.1593017578125	-0.028143310546875	4048.73536377793
0.154876708984375	-0.02823486328125	4048.75748877787
0.15045166015625	-0.02833251953125	4048.77961377781
0.146026611328125	-0.02843017578125	4048.80173877776
0.1416015625	-0.0285247802734375	4048.8238637777
0.137176513671875	-0.0286224365234375	4048.84598877765
0.13275146484375	-0.028717041015625	4048.86811377759
0.128326416015625	-0.0288116455078125	4048.89023877753
0.1239013671875	-0.0289093017578125	4048.91236377748
0.119476318359375	-0.0290008544921875	4048.93448877742
0.11505126953125	-0.029095458984375	4048.95661377737
0.110626220703125	-0.0291900634765625	4048.97873877731
0.106201171875	-0.02928466796875	4049.00086377726
0.101776123046875	-0.02938232421875	4049.0229887772
0.09735107421875	-0.029473876953125	4049.04511377714
0.092926025390625	-0.0295684814453125	4049.06723877709
0.0885009765625	-0.0296661376953125	4049.08936377703
0.084075927734375	-0.0297576904296875	4049.11148877698
0.07965087890625	-0.0298492431640625	4049.13361377692
0.075225830078125	-0.02994384765625	4049.15573877686
0.07080078125	-0.030035400390625	4049.17786377681
0.066375732421875	-0.0301300048828125	4049.19998877675
0.06195068359375	-0.030224609375	4049.2221137767
0.057525634765625	-0.0303192138671875	4049.24423877664
0.0531005859375	-0.030413818359375	4049.26636377659
0.048675537109375	-0.03050537109375	4049.28848877653
0.04425048828125	-0.030596923828125	4049.31061377647
0.039825439453125	-0.0306915283203125	4049.33273877642
0.035400390625	-0.0307830810546875	4049.35486377636
0.030975341796875	-0.030877685546875	4049.37698877631
0.02655029296875	-0.03096923828125	4049.39911377625
0.022125244140625	-0.0310638427734375	4049.42123877619
0.0177001953125	-0.0311553955078125	4049.44336377614
0.013275146484375	-0.03125	4049.46548877608
0.00885009765625	-0.031341552734375	4049.48761377603
0.004425048828125	-0.0314361572265625	4049.50973877597
0	-0.03153076171875	4049.53186377591
0.004425048828125	-0.0304840087890625	4049.55398877586
0.00885009765625	-0.029473876953125	4049.5761137758
0.013275146484375	-0.0284881591796875	4049.59823877575
