Potential applied (V)	WE(1).Current (A)	Time (s)
0.004425048828125	-0.0027783203125	3943.76682504295
0.00885009765625	-0.00218353271484375	3943.77567504292
0.013275146484375	-0.0016015625	3943.7845250429
0.0177001953125	-0.00102569580078125	3943.79337504288
0.022125244140625	-0.00045806884765625	3943.80222504286
0.02655029296875	0.00010406494140625	3943.81107504283
0.030975341796875	0.00066009521484375	3943.81992504281
0.035400390625	0.00121063232421875	3943.82877504279
0.039825439453125	0.0017559814453125	3943.83762504277
0.04425048828125	0.00229949951171875	3943.84647504274
0.048675537109375	0.0028369140625	3943.85532504272
0.0531005859375	0.00337188720703125	3943.8641750427
0.057525634765625	0.003902587890625	3943.87302504268
0.06195068359375	0.00442901611328125	3943.88187504266
0.066375732421875	0.004951171875	3943.89072504263
0.07080078125	0.0054705810546875	3943.89957504261
0.075225830078125	0.00598602294921875	3943.90842504259
0.07965087890625	0.00649566650390625	3943.91727504257
0.084075927734375	0.0069915771484375	3943.92612504254
0.0885009765625	0.0074981689453125	3943.93497504252
0.092926025390625	0.00799560546875	3943.9438250425
0.09735107421875	0.00849609375	3943.95267504248
0.101776123046875	0.008990478515625	3943.96152504245
0.106201171875	0.009478759765625	3943.97037504243
0.110626220703125	0.0099639892578125	3943.97922504241
0.11505126953125	0.0104461669921875	3943.98807504239
0.119476318359375	0.0109283447265625	3943.99692504237
0.1239013671875	0.011407470703125	3944.00577504234
0.128326416015625	0.0118804931640625	3944.01462504232
0.13275146484375	0.0123565673828125	3944.0234750423
0.137176513671875	0.0128265380859375	3944.03232504228
0.1416015625	0.01329345703125	3944.04117504225
0.146026611328125	0.0137603759765625	3944.05002504223
0.15045166015625	0.014215087890625	3944.05887504221
0.154876708984375	0.0146759033203125	3944.06772504219
0.1593017578125	0.0151275634765625	3944.07657504216
0.163726806640625	0.015582275390625	3944.08542504214
0.16815185546875	0.0160308837890625	3944.09427504212
0.172576904296875	0.0164764404296875	3944.1031250421
0.177001953125	0.0169219970703125	3944.11197504207
0.181427001953125	0.0173583984375	3944.12082504205
0.18585205078125	0.0177978515625	3944.12967504203
0.190277099609375	0.0182342529296875	3944.13852504201
0.1947021484375	0.0186676025390625	3944.14737504199
0.199127197265625	0.0190948486328125	3944.15622504196
0.20355224609375	0.0195220947265625	3944.16507504194
0.207977294921875	0.0199462890625	3944.17392504192
0.21240234375	0.0203643798828125	3944.1827750419
0.216827392578125	0.020782470703125	3944.19162504187
0.22125244140625	0.021197509765625	3944.20047504185
0.225677490234375	0.021612548828125	3944.20932504183
0.2301025390625	0.022021484375	3944.21817504181
0.234527587890625	0.022430419921875	3944.22702504178
0.23895263671875	0.02283935546875	3944.23587504176
0.243377685546875	0.0232421875	3944.24472504174
0.247802734375	0.0236419677734375	3944.25357504172
0.252227783203125	0.0240447998046875	3944.26242504169
0.25665283203125	0.0244415283203125	3944.27127504167
0.261077880859375	0.0248382568359375	3944.28012504165
0.2655029296875	0.0252288818359375	3944.28897504163
0.269927978515625	0.0256195068359375	3944.29782504161
0.27435302734375	0.0260101318359375	3944.30667504158
0.278778076171875	0.0263946533203125	3944.31552504156
0.283203125	0.0267730712890625	3944.32437504154
0.287628173828125	0.0271575927734375	3944.33322504152
0.29205322265625	0.027532958984375	3944.34207504149
0.296478271484375	0.0279083251953125	3944.35092504147
0.3009033203125	0.0282806396484375	3944.35977504145
0.305328369140625	0.0286529541015625	3944.36862504143
0.30975341796875	0.0290191650390625	3944.3774750414
0.314178466796875	0.0293914794921875	3944.38632504138
0.318603515625	0.02974853515625	3944.39517504136
0.323028564453125	0.0301116943359375	3944.40402504134
0.32745361328125	0.0304718017578125	3944.41287504131
0.331878662109375	0.030828857421875	3944.42172504129
0.3363037109375	0.03118896484375	3944.43057504127
0.340728759765625	0.031549072265625	3944.43942504125
0.34515380859375	0.0319061279296875	3944.44827504123
0.349578857421875	0.032257080078125	3944.4571250412
0.35400390625	0.0325958251953125	3944.46597504118
0.358428955078125	0.0329345703125	3944.47482504116
0.36285400390625	0.033270263671875	3944.48367504114
0.367279052734375	0.03360595703125	3944.49252504111
0.3717041015625	0.033941650390625	3944.50137504109
0.376129150390625	0.0342803955078125	3944.51022504107
0.38055419921875	0.0346160888671875	3944.51907504105
0.384979248046875	0.03494873046875	3944.52792504102
0.389404296875	0.0352783203125	3944.536775041
0.393829345703125	0.0356048583984375	3944.54562504098
0.39825439453125	0.0359283447265625	3944.55447504096
0.402679443359375	0.03624267578125	3944.56332504094
0.4071044921875	0.036566162109375	3944.57217504091
0.411529541015625	0.0368804931640625	3944.58102504089
0.41595458984375	0.0371978759765625	3944.58987504087
0.420379638671875	0.037506103515625	3944.59872504085
0.4248046875	0.0378143310546875	3944.60757504082
0.429229736328125	0.03812255859375	3944.6164250408
0.43365478515625	0.0384246826171875	3944.62527504078
0.438079833984375	0.0387298583984375	3944.63412504076
0.4425048828125	0.0390289306640625	3944.64297504073
0.446929931640625	0.0393218994140625	3944.65182504071
0.45135498046875	0.039617919921875	3944.66067504069
0.455780029296875	0.039910888671875	3944.66952504067
0.460205078125	0.0402099609375	3944.67837504064
0.464630126953125	0.0405120849609375	3944.68722504062
0.46905517578125	0.04080810546875	3944.6960750406
0.473480224609375	0.0410980224609375	3944.70492504058
0.4779052734375	0.0413818359375	3944.71377504055
0.482330322265625	0.041656494140625	3944.72262504053
0.48675537109375	0.04193115234375	3944.73147504051
0.491180419921875	0.0422027587890625	3944.74032504049
0.49560546875	0.0424835205078125	3944.74917504047
0.500030517578125	0.0427642822265625	3944.75802504044
0.50445556640625	0.0430450439453125	3944.76687504042
0.508880615234375	0.043328857421875	3944.7757250404
0.5133056640625	0.0436065673828125	3944.78457504038
0.517730712890625	0.043878173828125	3944.79342504035
0.52215576171875	0.044140625	3944.80227504033
0.526580810546875	0.0444061279296875	3944.81112504031
0.531005859375	0.0446685791015625	3944.81997504029
0.535430908203125	0.044927978515625	3944.82882504026
0.53985595703125	0.045184326171875	3944.83767504024
0.544281005859375	0.0454376220703125	3944.84652504022
0.5487060546875	0.04569091796875	3944.8553750402
0.553131103515625	0.045947265625	3944.86422504018
0.55755615234375	0.0461944580078125	3944.87307504015
0.561981201171875	0.046441650390625	3944.88192504013
0.56640625	0.04669189453125	3944.89077504011
0.570831298828125	0.04693603515625	3944.89962504009
0.57525634765625	0.04718017578125	3944.90847504006
0.579681396484375	0.04742431640625	3944.91732504004
0.5841064453125	0.0476654052734375	3944.92617504002
0.588531494140625	0.0479034423828125	3944.93502504
0.59295654296875	0.0481414794921875	3944.94387503997
0.597381591796875	0.04837646484375	3944.95272503995
0.601806640625	0.0486083984375	3944.96157503993
0.606231689453125	0.0488433837890625	3944.97042503991
0.61065673828125	0.0490753173828125	3944.97927503988
0.615081787109375	0.0493072509765625	3944.98812503986
0.6195068359375	0.0495330810546875	3944.99697503984
0.623931884765625	0.049761962890625	3945.00582503982
0.62835693359375	0.0499908447265625	3945.0146750398
0.632781982421875	0.0502105712890625	3945.02352503977
0.63720703125	0.050433349609375	3945.03237503975
0.641632080078125	0.0506561279296875	3945.04122503973
0.64605712890625	0.0508697509765625	3945.05007503971
0.650482177734375	0.0510894775390625	3945.05892503968
0.6549072265625	0.051300048828125	3945.06777503966
0.659332275390625	0.051513671875	3945.07662503964
0.66375732421875	0.0517242431640625	3945.08547503962
0.668182373046875	0.05194091796875	3945.09432503959
0.672607421875	0.0521484375	3945.10317503957
0.677032470703125	0.0523590087890625	3945.11202503955
0.68145751953125	0.052569580078125	3945.12087503953
0.685882568359375	0.0527740478515625	3945.12972503951
0.6903076171875	0.0529815673828125	3945.13857503948
0.694732666015625	0.0531829833984375	3945.14742503946
0.69915771484375	0.0533843994140625	3945.15627503944
0.703582763671875	0.053582763671875	3945.16512503942
0.7080078125	0.0537811279296875	3945.17397503939
0.712432861328125	0.0539794921875	3945.18282503937
0.71685791015625	0.0541778564453125	3945.19167503935
0.721282958984375	0.0543731689453125	3945.20052503933
0.7257080078125	0.0545654296875	3945.2093750393
0.730133056640625	0.0547576904296875	3945.21822503928
0.73455810546875	0.054949951171875	3945.22707503926
0.738983154296875	0.0551422119140625	3945.23592503924
0.743408203125	0.05533447265625	3945.24477503921
0.747833251953125	0.0555267333984375	3945.25362503919
0.75225830078125	0.055712890625	3945.26247503917
0.756683349609375	0.055902099609375	3945.27132503915
0.7611083984375	0.0560882568359375	3945.28017503912
0.765533447265625	0.0562713623046875	3945.2890250391
0.76995849609375	0.056451416015625	3945.29787503908
0.774383544921875	0.0566375732421875	3945.30672503906
0.77880859375	0.056817626953125	3945.31557503904
0.783233642578125	0.0570037841796875	3945.32442503901
0.78765869140625	0.057183837890625	3945.33327503899
0.792083740234375	0.057354736328125	3945.34212503897
0.7965087890625	0.0575347900390625	3945.35097503895
0.800933837890625	0.05771484375	3945.35982503892
0.80535888671875	0.057879638671875	3945.3686750389
0.809783935546875	0.058062744140625	3945.37752503888
0.814208984375	0.05823974609375	3945.38637503886
0.818634033203125	0.05841064453125	3945.39522503883
0.82305908203125	0.0585784912109375	3945.40407503881
0.827484130859375	0.0587493896484375	3945.41292503879
0.8319091796875	0.058917236328125	3945.42177503877
0.836334228515625	0.05908203125	3945.43062503875
0.84075927734375	0.0592559814453125	3945.43947503872
0.845184326171875	0.059417724609375	3945.4483250387
0.849609375	0.059588623046875	3945.45717503868
0.854034423828125	0.05975341796875	3945.46602503866
0.85845947265625	0.0599151611328125	3945.47487503863
0.862884521484375	0.0600738525390625	3945.48372503861
0.8673095703125	0.06024169921875	3945.49257503859
0.871734619140625	0.0603973388671875	3945.50142503857
0.87615966796875	0.0605621337890625	3945.51027503854
0.880584716796875	0.060723876953125	3945.51912503852
0.885009765625	0.060882568359375	3945.5279750385
0.889434814453125	0.0610321044921875	3945.53682503848
0.89385986328125	0.061187744140625	3945.54567503845
0.898284912109375	0.06134033203125	3945.55452503843
0.9027099609375	0.061505126953125	3945.56337503841
0.907135009765625	0.061651611328125	3945.57222503839
0.91156005859375	0.0618011474609375	3945.58107503837
0.915985107421875	0.06195068359375	3945.58992503834
0.92041015625	0.062103271484375	3945.59877503832
0.924835205078125	0.0622528076171875	3945.6076250383
0.92926025390625	0.06240234375	3945.61647503828
0.933685302734375	0.0625518798828125	3945.62532503825
0.9381103515625	0.0626922607421875	3945.63417503823
0.942535400390625	0.0628387451171875	3945.64302503821
0.94696044921875	0.0629913330078125	3945.65187503819
0.951385498046875	0.0631317138671875	3945.66072503816
0.955810546875	0.06328125	3945.66957503814
0.960235595703125	0.0634185791015625	3945.67842503812
0.96466064453125	0.0635589599609375	3945.6872750381
0.969085693359375	0.0636993408203125	3945.69612503808
0.9735107421875	0.0638397216796875	3945.70497503805
0.977935791015625	0.063970947265625	3945.71382503803
0.98236083984375	0.0641021728515625	3945.72267503801
0.986785888671875	0.064239501953125	3945.73152503799
0.9912109375	0.0643768310546875	3945.74037503796
0.995635986328125	0.0645111083984375	3945.74922503794
1.00006103515625	0.0646484375	3945.75807503792
0.995635986328125	0.0635955810546875	3945.7669250379
0.9912109375	0.0625640869140625	3945.77577503787
0.986785888671875	0.0615570068359375	3945.78462503785
0.98236083984375	0.0605560302734375	3945.79347503783
0.977935791015625	0.0595794677734375	3945.80232503781
0.9735107421875	0.0586151123046875	3945.81117503778
0.969085693359375	0.057659912109375	3945.82002503776
0.96466064453125	0.0567138671875	3945.82887503774
0.960235595703125	0.05577392578125	3945.83772503772
0.955810546875	0.0548431396484375	3945.84657503769
0.951385498046875	0.0539337158203125	3945.85542503767
0.94696044921875	0.0530303955078125	3945.86427503765
0.942535400390625	0.0521270751953125	3945.87312503763
0.9381103515625	0.051239013671875	3945.88197503761
0.933685302734375	0.0503509521484375	3945.89082503758
0.92926025390625	0.049481201171875	3945.89967503756
0.924835205078125	0.048614501953125	3945.90852503754
0.92041015625	0.0477569580078125	3945.91737503752
0.915985107421875	0.046905517578125	3945.92622503749
0.91156005859375	0.046063232421875	3945.93507503747
0.907135009765625	0.04522705078125	3945.94392503745
0.9027099609375	0.044403076171875	3945.95277503743
0.898284912109375	0.0435821533203125	3945.9616250374
0.89385986328125	0.042767333984375	3945.97047503738
0.889434814453125	0.0419586181640625	3945.97932503736
0.885009765625	0.041162109375	3945.98817503734
0.880584716796875	0.04036865234375	3945.99702503732
0.87615966796875	0.0395782470703125	3946.00587503729
0.871734619140625	0.038800048828125	3946.01472503727
0.8673095703125	0.0380218505859375	3946.02357503725
0.862884521484375	0.037255859375	3946.03242503723
0.85845947265625	0.036492919921875	3946.0412750372
0.854034423828125	0.0357391357421875	3946.05012503718
0.849609375	0.0349853515625	3946.05897503716
0.845184326171875	0.0342437744140625	3946.06782503714
0.84075927734375	0.0335052490234375	3946.07667503711
0.836334228515625	0.03277587890625	3946.08552503709
0.8319091796875	0.0320465087890625	3946.09437503707
0.827484130859375	0.0313232421875	3946.10322503705
0.82305908203125	0.030609130859375	3946.11207503702
0.818634033203125	0.02989501953125	3946.120925037
0.814208984375	0.029193115234375	3946.12977503698
0.809783935546875	0.0284912109375	3946.13862503696
0.80535888671875	0.0277984619140625	3946.14747503694
0.800933837890625	0.0271087646484375	3946.15632503691
0.7965087890625	0.02642822265625	3946.16517503689
0.792083740234375	0.0257476806640625	3946.17402503687
0.78765869140625	0.0250732421875	3946.18287503685
0.783233642578125	0.0244049072265625	3946.19172503682
0.77880859375	0.02374267578125	3946.2005750368
0.774383544921875	0.02308349609375	3946.20942503678
0.76995849609375	0.0224334716796875	3946.21827503676
0.765533447265625	0.021783447265625	3946.22712503673
0.7611083984375	0.021136474609375	3946.23597503671
0.756683349609375	0.0204986572265625	3946.24482503669
0.75225830078125	0.019866943359375	3946.25367503667
0.747833251953125	0.0192352294921875	3946.26252503665
0.743408203125	0.018609619140625	3946.27137503662
0.738983154296875	0.0179931640625	3946.2802250366
0.73455810546875	0.0173736572265625	3946.28907503658
0.730133056640625	0.0167633056640625	3946.29792503656
0.7257080078125	0.016156005859375	3946.30677503653
0.721282958984375	0.015557861328125	3946.31562503651
0.71685791015625	0.0149566650390625	3946.32447503649
0.712432861328125	0.014361572265625	3946.33332503647
0.7080078125	0.013775634765625	3946.34217503644
0.703582763671875	0.013189697265625	3946.35102503642
0.69915771484375	0.01260986328125	3946.3598750364
0.694732666015625	0.0120330810546875	3946.36872503638
0.6903076171875	0.0114593505859375	3946.37757503635
0.685882568359375	0.010894775390625	3946.38642503633
0.68145751953125	0.0103271484375	3946.39527503631
0.677032470703125	0.0097686767578125	3946.40412503629
0.672607421875	0.0092132568359375	3946.41297503626
0.668182373046875	0.0086578369140625	3946.42182503624
0.66375732421875	0.0081085205078125	3946.43067503622
0.659332275390625	0.007568359375	3946.4395250362
0.6549072265625	0.0070281982421875	3946.44837503618
0.650482177734375	0.006488037109375	3946.45722503615
0.64605712890625	0.00595703125	3946.46607503613
0.641632080078125	0.005426025390625	3946.47492503611
0.63720703125	0.004901123046875	3946.48377503609
0.632781982421875	0.0043792724609375	3946.49262503606
0.62835693359375	0.0038604736328125	3946.50147503604
0.623931884765625	0.003341064453125	3946.51032503602
0.6195068359375	0.0028302001953125	3946.519175036
0.615081787109375	0.0023248291015625	3946.52802503597
0.61065673828125	0.001820068359375	3946.53687503595
0.606231689453125	0.001318359375	3946.54572503593
0.601806640625	0.0008203125	3946.55457503591
0.597381591796875	0.000325592041015625	3946.56342503589
0.59295654296875	-0.0001650390625	3946.57227503586
0.588531494140625	-0.00065216064453125	3946.58112503584
0.5841064453125	-0.0011322021484375	3946.58997503582
0.579681396484375	-0.00161376953125	3946.5988250358
0.57525634765625	-0.0020916748046875	3946.60767503577
0.570831298828125	-0.0025653076171875	3946.61652503575
0.56640625	-0.003035888671875	3946.62537503573
0.561981201171875	-0.00350341796875	3946.63422503571
0.55755615234375	-0.0039678955078125	3946.64307503568
0.553131103515625	-0.0044293212890625	3946.65192503566
0.5487060546875	-0.00488800048828125	3946.66077503564
0.544281005859375	-0.0053411865234375	3946.66962503562
0.53985595703125	-0.00579315185546875	3946.67847503559
0.535430908203125	-0.00624176025390625	3946.68732503557
0.531005859375	-0.006658935546875	3946.69617503555
0.526580810546875	-0.0071014404296875	3946.70502503553
0.52215576171875	-0.0075408935546875	3946.71387503551
0.517730712890625	-0.0079742431640625	3946.72272503548
0.5133056640625	-0.0084075927734375	3946.73157503546
0.508880615234375	-0.008837890625	3946.74042503544
0.50445556640625	-0.00926513671875	3946.74927503542
0.500030517578125	-0.009686279296875	3946.75812503539
0.49560546875	-0.0101104736328125	3946.76697503537
0.491180419921875	-0.0105255126953125	3946.77582503535
0.48675537109375	-0.0109405517578125	3946.78467503533
0.482330322265625	-0.0113525390625	3946.7935250353
0.4779052734375	-0.011761474609375	3946.80237503528
0.473480224609375	-0.01217041015625	3946.81122503526
0.46905517578125	-0.0125732421875	3946.82007503524
0.464630126953125	-0.01297607421875	3946.82892503521
0.460205078125	-0.0133758544921875	3946.83777503519
0.455780029296875	-0.0137725830078125	3946.84662503517
0.45135498046875	-0.0141632080078125	3946.85547503515
0.446929931640625	-0.014556884765625	3946.86432503513
0.4425048828125	-0.0149444580078125	3946.8731750351
0.438079833984375	-0.01533203125	3946.88202503508
0.43365478515625	-0.0157135009765625	3946.89087503506
0.429229736328125	-0.016094970703125	3946.89972503504
0.4248046875	-0.016473388671875	3946.90857503501
0.420379638671875	-0.016851806640625	3946.91742503499
0.41595458984375	-0.01722412109375	3946.92627503497
0.411529541015625	-0.017596435546875	3946.93512503495
0.4071044921875	-0.0179656982421875	3946.94397503492
0.402679443359375	-0.0183349609375	3946.9528250349
0.39825439453125	-0.018701171875	3946.96167503488
0.393829345703125	-0.019061279296875	3946.97052503486
0.389404296875	-0.01942138671875	3946.97937503483
0.384979248046875	-0.0197784423828125	3946.98822503481
0.38055419921875	-0.0201385498046875	3946.99707503479
0.376129150390625	-0.0204864501953125	3947.00592503477
0.3717041015625	-0.0208404541015625	3947.01477503475
0.367279052734375	-0.0211883544921875	3947.02362503472
0.36285400390625	-0.021539306640625	3947.0324750347
0.358428955078125	-0.021881103515625	3947.04132503468
0.35400390625	-0.0222259521484375	3947.05017503466
0.349578857421875	-0.022564697265625	3947.05902503463
0.34515380859375	-0.0229034423828125	3947.06787503461
0.340728759765625	-0.0232421875	3947.07672503459
0.3363037109375	-0.02357177734375	3947.08557503457
0.331878662109375	-0.023907470703125	3947.09442503454
0.32745361328125	-0.0242401123046875	3947.10327503452
0.323028564453125	-0.0245697021484375	3947.1121250345
0.318603515625	-0.0248992919921875	3947.12097503448
0.314178466796875	-0.0252227783203125	3947.12982503446
0.30975341796875	-0.0255523681640625	3947.13867503443
0.305328369140625	-0.025872802734375	3947.14752503441
0.3009033203125	-0.0261962890625	3947.15637503439
0.296478271484375	-0.026513671875	3947.16522503437
0.29205322265625	-0.0268310546875	3947.17407503434
0.287628173828125	-0.0271484375	3947.18292503432
0.283203125	-0.0274627685546875	3947.1917750343
0.278778076171875	-0.027777099609375	3947.20062503428
0.27435302734375	-0.0280853271484375	3947.20947503425
0.269927978515625	-0.0283935546875	3947.21832503423
0.2655029296875	-0.02869873046875	3947.22717503421
0.261077880859375	-0.02900390625	3947.23602503419
0.25665283203125	-0.02930908203125	3947.24487503416
0.252227783203125	-0.0296051025390625	3947.25372503414
0.247802734375	-0.029901123046875	3947.26257503412
0.243377685546875	-0.0302001953125	3947.2714250341
0.23895263671875	-0.03050537109375	3947.28027503408
0.234527587890625	-0.0308013916015625	3947.28912503405
0.2301025390625	-0.031097412109375	3947.29797503403
0.225677490234375	-0.031390380859375	3947.30682503401
0.22125244140625	-0.031683349609375	3947.31567503399
0.216827392578125	-0.0319732666015625	3947.32452503396
0.21240234375	-0.03226318359375	3947.33337503394
0.207977294921875	-0.0325531005859375	3947.34222503392
0.20355224609375	-0.0328369140625	3947.3510750339
0.199127197265625	-0.0331268310546875	3947.35992503387
0.1947021484375	-0.0334075927734375	3947.36877503385
0.190277099609375	-0.03369140625	3947.37762503383
0.18585205078125	-0.03397216796875	3947.38647503381
0.181427001953125	-0.0342559814453125	3947.39532503378
0.177001953125	-0.0345306396484375	3947.40417503376
0.172576904296875	-0.03480224609375	3947.41302503374
0.16815185546875	-0.035076904296875	3947.42187503372
0.163726806640625	-0.0353424072265625	3947.4307250337
0.1593017578125	-0.0356109619140625	3947.43957503367
0.154876708984375	-0.035888671875	3947.44842503365
0.15045166015625	-0.036175537109375	3947.45727503363
0.146026611328125	-0.0364471435546875	3947.46612503361
0.1416015625	-0.03670654296875	3947.47497503358
0.137176513671875	-0.03697509765625	3947.48382503356
0.13275146484375	-0.037249755859375	3947.49267503354
0.128326416015625	-0.037518310546875	3947.50152503352
0.1239013671875	-0.0377899169921875	3947.51037503349
0.119476318359375	-0.0380584716796875	3947.51922503347
0.11505126953125	-0.03831787109375	3947.52807503345
0.110626220703125	-0.038580322265625	3947.53692503343
0.106201171875	-0.0388397216796875	3947.5457750334
0.101776123046875	-0.039093017578125	3947.55462503338
0.09735107421875	-0.0393524169921875	3947.56347503336
0.092926025390625	-0.03961181640625	3947.57232503334
0.0885009765625	-0.0398651123046875	3947.58117503332
0.084075927734375	-0.0401214599609375	3947.59002503329
0.07965087890625	-0.0403839111328125	3947.59887503327
0.075225830078125	-0.0406402587890625	3947.60772503325
0.07080078125	-0.0408935546875	3947.61657503323
0.066375732421875	-0.0411468505859375	3947.6254250332
0.06195068359375	-0.0414031982421875	3947.63427503318
0.057525634765625	-0.0416534423828125	3947.64312503316
0.0531005859375	-0.0419036865234375	3947.65197503314
0.048675537109375	-0.04215087890625	3947.66082503311
0.04425048828125	-0.0423919677734375	3947.66967503309
0.039825439453125	-0.0426422119140625	3947.67852503307
0.035400390625	-0.042889404296875	3947.68737503305
0.030975341796875	-0.0431304931640625	3947.69622503303
0.02655029296875	-0.0433746337890625	3947.705075033
0.022125244140625	-0.0436187744140625	3947.71392503298
0.0177001953125	-0.04385986328125	3947.72277503296
0.013275146484375	-0.044097900390625	3947.73162503294
0.00885009765625	-0.044342041015625	3947.74047503291
0.004425048828125	-0.044580078125	3947.74932503289
0	-0.0448211669921875	3947.75817503287
0.004425048828125	-0.04388427734375	3947.76702503285
0.00885009765625	-0.04296875	3947.77587503282
0.013275146484375	-0.04207763671875	3947.7847250328
0.0177001953125	-0.0411956787109375	3947.79357503278
0.022125244140625	-0.0403289794921875	3947.80242503276
0.02655029296875	-0.039471435546875	3947.81127503273
0.030975341796875	-0.038629150390625	3947.82012503271
0.035400390625	-0.0377899169921875	3947.82897503269
0.039825439453125	-0.0369659423828125	3947.83782503267
0.04425048828125	-0.036151123046875	3947.84667503265
0.048675537109375	-0.0353424072265625	3947.85552503262
0.0531005859375	-0.0345458984375	3947.8643750326
0.057525634765625	-0.0337554931640625	3947.87322503258
0.06195068359375	-0.0329742431640625	3947.88207503256
0.066375732421875	-0.0322021484375	3947.89092503253
0.07080078125	-0.0314361572265625	3947.89977503251
0.075225830078125	-0.0306732177734375	3947.90862503249
0.07965087890625	-0.02991943359375	3947.91747503247
0.084075927734375	-0.0291778564453125	3947.92632503244
0.0885009765625	-0.0284393310546875	3947.93517503242
0.092926025390625	-0.0277069091796875	3947.9440250324
0.09735107421875	-0.0269805908203125	3947.95287503238
0.101776123046875	-0.0262603759765625	3947.96172503235
0.106201171875	-0.0255462646484375	3947.97057503233
0.110626220703125	-0.02484130859375	3947.97942503231
0.11505126953125	-0.024139404296875	3947.98827503229
0.119476318359375	-0.023443603515625	3947.99712503227
0.1239013671875	-0.0227569580078125	3948.00597503224
0.128326416015625	-0.0220733642578125	3948.01482503222
0.13275146484375	-0.0213958740234375	3948.0236750322
0.137176513671875	-0.0207244873046875	3948.03252503218
0.1416015625	-0.02005615234375	3948.04137503215
0.146026611328125	-0.0193939208984375	3948.05022503213
0.15045166015625	-0.01873779296875	3948.05907503211
0.154876708984375	-0.018084716796875	3948.06792503209
0.1593017578125	-0.017437744140625	3948.07677503206
0.163726806640625	-0.016796875	3948.08562503204
0.16815185546875	-0.016162109375	3948.09447503202
0.172576904296875	-0.0155303955078125	3948.103325032
0.177001953125	-0.0149017333984375	3948.11217503197
0.181427001953125	-0.014276123046875	3948.12102503195
0.18585205078125	-0.013665771484375	3948.12987503193
0.190277099609375	-0.01304931640625	3948.13872503191
0.1947021484375	-0.0124420166015625	3948.14757503189
0.199127197265625	-0.0118377685546875	3948.15642503186
0.20355224609375	-0.011236572265625	3948.16527503184
0.207977294921875	-0.01064453125	3948.17412503182
0.21240234375	-0.010052490234375	3948.1829750318
0.216827392578125	-0.0094635009765625	3948.19182503177
0.22125244140625	-0.0088836669921875	3948.20067503175
0.225677490234375	-0.0083038330078125	3948.20952503173
0.2301025390625	-0.007733154296875	3948.21837503171
0.234527587890625	-0.0071624755859375	3948.22722503168
0.23895263671875	-0.0065948486328125	3948.23607503166
0.243377685546875	-0.006036376953125	3948.24492503164
0.247802734375	-0.005474853515625	3948.25377503162
0.252227783203125	-0.004923095703125	3948.2626250316
0.25665283203125	-0.0043731689453125	3948.27147503157
0.261077880859375	-0.00382720947265625	3948.28032503155
0.2655029296875	-0.00328460693359375	3948.28917503153
0.269927978515625	-0.0027459716796875	3948.29802503151
0.27435302734375	-0.0022210693359375	3948.30687503148
0.278778076171875	-0.001688232421875	3948.31572503146
0.283203125	-0.00115966796875	3948.32457503144
0.287628173828125	-0.0006341552734375	3948.33342503142
0.29205322265625	-0.000112060546875	3948.34227503139
0.296478271484375	0.000404937744140625	3948.35112503137
0.3009033203125	0.000919189453125	3948.35997503135
0.305328369140625	0.0014300537109375	3948.36882503133
0.30975341796875	0.0019384765625	3948.3776750313
0.314178466796875	0.00244598388671875	3948.38652503128
0.318603515625	0.0029473876953125	3948.39537503126
0.323028564453125	0.0034454345703125	3948.40422503124
0.32745361328125	0.003939208984375	3948.41307503122
0.331878662109375	0.00443145751953125	3948.42192503119
0.3363037109375	0.0049188232421875	3948.43077503117
0.340728759765625	0.0054034423828125	3948.43962503115
0.34515380859375	0.0058843994140625	3948.44847503113
0.349578857421875	0.00636199951171875	3948.4573250311
0.35400390625	0.006817626953125	3948.46617503108
0.358428955078125	0.0072906494140625	3948.47502503106
0.36285400390625	0.0077606201171875	3948.48387503104
0.367279052734375	0.0082244873046875	3948.49272503101
0.3717041015625	0.008685302734375	3948.50157503099
0.376129150390625	0.00914306640625	3948.51042503097
0.38055419921875	0.0095977783203125	3948.51927503095
0.384979248046875	0.010052490234375	3948.52812503092
0.389404296875	0.0105010986328125	3948.5369750309
0.393829345703125	0.010943603515625	3948.54582503088
0.39825439453125	0.01138916015625	3948.55467503086
0.402679443359375	0.01182861328125	3948.56352503084
0.4071044921875	0.01226806640625	3948.57237503081
0.411529541015625	0.0126983642578125	3948.58122503079
0.41595458984375	0.0131317138671875	3948.59007503077
0.420379638671875	0.01356201171875	3948.59892503075
0.4248046875	0.0139892578125	3948.60777503072
0.429229736328125	0.0144073486328125	3948.6166250307
0.43365478515625	0.0148284912109375	3948.62547503068
0.438079833984375	0.01524658203125	3948.63432503066
0.4425048828125	0.0156585693359375	3948.64317503063
0.446929931640625	0.0160736083984375	3948.65202503061
0.45135498046875	0.0164825439453125	3948.66087503059
0.455780029296875	0.016888427734375	3948.66972503057
0.460205078125	0.0172882080078125	3948.67857503054
0.464630126953125	0.0176910400390625	3948.68742503052
0.46905517578125	0.0180877685546875	3948.6962750305
0.473480224609375	0.0184844970703125	3948.70512503048
0.4779052734375	0.0188751220703125	3948.71397503046
0.482330322265625	0.019268798828125	3948.72282503043
0.48675537109375	0.0196533203125	3948.73167503041
0.491180419921875	0.0200408935546875	3948.74052503039
0.49560546875	0.02042236328125	3948.74937503037
0.500030517578125	0.02080078125	3948.75822503034
0.50445556640625	0.02117919921875	3948.76707503032
0.508880615234375	0.0215576171875	3948.7759250303
0.5133056640625	0.0219268798828125	3948.78477503028
0.517730712890625	0.0222991943359375	3948.79362503025
0.52215576171875	0.0226654052734375	3948.80247503023
0.526580810546875	0.02303466796875	3948.81132503021
0.531005859375	0.0234039306640625	3948.82017503019
0.535430908203125	0.0237640380859375	3948.82902503017
0.53985595703125	0.02412109375	3948.83787503014
0.544281005859375	0.0244781494140625	3948.84672503012
0.5487060546875	0.0248321533203125	3948.8555750301
0.553131103515625	0.0251800537109375	3948.86442503008
0.55755615234375	0.025531005859375	3948.87327503005
0.561981201171875	0.0258758544921875	3948.88212503003
0.56640625	0.0262176513671875	3948.89097503001
0.570831298828125	0.026556396484375	3948.89982502999
0.57525634765625	0.02689208984375	3948.90867502996
0.579681396484375	0.027227783203125	3948.91752502994
0.5841064453125	0.0275634765625	3948.92637502992
0.588531494140625	0.0278961181640625	3948.9352250299
0.59295654296875	0.0282257080078125	3948.94407502987
0.597381591796875	0.028564453125	3948.95292502985
0.601806640625	0.028900146484375	3948.96177502983
0.606231689453125	0.0292205810546875	3948.97062502981
0.61065673828125	0.029541015625	3948.97947502979
0.615081787109375	0.02984619140625	3948.98832502976
0.6195068359375	0.0301605224609375	3948.99717502974
0.623931884765625	0.030474853515625	3949.00602502972
0.62835693359375	0.030804443359375	3949.0148750297
0.632781982421875	0.031121826171875	3949.02372502967
0.63720703125	0.031439208984375	3949.03257502965
0.641632080078125	0.031756591796875	3949.04142502963
0.64605712890625	0.032061767578125	3949.05027502961
0.650482177734375	0.032366943359375	3949.05912502958
0.6549072265625	0.0326690673828125	3949.06797502956
0.659332275390625	0.032965087890625	3949.07682502954
0.66375732421875	0.03326416015625	3949.08567502952
0.668182373046875	0.03355712890625	3949.09452502949
0.672607421875	0.03385009765625	3949.10337502947
0.677032470703125	0.03414306640625	3949.11222502945
0.68145751953125	0.0344268798828125	3949.12107502943
0.685882568359375	0.034716796875	3949.12992502941
0.6903076171875	0.035003662109375	3949.13877502938
0.694732666015625	0.035284423828125	3949.14762502936
0.69915771484375	0.035565185546875	3949.15647502934
0.703582763671875	0.035845947265625	3949.16532502932
0.7080078125	0.0361175537109375	3949.17417502929
0.712432861328125	0.0363922119140625	3949.18302502927
0.71685791015625	0.0366668701171875	3949.19187502925
0.721282958984375	0.0369384765625	3949.20072502923
0.7257080078125	0.03720703125	3949.2095750292
0.730133056640625	0.0374755859375	3949.21842502918
0.73455810546875	0.0377410888671875	3949.22727502916
0.738983154296875	0.0380035400390625	3949.23612502914
0.743408203125	0.038262939453125	3949.24497502911
0.747833251953125	0.0385223388671875	3949.25382502909
0.75225830078125	0.03878173828125	3949.26267502907
0.756683349609375	0.0390350341796875	3949.27152502905
0.7611083984375	0.039288330078125	3949.28037502903
0.765533447265625	0.0395416259765625	3949.289225029
0.76995849609375	0.0397918701171875	3949.29807502898
0.774383544921875	0.0400390625	3949.30692502896
0.77880859375	0.0402862548828125	3949.31577502894
0.783233642578125	0.040533447265625	3949.32462502891
0.78765869140625	0.040771484375	3949.33347502889
0.792083740234375	0.041015625	3949.34232502887
0.7965087890625	0.0412567138671875	3949.35117502885
0.800933837890625	0.04149169921875	3949.36002502882
0.80535888671875	0.041729736328125	3949.3688750288
0.809783935546875	0.0419647216796875	3949.37772502878
0.814208984375	0.0421966552734375	3949.38657502876
0.818634033203125	0.042425537109375	3949.39542502874
0.82305908203125	0.0426544189453125	3949.40427502871
0.827484130859375	0.04288330078125	3949.41312502869
0.8319091796875	0.043109130859375	3949.42197502867
0.836334228515625	0.0433349609375	3949.43082502865
0.84075927734375	0.0435577392578125	3949.43967502862
0.845184326171875	0.0437774658203125	3949.4485250286
0.849609375	0.044000244140625	3949.45737502858
0.854034423828125	0.0442169189453125	3949.46622502856
0.85845947265625	0.0444305419921875	3949.47507502853
0.862884521484375	0.0446502685546875	3949.48392502851
0.8673095703125	0.04486083984375	3949.49277502849
0.871734619140625	0.0450714111328125	3949.50162502847
0.87615966796875	0.0452850341796875	3949.51047502844
0.880584716796875	0.04549560546875	3949.51932502842
0.885009765625	0.0457000732421875	3949.5281750284
0.889434814453125	0.045904541015625	3949.53702502838
0.89385986328125	0.0461151123046875	3949.54587502836
0.898284912109375	0.0463165283203125	3949.55472502833
0.9027099609375	0.0465179443359375	3949.56357502831
0.907135009765625	0.0467193603515625	3949.57242502829
0.91156005859375	0.0469207763671875	3949.58127502827
0.915985107421875	0.047119140625	3949.59012502824
0.92041015625	0.047314453125	3949.59897502822
0.924835205078125	0.0475128173828125	3949.6078250282
0.92926025390625	0.0477081298828125	3949.61667502818
0.933685302734375	0.0478973388671875	3949.62552502815
0.9381103515625	0.048095703125	3949.63437502813
0.942535400390625	0.0482879638671875	3949.64322502811
0.94696044921875	0.04847412109375	3949.65207502809
0.951385498046875	0.0486602783203125	3949.66092502806
0.955810546875	0.0488525390625	3949.66977502804
0.960235595703125	0.0490386962890625	3949.67862502802
0.96466064453125	0.049224853515625	3949.687475028
0.969085693359375	0.0494110107421875	3949.69632502798
0.9735107421875	0.04959716796875	3949.70517502795
0.977935791015625	0.0497833251953125	3949.71402502793
0.98236083984375	0.04996337890625	3949.72287502791
0.986785888671875	0.050146484375	3949.73172502789
0.9912109375	0.05032958984375	3949.74057502786
0.995635986328125	0.0505126953125	3949.74942502784
1.00006103515625	0.0506927490234375	3949.75827502782
0.995635986328125	0.0496978759765625	3949.7671250278
0.9912109375	0.048724365234375	3949.77597502777
0.986785888671875	0.0477752685546875	3949.78482502775
0.98236083984375	0.04683837890625	3949.79367502773
0.977935791015625	0.045916748046875	3949.80252502771
0.9735107421875	0.0450103759765625	3949.81137502768
0.969085693359375	0.044110107421875	3949.82022502766
0.96466064453125	0.0432220458984375	3949.82907502764
0.960235595703125	0.04234619140625	3949.83792502762
0.955810546875	0.041485595703125	3949.8467750276
0.951385498046875	0.0406280517578125	3949.85562502757
0.94696044921875	0.03978271484375	3949.86447502755
0.942535400390625	0.03895263671875	3949.87332502753
0.9381103515625	0.0381256103515625	3949.88217502751
0.933685302734375	0.0373016357421875	3949.89102502748
0.92926025390625	0.036492919921875	3949.89987502746
0.924835205078125	0.035693359375	3949.90872502744
0.92041015625	0.0349029541015625	3949.91757502742
0.915985107421875	0.03411865234375	3949.92642502739
0.91156005859375	0.0333404541015625	3949.93527502737
0.907135009765625	0.032574462890625	3949.94412502735
0.9027099609375	0.0318115234375	3949.95297502733
0.898284912109375	0.0310577392578125	3949.96182502731
0.89385986328125	0.0303070068359375	3949.97067502728
0.889434814453125	0.029571533203125	3949.97952502726
0.885009765625	0.0288360595703125	3949.98837502724
0.880584716796875	0.0281097412109375	3949.99722502722
0.87615966796875	0.027386474609375	3950.00607502719
0.871734619140625	0.02667236328125	3950.01492502717
0.8673095703125	0.02596435546875	3950.02377502715
0.862884521484375	0.025262451171875	3950.03262502713
0.85845947265625	0.0245697021484375	3950.0414750271
0.854034423828125	0.0238800048828125	3950.05032502708
0.849609375	0.023199462890625	3950.05917502706
0.845184326171875	0.02252197265625	3950.06802502704
0.84075927734375	0.0218505859375	3950.07687502701
0.836334228515625	0.0211822509765625	3950.08572502699
0.8319091796875	0.0205230712890625	3950.09457502697
0.827484130859375	0.0198699951171875	3950.10342502695
0.82305908203125	0.019219970703125	3950.11227502693
0.818634033203125	0.0185760498046875	3950.1211250269
0.814208984375	0.0179351806640625	3950.12997502688
0.809783935546875	0.0173004150390625	3950.13882502686
0.80535888671875	0.0166748046875	3950.14767502684
0.800933837890625	0.0160491943359375	3950.15652502681
0.7965087890625	0.0154327392578125	3950.16537502679
0.792083740234375	0.0148193359375	3950.17422502677
0.78765869140625	0.014208984375	3950.18307502675
0.783233642578125	0.0136077880859375	3950.19192502672
0.77880859375	0.013006591796875	3950.2007750267
0.774383544921875	0.01241455078125	3950.20962502668
0.76995849609375	0.011822509765625	3950.21847502666
0.765533447265625	0.011236572265625	3950.22732502663
0.7611083984375	0.0106597900390625	3950.23617502661
0.756683349609375	0.0100830078125	3950.24502502659
0.75225830078125	0.00950927734375	3950.25387502657
0.747833251953125	0.008941650390625	3950.26272502655
0.743408203125	0.008380126953125	3950.27157502652
0.738983154296875	0.0078216552734375	3950.2804250265
0.73455810546875	0.007269287109375	3950.28927502648
0.730133056640625	0.006719970703125	3950.29812502646
0.7257080078125	0.0061737060546875	3950.30697502643
0.721282958984375	0.0056304931640625	3950.31582502641
0.71685791015625	0.00509033203125	3950.32467502639
0.712432861328125	0.00455810546875	3950.33352502637
0.7080078125	0.0040277099609375	3950.34237502634
0.703582763671875	0.00350189208984375	3950.35122502632
0.69915771484375	0.002982177734375	3950.3600750263
0.694732666015625	0.00246337890625	3950.36892502628
0.6903076171875	0.00195037841796875	3950.37777502625
0.685882568359375	0.0014385986328125	3950.38662502623
0.68145751953125	0.00093017578125	3950.39547502621
0.677032470703125	0.00042578125	3950.40432502619
0.672607421875	-7.476806640625E-05	3950.41317502617
0.668182373046875	-0.0005712890625	3950.42202502614
0.66375732421875	-0.00106414794921875	3950.43087502612
0.659332275390625	-0.001552734375	3950.4397250261
0.6549072265625	-0.00203857421875	3950.44857502608
0.650482177734375	-0.002520751953125	3950.45742502605
0.64605712890625	-0.00299957275390625	3950.46627502603
0.641632080078125	-0.00347412109375	3950.47512502601
0.63720703125	-0.00394683837890625	3950.48397502599
0.632781982421875	-0.004415283203125	3950.49282502596
0.62835693359375	-0.00488037109375	3950.50167502594
0.623931884765625	-0.0053472900390625	3950.51052502592
0.6195068359375	-0.00580596923828125	3950.5193750259
0.615081787109375	-0.006260986328125	3950.52822502588
0.61065673828125	-0.0066864013671875	3950.53707502585
0.606231689453125	-0.0071319580078125	3950.54592502583
0.601806640625	-0.0075775146484375	3950.55477502581
0.597381591796875	-0.008013916015625	3950.56362502579
0.59295654296875	-0.008453369140625	3950.57247502576
0.588531494140625	-0.00888671875	3950.58132502574
0.5841064453125	-0.0093170166015625	3950.59017502572
0.579681396484375	-0.0097412109375	3950.5990250257
0.57525634765625	-0.01016845703125	3950.60787502567
0.570831298828125	-0.010589599609375	3950.61672502565
0.56640625	-0.011004638671875	3950.62557502563
0.561981201171875	-0.0114227294921875	3950.63442502561
0.55755615234375	-0.011834716796875	3950.64327502558
0.553131103515625	-0.0122467041015625	3950.65212502556
0.5487060546875	-0.012652587890625	3950.66097502554
0.544281005859375	-0.013055419921875	3950.66982502552
0.53985595703125	-0.0134552001953125	3950.6786750255
0.535430908203125	-0.01385498046875	3950.68752502547
0.531005859375	-0.0142486572265625	3950.69637502545
0.526580810546875	-0.014642333984375	3950.70522502543
0.52215576171875	-0.015032958984375	3950.71407502541
0.517730712890625	-0.0154205322265625	3950.72292502538
0.5133056640625	-0.015802001953125	3950.73177502536
0.508880615234375	-0.0161834716796875	3950.74062502534
0.50445556640625	-0.0165618896484375	3950.74947502532
0.500030517578125	-0.0169403076171875	3950.75832502529
0.49560546875	-0.0173126220703125	3950.76717502527
0.491180419921875	-0.0176849365234375	3950.77602502525
0.48675537109375	-0.0180511474609375	3950.78487502523
0.482330322265625	-0.01842041015625	3950.7937250252
0.4779052734375	-0.0187835693359375	3950.80257502518
0.473480224609375	-0.0191436767578125	3950.81142502516
0.46905517578125	-0.019500732421875	3950.82027502514
0.464630126953125	-0.0198577880859375	3950.82912502512
0.460205078125	-0.0202117919921875	3950.83797502509
0.455780029296875	-0.0205596923828125	3950.84682502507
0.45135498046875	-0.02091064453125	3950.85567502505
0.446929931640625	-0.0212554931640625	3950.86452502503
0.4425048828125	-0.0216033935546875	3950.873375025
0.438079833984375	-0.021942138671875	3950.88222502498
0.43365478515625	-0.022283935546875	3950.89107502496
0.429229736328125	-0.02261962890625	3950.89992502494
0.4248046875	-0.022955322265625	3950.90877502491
0.420379638671875	-0.023291015625	3950.91762502489
0.41595458984375	-0.0236175537109375	3950.92647502487
0.411529541015625	-0.0239471435546875	3950.93532502485
0.4071044921875	-0.024273681640625	3950.94417502482
0.402679443359375	-0.02459716796875	3950.9530250248
0.39825439453125	-0.024920654296875	3950.96187502478
0.393829345703125	-0.025238037109375	3950.97072502476
0.389404296875	-0.0255584716796875	3950.97957502474
0.384979248046875	-0.025872802734375	3950.98842502471
0.38055419921875	-0.0261871337890625	3950.99727502469
0.376129150390625	-0.0264984130859375	3951.00612502467
0.3717041015625	-0.026806640625	3951.01497502465
0.367279052734375	-0.02711181640625	3951.02382502462
0.36285400390625	-0.0274169921875	3951.0326750246
0.358428955078125	-0.027716064453125	3951.04152502458
0.35400390625	-0.0280181884765625	3951.05037502456
0.349578857421875	-0.0283233642578125	3951.05922502453
0.34515380859375	-0.028631591796875	3951.06807502451
0.340728759765625	-0.0289306640625	3951.07692502449
0.3363037109375	-0.0292266845703125	3951.08577502447
0.331878662109375	-0.029522705078125	3951.09462502445
0.32745361328125	-0.0298095703125	3951.10347502442
0.323028564453125	-0.0301025390625	3951.1123250244
0.318603515625	-0.0303924560546875	3951.12117502438
0.314178466796875	-0.030682373046875	3951.13002502436
0.30975341796875	-0.03096923828125	3951.13887502433
0.305328369140625	-0.031256103515625	3951.14772502431
0.3009033203125	-0.0315399169921875	3951.15657502429
0.296478271484375	-0.0318206787109375	3951.16542502427
0.29205322265625	-0.032098388671875	3951.17427502424
0.287628173828125	-0.0323760986328125	3951.18312502422
0.283203125	-0.0326507568359375	3951.1919750242
0.278778076171875	-0.032916259765625	3951.20082502418
0.27435302734375	-0.0331787109375	3951.20967502415
0.269927978515625	-0.0334442138671875	3951.21852502413
0.2655029296875	-0.0337188720703125	3951.22737502411
0.261077880859375	-0.0340057373046875	3951.23622502409
0.25665283203125	-0.03427734375	3951.24507502407
0.252227783203125	-0.034539794921875	3951.25392502404
0.247802734375	-0.0348052978515625	3951.26277502402
0.243377685546875	-0.035076904296875	3951.271625024
0.23895263671875	-0.035345458984375	3951.28047502398
0.234527587890625	-0.035614013671875	3951.28932502395
0.2301025390625	-0.03587646484375	3951.29817502393
0.225677490234375	-0.0361328125	3951.30702502391
0.22125244140625	-0.036395263671875	3951.31587502389
0.216827392578125	-0.0366485595703125	3951.32472502386
0.21240234375	-0.0369049072265625	3951.33357502384
0.207977294921875	-0.037164306640625	3951.34242502382
0.20355224609375	-0.037420654296875	3951.3512750238
0.199127197265625	-0.0376708984375	3951.36012502377
0.1947021484375	-0.03792724609375	3951.36897502375
0.190277099609375	-0.0381805419921875	3951.37782502373
0.18585205078125	-0.0384307861328125	3951.38667502371
0.181427001953125	-0.03868408203125	3951.39552502369
0.177001953125	-0.038934326171875	3951.40437502366
0.172576904296875	-0.039178466796875	3951.41322502364
0.16815185546875	-0.0394256591796875	3951.42207502362
0.163726806640625	-0.0396697998046875	3951.4309250236
0.1593017578125	-0.0399200439453125	3951.43977502357
0.154876708984375	-0.0401580810546875	3951.44862502355
0.15045166015625	-0.0404052734375	3951.45747502353
0.146026611328125	-0.040643310546875	3951.46632502351
0.1416015625	-0.0408843994140625	3951.47517502348
0.137176513671875	-0.0411224365234375	3951.48402502346
0.13275146484375	-0.0413604736328125	3951.49287502344
0.128326416015625	-0.0415985107421875	3951.50172502342
0.1239013671875	-0.0418365478515625	3951.51057502339
0.119476318359375	-0.0420745849609375	3951.51942502337
0.11505126953125	-0.042303466796875	3951.52827502335
0.110626220703125	-0.04254150390625	3951.53712502333
0.106201171875	-0.0427734375	3951.54597502331
0.101776123046875	-0.04300537109375	3951.55482502328
0.09735107421875	-0.0432373046875	3951.56367502326
0.092926025390625	-0.04346923828125	3951.57252502324
0.0885009765625	-0.043701171875	3951.58137502322
0.084075927734375	-0.0439300537109375	3951.59022502319
0.07965087890625	-0.0441619873046875	3951.59907502317
0.075225830078125	-0.0443939208984375	3951.60792502315
0.07080078125	-0.04461669921875	3951.61677502313
0.066375732421875	-0.0448394775390625	3951.6256250231
0.06195068359375	-0.045068359375	3951.63447502308
0.057525634765625	-0.045294189453125	3951.64332502306
0.0531005859375	-0.04552001953125	3951.65217502304
0.048675537109375	-0.04573974609375	3951.66102502302
0.04425048828125	-0.0459625244140625	3951.66987502299
0.039825439453125	-0.0461822509765625	3951.67872502297
0.035400390625	-0.0464019775390625	3951.68757502295
0.030975341796875	-0.0466278076171875	3951.69642502293
0.02655029296875	-0.0468475341796875	3951.7052750229
0.022125244140625	-0.0470672607421875	3951.71412502288
0.0177001953125	-0.0472869873046875	3951.72297502286
0.013275146484375	-0.0475067138671875	3951.73182502284
0.00885009765625	-0.047723388671875	3951.74067502281
0.004425048828125	-0.047943115234375	3951.74952502279
0	-0.0481597900390625	3951.75837502277
0.004425048828125	-0.047198486328125	3951.76722502275
0.00885009765625	-0.046258544921875	3951.77607502272
0.013275146484375	-0.0453399658203125	3951.7849250227
0.0177001953125	-0.044439697265625	3951.79377502268
0.022125244140625	-0.0435455322265625	3951.80262502266
0.02655029296875	-0.042669677734375	3951.81147502264
0.030975341796875	-0.0417999267578125	3951.82032502261
0.035400390625	-0.0409423828125	3951.82917502259
0.039825439453125	-0.0400970458984375	3951.83802502257
0.04425048828125	-0.0392547607421875	3951.84687502255
0.048675537109375	-0.038427734375	3951.85572502252
0.0531005859375	-0.03760986328125	3951.8645750225
0.057525634765625	-0.036798095703125	3951.87342502248
0.06195068359375	-0.0359954833984375	3951.88227502246
0.066375732421875	-0.0352020263671875	3951.89112502243
0.07080078125	-0.0344146728515625	3951.89997502241
0.075225830078125	-0.0336334228515625	3951.90882502239
0.07965087890625	-0.032861328125	3951.91767502237
0.084075927734375	-0.0321014404296875	3951.92652502234
0.0885009765625	-0.031341552734375	3951.93537502232
0.092926025390625	-0.0305908203125	3951.9442250223
0.09735107421875	-0.02984619140625	3951.95307502228
0.101776123046875	-0.0291107177734375	3951.96192502226
0.106201171875	-0.0283782958984375	3951.97077502223
0.110626220703125	-0.027655029296875	3951.97962502221
0.11505126953125	-0.0269317626953125	3951.98847502219
0.119476318359375	-0.026226806640625	3951.99732502217
0.1239013671875	-0.025518798828125	3952.00617502214
0.128326416015625	-0.0248199462890625	3952.01502502212
0.13275146484375	-0.0241241455078125	3952.0238750221
0.137176513671875	-0.0234344482421875	3952.03272502208
0.1416015625	-0.0227508544921875	3952.04157502205
0.146026611328125	-0.0220733642578125	3952.05042502203
0.15045166015625	-0.0214019775390625	3952.05927502201
0.154876708984375	-0.020733642578125	3952.06812502199
0.1593017578125	-0.020074462890625	3952.07697502196
0.163726806640625	-0.019415283203125	3952.08582502194
0.16815185546875	-0.01876220703125	3952.09467502192
0.172576904296875	-0.018115234375	3952.1035250219
0.177001953125	-0.017474365234375	3952.11237502188
0.181427001953125	-0.016839599609375	3952.12122502185
0.18585205078125	-0.016204833984375	3952.13007502183
0.190277099609375	-0.0155792236328125	3952.13892502181
0.1947021484375	-0.0149566650390625	3952.14777502179
0.199127197265625	-0.014337158203125	3952.15662502176
0.20355224609375	-0.013726806640625	3952.16547502174
0.207977294921875	-0.013116455078125	3952.17432502172
0.21240234375	-0.01251220703125	3952.1831750217
0.216827392578125	-0.0119110107421875	3952.19202502167
0.22125244140625	-0.01131591796875	3952.20087502165
0.225677490234375	-0.0107269287109375	3952.20972502163
0.2301025390625	-0.0101409912109375	3952.21857502161
0.234527587890625	-0.00955810546875	3952.22742502159
0.23895263671875	-0.0089813232421875	3952.23627502156
0.243377685546875	-0.008404541015625	3952.24512502154
0.247802734375	-0.0078338623046875	3952.25397502152
0.252227783203125	-0.007269287109375	3952.2628250215
0.25665283203125	-0.006707763671875	3952.27167502147
0.261077880859375	-0.0061492919921875	3952.28052502145
0.2655029296875	-0.0055908203125	3952.28937502143
0.269927978515625	-0.00504150390625	3952.29822502141
0.27435302734375	-0.00449737548828125	3952.30707502138
0.278778076171875	-0.00395416259765625	3952.31592502136
0.283203125	-0.00341522216796875	3952.32477502134
0.287628173828125	-0.00287933349609375	3952.33362502132
0.29205322265625	-0.00234710693359375	3952.34247502129
0.296478271484375	-0.00182769775390625	3952.35132502127
0.3009033203125	-0.0013018798828125	3952.36017502125
0.305328369140625	-0.00078033447265625	3952.36902502123
0.30975341796875	-0.000260955810546875	3952.3778750212
0.314178466796875	0.000258270263671875	3952.38672502118
0.318603515625	0.00076904296875	3952.39557502116
0.323028564453125	0.00127655029296875	3952.40442502114
0.32745361328125	0.001781005859375	3952.41327502112
0.331878662109375	0.00228271484375	3952.42212502109
0.3363037109375	0.0027801513671875	3952.43097502107
0.340728759765625	0.00327545166015625	3952.43982502105
0.34515380859375	0.00376708984375	3952.44867502103
0.349578857421875	0.00425689697265625	3952.457525021
0.35400390625	0.00473907470703125	3952.46637502098
0.358428955078125	0.005220947265625	3952.47522502096
0.36285400390625	0.00570037841796875	3952.48407502094
0.367279052734375	0.00617279052734375	3952.49292502091
0.3717041015625	0.00662841796875	3952.50177502089
0.376129150390625	0.007098388671875	3952.51062502087
0.38055419921875	0.007568359375	3952.51947502085
0.384979248046875	0.008026123046875	3952.52832502083
0.389404296875	0.0084869384765625	3952.5371750208
0.393829345703125	0.008941650390625	3952.54602502078
0.39825439453125	0.009393310546875	3952.55487502076
0.402679443359375	0.0098419189453125	3952.56372502074
0.4071044921875	0.01029052734375	3952.57257502071
0.411529541015625	0.0107330322265625	3952.58142502069
0.41595458984375	0.0111724853515625	3952.59027502067
0.420379638671875	0.0116119384765625	3952.59912502065
0.4248046875	0.0120452880859375	3952.60797502062
0.429229736328125	0.0124786376953125	3952.6168250206
0.43365478515625	0.0129058837890625	3952.62567502058
0.438079833984375	0.0133331298828125	3952.63452502056
0.4425048828125	0.01375732421875	3952.64337502053
0.446929931640625	0.0141754150390625	3952.65222502051
0.45135498046875	0.014593505859375	3952.66107502049
0.455780029296875	0.015008544921875	3952.66992502047
0.460205078125	0.0154205322265625	3952.67877502045
0.464630126953125	0.0158294677734375	3952.68762502042
0.46905517578125	0.0162353515625	3952.6964750204
0.473480224609375	0.0166351318359375	3952.70532502038
0.4779052734375	0.0170379638671875	3952.71417502036
0.482330322265625	0.017431640625	3952.72302502033
0.48675537109375	0.0178253173828125	3952.73187502031
0.491180419921875	0.018218994140625	3952.74072502029
0.49560546875	0.0186126708984375	3952.74957502027
0.500030517578125	0.0190032958984375	3952.75842502024
0.50445556640625	0.019390869140625	3952.76727502022
0.508880615234375	0.019775390625	3952.7761250202
0.5133056640625	0.0201568603515625	3952.78497502018
0.517730712890625	0.0205322265625	3952.79382502016
0.52215576171875	0.0209075927734375	3952.80267502013
0.526580810546875	0.0212799072265625	3952.81152502011
0.531005859375	0.0216522216796875	3952.82037502009
0.535430908203125	0.0220184326171875	3952.82922502007
0.53985595703125	0.0223846435546875	3952.83807502004
0.544281005859375	0.0227447509765625	3952.84692502002
0.5487060546875	0.0231048583984375	3952.85577502
0.553131103515625	0.0234588623046875	3952.86462501998
0.55755615234375	0.0238128662109375	3952.87347501995
0.561981201171875	0.0241668701171875	3952.88232501993
0.56640625	0.024517822265625	3952.89117501991
0.570831298828125	0.0248687744140625	3952.90002501989
0.57525634765625	0.0252105712890625	3952.90887501986
0.579681396484375	0.02554931640625	3952.91772501984
0.5841064453125	0.0258880615234375	3952.92657501982
0.588531494140625	0.0262298583984375	3952.9354250198
0.59295654296875	0.0265655517578125	3952.94427501977
0.597381591796875	0.0268951416015625	3952.95312501975
0.601806640625	0.0272308349609375	3952.96197501973
0.606231689453125	0.0275604248046875	3952.97082501971
0.61065673828125	0.0278839111328125	3952.97967501969
0.615081787109375	0.0282073974609375	3952.98852501966
0.6195068359375	0.02852783203125	3952.99737501964
0.623931884765625	0.0288482666015625	3953.00622501962
0.62835693359375	0.029168701171875	3953.0150750196
0.632781982421875	0.0294830322265625	3953.02392501957
0.63720703125	0.029791259765625	3953.03277501955
0.641632080078125	0.0301055908203125	3953.04162501953
0.64605712890625	0.0304168701171875	3953.05047501951
0.650482177734375	0.030731201171875	3953.05932501948
0.6549072265625	0.031048583984375	3953.06817501946
0.659332275390625	0.031353759765625	3953.07702501944
0.66375732421875	0.0316497802734375	3953.08587501942
0.668182373046875	0.03194580078125	3953.0947250194
0.672607421875	0.032232666015625	3953.10357501937
0.677032470703125	0.03251953125	3953.11242501935
0.68145751953125	0.0328155517578125	3953.12127501933
0.685882568359375	0.033111572265625	3953.13012501931
0.6903076171875	0.03341064453125	3953.13897501928
0.694732666015625	0.0337066650390625	3953.14782501926
0.69915771484375	0.03399658203125	3953.15667501924
0.703582763671875	0.0342803955078125	3953.16552501922
0.7080078125	0.03455810546875	3953.17437501919
0.712432861328125	0.0348358154296875	3953.18322501917
0.71685791015625	0.035113525390625	3953.19207501915
0.721282958984375	0.0353851318359375	3953.20092501913
0.7257080078125	0.03565673828125	3953.2097750191
0.730133056640625	0.0359283447265625	3953.21862501908
0.73455810546875	0.03619384765625	3953.22747501906
0.738983154296875	0.03646240234375	3953.23632501904
0.743408203125	0.0367218017578125	3953.24517501902
0.747833251953125	0.036981201171875	3953.25402501899
0.75225830078125	0.03724365234375	3953.26287501897
0.756683349609375	0.0374969482421875	3953.27172501895
0.7611083984375	0.0377532958984375	3953.28057501893
0.765533447265625	0.0380126953125	3953.2894250189
0.76995849609375	0.038262939453125	3953.29827501888
0.774383544921875	0.03851318359375	3953.30712501886
0.77880859375	0.038763427734375	3953.31597501884
0.783233642578125	0.039007568359375	3953.32482501881
0.78765869140625	0.039251708984375	3953.33367501879
0.792083740234375	0.039495849609375	3953.34252501877
0.7965087890625	0.0397369384765625	3953.35137501875
0.800933837890625	0.0399749755859375	3953.36022501873
0.80535888671875	0.0402130126953125	3953.3690750187
0.809783935546875	0.0404510498046875	3953.37792501868
0.814208984375	0.0406829833984375	3953.38677501866
0.818634033203125	0.04091796875	3953.39562501864
0.82305908203125	0.0411468505859375	3953.40447501861
0.827484130859375	0.0413787841796875	3953.41332501859
0.8319091796875	0.0416046142578125	3953.42217501857
0.836334228515625	0.0418304443359375	3953.43102501855
0.84075927734375	0.04205322265625	3953.43987501852
0.845184326171875	0.0422698974609375	3953.4487250185
0.849609375	0.04249267578125	3953.45757501848
0.854034423828125	0.04271240234375	3953.46642501846
0.85845947265625	0.0429290771484375	3953.47527501843
0.862884521484375	0.0431427001953125	3953.48412501841
0.8673095703125	0.043359375	3953.49297501839
0.871734619140625	0.0435699462890625	3953.50182501837
0.87615966796875	0.0437835693359375	3953.51067501834
0.880584716796875	0.0439910888671875	3953.51952501832
0.885009765625	0.0441986083984375	3953.5283750183
0.889434814453125	0.0444091796875	3953.53722501828
0.89385986328125	0.044610595703125	3953.54607501826
0.898284912109375	0.0448150634765625	3953.55492501823
0.9027099609375	0.0450164794921875	3953.56377501821
0.907135009765625	0.0452178955078125	3953.57262501819
0.91156005859375	0.0454132080078125	3953.58147501817
0.915985107421875	0.045611572265625	3953.59032501814
0.92041015625	0.04581298828125	3953.59917501812
0.924835205078125	0.04600830078125	3953.6080250181
0.92926025390625	0.0462005615234375	3953.61687501808
0.933685302734375	0.046392822265625	3953.62572501805
0.9381103515625	0.0465911865234375	3953.63457501803
0.942535400390625	0.046783447265625	3953.64342501801
0.94696044921875	0.0469696044921875	3953.65227501799
0.951385498046875	0.0471649169921875	3953.66112501797
0.955810546875	0.04735107421875	3953.66997501794
0.960235595703125	0.0475372314453125	3953.67882501792
0.96466064453125	0.047723388671875	3953.6876750179
0.969085693359375	0.0479095458984375	3953.69652501788
0.9735107421875	0.0480926513671875	3953.70537501785
0.977935791015625	0.04827880859375	3953.71422501783
0.98236083984375	0.0484588623046875	3953.72307501781
0.986785888671875	0.0486419677734375	3953.73192501779
0.9912109375	0.0488250732421875	3953.74077501776
0.995635986328125	0.0490081787109375	3953.74962501774
1.00006103515625	0.0491851806640625	3953.75847501772
0.995635986328125	0.048193359375	3953.7673250177
0.9912109375	0.047216796875	3953.77617501767
0.986785888671875	0.0462646484375	3953.78502501765
0.98236083984375	0.0453277587890625	3953.79387501763
0.977935791015625	0.0444091796875	3953.80272501761
0.9735107421875	0.0435028076171875	3953.81157501759
0.969085693359375	0.0425994873046875	3953.82042501756
0.96466064453125	0.041717529296875	3953.82927501754
0.960235595703125	0.0408447265625	3953.83812501752
0.955810546875	0.03997802734375	3953.8469750175
0.951385498046875	0.03912353515625	3953.85582501747
0.94696044921875	0.03828125	3953.86467501745
0.942535400390625	0.0374481201171875	3953.87352501743
0.9381103515625	0.0366241455078125	3953.88237501741
0.933685302734375	0.0358001708984375	3953.89122501738
0.92926025390625	0.0349945068359375	3953.90007501736
0.924835205078125	0.03419189453125	3953.90892501734
0.92041015625	0.0334014892578125	3953.91777501732
0.915985107421875	0.0326202392578125	3953.9266250173
0.91156005859375	0.0318450927734375	3953.93547501727
0.907135009765625	0.031072998046875	3953.94432501725
0.9027099609375	0.03031005859375	3953.95317501723
0.898284912109375	0.0295562744140625	3953.96202501721
0.89385986328125	0.0288116455078125	3953.97087501718
0.889434814453125	0.0280731201171875	3953.97972501716
0.885009765625	0.0273406982421875	3953.98857501714
0.880584716796875	0.026611328125	3953.99742501712
0.87615966796875	0.0258941650390625	3954.00627501709
0.871734619140625	0.02518310546875	3954.01512501707
0.8673095703125	0.024481201171875	3954.02397501705
0.862884521484375	0.0237823486328125	3954.03282501703
0.85845947265625	0.023089599609375	3954.041675017
0.854034423828125	0.0224029541015625	3954.05052501698
0.849609375	0.021722412109375	3954.05937501696
0.845184326171875	0.0210479736328125	3954.06822501694
0.84075927734375	0.0203765869140625	3954.07707501691
0.836334228515625	0.01971435546875	3954.08592501689
0.8319091796875	0.0190582275390625	3954.09477501687
0.827484130859375	0.0184051513671875	3954.10362501685
0.82305908203125	0.0177581787109375	3954.11247501683
0.818634033203125	0.017120361328125	3954.1213250168
0.814208984375	0.0164794921875	3954.13017501678
0.809783935546875	0.015850830078125	3954.13902501676
0.80535888671875	0.0152252197265625	3954.14787501674
0.800933837890625	0.014605712890625	3954.15672501671
0.7965087890625	0.0139923095703125	3954.16557501669
0.792083740234375	0.0133819580078125	3954.17442501667
0.78765869140625	0.0127777099609375	3954.18327501665
0.783233642578125	0.0121795654296875	3954.19212501662
0.77880859375	0.01158447265625	3954.2009750166
0.774383544921875	0.010992431640625	3954.20982501658
0.76995849609375	0.0104095458984375	3954.21867501656
0.765533447265625	0.00982666015625	3954.22752501654
0.7611083984375	0.0092529296875	3954.23637501651
0.756683349609375	0.00867919921875	3954.24522501649
0.75225830078125	0.008111572265625	3954.25407501647
0.747833251953125	0.007550048828125	3954.26292501645
0.743408203125	0.0069915771484375	3954.27177501642
0.738983154296875	0.006439208984375	3954.2806250164
0.73455810546875	0.005889892578125	3954.28947501638
0.730133056640625	0.0053436279296875	3954.29832501636
0.7257080078125	0.0048028564453125	3954.30717501633
0.721282958984375	0.0042657470703125	3954.31602501631
0.71685791015625	0.00373199462890625	3954.32487501629
0.712432861328125	0.0032037353515625	3954.33372501627
0.7080078125	0.00267852783203125	3954.34257501624
0.703582763671875	0.00215972900390625	3954.35142501622
0.69915771484375	0.00164215087890625	3954.3602750162
0.694732666015625	0.00112823486328125	3954.36912501618
0.6903076171875	0.0006182861328125	3954.37797501616
0.685882568359375	0.000111358642578125	3954.38682501613
0.68145751953125	-0.0003905029296875	3954.39567501611
0.677032470703125	-0.00088958740234375	3954.40452501609
0.672607421875	-0.00138427734375	3954.41337501607
0.668182373046875	-0.001875	3954.42222501604
0.66375732421875	-0.00236358642578125	3954.43107501602
0.659332275390625	-0.0028466796875	3954.439925016
0.6549072265625	-0.00332672119140625	3954.44877501598
0.650482177734375	-0.0038031005859375	3954.45762501595
0.64605712890625	-0.00427642822265625	3954.46647501593
0.641632080078125	-0.00474609375	3954.47532501591
0.63720703125	-0.0052130126953125	3954.48417501589
0.632781982421875	-0.00567596435546875	3954.49302501586
0.62835693359375	-0.00613494873046875	3954.50187501584
0.623931884765625	-0.0065704345703125	3954.51072501582
0.6195068359375	-0.0070220947265625	3954.5195750158
0.615081787109375	-0.007470703125	3954.52842501578
0.61065673828125	-0.00791015625	3954.53727501575
0.606231689453125	-0.0083526611328125	3954.54612501573
0.601806640625	-0.0087921142578125	3954.55497501571
0.597381591796875	-0.009228515625	3954.56382501569
0.59295654296875	-0.0096588134765625	3954.57267501566
0.588531494140625	-0.0100860595703125	3954.58152501564
0.5841064453125	-0.0105072021484375	3954.59037501562
0.579681396484375	-0.0109283447265625	3954.5992250156
0.57525634765625	-0.011346435546875	3954.60807501557
0.570831298828125	-0.0117645263671875	3954.61692501555
0.56640625	-0.012176513671875	3954.62577501553
0.561981201171875	-0.01258544921875	3954.63462501551
0.55755615234375	-0.012994384765625	3954.64347501548
0.553131103515625	-0.013397216796875	3954.65232501546
0.5487060546875	-0.0137969970703125	3954.66117501544
0.544281005859375	-0.014190673828125	3954.67002501542
0.53985595703125	-0.01458740234375	3954.6788750154
0.535430908203125	-0.01497802734375	3954.68772501537
0.531005859375	-0.01536865234375	3954.69657501535
0.526580810546875	-0.015753173828125	3954.70542501533
0.52215576171875	-0.0161376953125	3954.71427501531
0.517730712890625	-0.0165191650390625	3954.72312501528
0.5133056640625	-0.0168975830078125	3954.73197501526
0.508880615234375	-0.0172698974609375	3954.74082501524
0.50445556640625	-0.017645263671875	3954.74967501522
0.500030517578125	-0.018011474609375	3954.75852501519
0.49560546875	-0.0183807373046875	3954.76737501517
0.491180419921875	-0.0187469482421875	3954.77622501515
0.48675537109375	-0.0191070556640625	3954.78507501513
0.482330322265625	-0.01947021484375	3954.79392501511
0.4779052734375	-0.01982421875	3954.80277501508
0.473480224609375	-0.020184326171875	3954.81162501506
0.46905517578125	-0.0205322265625	3954.82047501504
0.464630126953125	-0.020880126953125	3954.82932501502
0.460205078125	-0.02122802734375	3954.83817501499
0.455780029296875	-0.0215728759765625	3954.84702501497
0.45135498046875	-0.0219146728515625	3954.85587501495
0.446929931640625	-0.0222564697265625	3954.86472501493
0.4425048828125	-0.0225921630859375	3954.8735750149
0.438079833984375	-0.0229278564453125	3954.88242501488
0.43365478515625	-0.023260498046875	3954.89127501486
0.429229736328125	-0.0235870361328125	3954.90012501484
0.4248046875	-0.02391357421875	3954.90897501481
0.420379638671875	-0.0242340087890625	3954.91782501479
0.41595458984375	-0.024554443359375	3954.92667501477
0.411529541015625	-0.024871826171875	3954.93552501475
0.4071044921875	-0.0251861572265625	3954.94437501473
0.402679443359375	-0.0255126953125	3954.9532250147
0.39825439453125	-0.0258392333984375	3954.96207501468
0.393829345703125	-0.02615966796875	3954.97092501466
0.389404296875	-0.0264739990234375	3954.97977501464
0.384979248046875	-0.0267822265625	3954.98862501461
0.38055419921875	-0.027093505859375	3954.99747501459
0.376129150390625	-0.027398681640625	3955.00632501457
0.3717041015625	-0.0277069091796875	3955.01517501455
0.367279052734375	-0.028009033203125	3955.02402501452
0.36285400390625	-0.0283050537109375	3955.0328750145
0.358428955078125	-0.02860107421875	3955.04172501448
0.35400390625	-0.028900146484375	3955.05057501446
0.349578857421875	-0.0291900634765625	3955.05942501443
0.34515380859375	-0.02947998046875	3955.06827501441
0.340728759765625	-0.029754638671875	3955.07712501439
0.3363037109375	-0.030029296875	3955.08597501437
0.331878662109375	-0.03031005859375	3955.09482501435
0.32745361328125	-0.0305999755859375	3955.10367501432
0.323028564453125	-0.0309051513671875	3955.1125250143
0.318603515625	-0.031195068359375	3955.12137501428
0.314178466796875	-0.0314727783203125	3955.13022501426
0.30975341796875	-0.031756591796875	3955.13907501423
0.305328369140625	-0.032037353515625	3955.14792501421
0.3009033203125	-0.032318115234375	3955.15677501419
0.296478271484375	-0.032598876953125	3955.16562501417
0.29205322265625	-0.0328704833984375	3955.17447501414
0.287628173828125	-0.0331512451171875	3955.18332501412
0.283203125	-0.0334197998046875	3955.1921750141
0.278778076171875	-0.0336883544921875	3955.20102501408
0.27435302734375	-0.033953857421875	3955.20987501405
0.269927978515625	-0.034222412109375	3955.21872501403
0.2655029296875	-0.03448486328125	3955.22757501401
0.261077880859375	-0.0347503662109375	3955.23642501399
0.25665283203125	-0.0350128173828125	3955.24527501397
0.252227783203125	-0.0352783203125	3955.25412501394
0.247802734375	-0.0355377197265625	3955.26297501392
0.243377685546875	-0.0358001708984375	3955.2718250139
0.23895263671875	-0.0360565185546875	3955.28067501388
0.234527587890625	-0.03631591796875	3955.28952501385
0.2301025390625	-0.0365753173828125	3955.29837501383
0.225677490234375	-0.03682861328125	3955.30722501381
0.22125244140625	-0.0370819091796875	3955.31607501379
0.216827392578125	-0.0373382568359375	3955.32492501376
0.21240234375	-0.0375885009765625	3955.33377501374
0.207977294921875	-0.037835693359375	3955.34262501372
0.20355224609375	-0.0380859375	3955.3514750137
0.199127197265625	-0.038336181640625	3955.36032501368
0.1947021484375	-0.03858642578125	3955.36917501365
0.190277099609375	-0.0388336181640625	3955.37802501363
0.18585205078125	-0.03907470703125	3955.38687501361
0.181427001953125	-0.03931884765625	3955.39572501359
0.177001953125	-0.03956298828125	3955.40457501356
0.172576904296875	-0.03980712890625	3955.41342501354
0.16815185546875	-0.040045166015625	3955.42227501352
0.163726806640625	-0.040289306640625	3955.4311250135
0.1593017578125	-0.0405242919921875	3955.43997501347
0.154876708984375	-0.04075927734375	3955.44882501345
0.15045166015625	-0.0410003662109375	3955.45767501343
0.146026611328125	-0.0412384033203125	3955.46652501341
0.1416015625	-0.0414703369140625	3955.47537501338
0.137176513671875	-0.0417083740234375	3955.48422501336
0.13275146484375	-0.041943359375	3955.49307501334
0.128326416015625	-0.0421783447265625	3955.50192501332
0.1239013671875	-0.0424072265625	3955.5107750133
0.119476318359375	-0.04263916015625	3955.51962501327
0.11505126953125	-0.0428680419921875	3955.52847501325
0.110626220703125	-0.043096923828125	3955.53732501323
0.106201171875	-0.043328857421875	3955.54617501321
0.101776123046875	-0.0435577392578125	3955.55502501318
0.09735107421875	-0.04378662109375	3955.56387501316
0.092926025390625	-0.044012451171875	3955.57272501314
0.0885009765625	-0.04423828125	3955.58157501312
0.084075927734375	-0.044464111328125	3955.59042501309
0.07965087890625	-0.04468994140625	3955.59927501307
0.075225830078125	-0.0449127197265625	3955.60812501305
0.07080078125	-0.045135498046875	3955.61697501303
0.066375732421875	-0.045355224609375	3955.625825013
0.06195068359375	-0.0455780029296875	3955.63467501298
0.057525634765625	-0.04580078125	3955.64352501296
0.0531005859375	-0.0460205078125	3955.65237501294
0.048675537109375	-0.046240234375	3955.66122501292
0.04425048828125	-0.0464599609375	3955.67007501289
0.039825439453125	-0.0466796875	3955.67892501287
0.035400390625	-0.0468994140625	3955.68777501285
0.030975341796875	-0.047113037109375	3955.69662501283
0.02655029296875	-0.047332763671875	3955.7054750128
0.022125244140625	-0.047552490234375	3955.71432501278
0.0177001953125	-0.0477630615234375	3955.72317501276
0.013275146484375	-0.047979736328125	3955.73202501274
0.00885009765625	-0.048193359375	3955.74087501271
0.004425048828125	-0.0484100341796875	3955.74972501269
0	-0.0486175537109375	3955.75857501267
0.004425048828125	-0.04765625	3955.76742501265
0.00885009765625	-0.04671630859375	3955.77627501262
0.013275146484375	-0.04578857421875	3955.7851250126
