Potential applied (V)	WE(1).Current (A)	Time (s)
0.004425048828125	0.0005487060546875	1833.16932137169
0.00885009765625	0.000611572265625	1834.05433136946
0.013275146484375	0.00065185546875	1834.93934136722
0.0177001953125	0.00068023681640625	1835.82435136499
0.022125244140625	0.00070159912109375	1836.70936136275
0.02655029296875	0.000718994140625	1837.59437136052
0.030975341796875	0.00073211669921875	1838.47938135829
0.035400390625	0.0007440185546875	1839.36439135605
0.039825439453125	0.00075408935546875	1840.24940135382
0.04425048828125	0.00076324462890625	1841.13441135158
0.048675537109375	0.00077117919921875	1842.01942134935
0.0531005859375	0.0007781982421875	1842.90443134711
0.057525634765625	0.0007843017578125	1843.78944134488
0.06195068359375	0.00079010009765625	1844.67445134264
0.066375732421875	0.00079498291015625	1845.55946134041
0.07080078125	0.00079925537109375	1846.44447133818
0.075225830078125	0.00080352783203125	1847.32948133594
0.07965087890625	0.00080596923828125	1848.21449133371
0.084075927734375	0.00081024169921875	1849.09950133147
0.0885009765625	0.00081298828125	1849.98451132924
0.092926025390625	0.0008154296875	1850.869521327
0.09735107421875	0.00081756591796875	1851.75453132477
0.101776123046875	0.0008197021484375	1852.63954132253
0.106201171875	0.00082122802734375	1853.5245513203
0.110626220703125	0.00082305908203125	1854.40956131807
0.11505126953125	0.0008245849609375	1855.29457131583
0.119476318359375	0.0008245849609375	1856.1795813136
0.1239013671875	0.000826416015625	1857.06459131136
0.128326416015625	0.0008282470703125	1857.94960130913
0.13275146484375	0.00082916259765625	1858.83461130689
0.137176513671875	0.00083038330078125	1859.71962130466
0.1416015625	0.000831298828125	1860.60463130242
0.146026611328125	0.00083282470703125	1861.48964130019
0.15045166015625	0.000833740234375	1862.37465129796
0.154876708984375	0.0008349609375	1863.25966129572
0.1593017578125	0.0008355712890625	1864.14467129349
0.163726806640625	0.00083709716796875	1865.02968129125
0.16815185546875	0.00083770751953125	1865.91469128902
0.172576904296875	0.0008392333984375	1866.79970128678
0.177001953125	0.0008404541015625	1867.68471128455
0.181427001953125	0.00084228515625	1868.56972128231
0.18585205078125	0.00084381103515625	1869.45473128008
0.190277099609375	0.0008453369140625	1870.33974127785
0.1947021484375	0.0008465576171875	1871.22475127561
0.199127197265625	0.00084808349609375	1872.10976127338
0.20355224609375	0.00084991455078125	1872.99477127114
0.207977294921875	0.0008514404296875	1873.87978126891
0.21240234375	0.0008538818359375	1874.76479126667
0.216827392578125	0.000855712890625	1875.64980126444
0.22125244140625	0.0008575439453125	1876.53481126221
0.225677490234375	0.000859375	1877.41982125997
0.2301025390625	0.00086181640625	1878.30483125774
0.234527587890625	0.00086334228515625	1879.1898412555
0.23895263671875	0.0008660888671875	1880.07485125327
0.243377685546875	0.0008685302734375	1880.95986125103
0.247802734375	0.000870361328125	1881.8448712488
0.252227783203125	0.000872802734375	1882.72988124656
0.25665283203125	0.000875244140625	1883.61489124433
0.261077880859375	0.00087799072265625	1884.4999012421
0.2655029296875	0.00088043212890625	1885.38491123986
0.269927978515625	0.00088348388671875	1886.26992123763
0.27435302734375	0.0008856201171875	1887.15493123539
0.278778076171875	0.00088836669921875	1888.03994123316
0.283203125	0.0008905029296875	1888.92495123092
0.287628173828125	0.00089385986328125	1889.80996122869
0.29205322265625	0.00089691162109375	1890.69497122645
0.296478271484375	0.00089935302734375	1891.57998122422
0.3009033203125	0.00090240478515625	1892.46499122199
0.305328369140625	0.0009051513671875	1893.35000121975
0.30975341796875	0.00090789794921875	1894.23501121752
0.314178466796875	0.000911865234375	1895.12002121528
0.318603515625	0.0009130859375	1896.00503121305
0.323028564453125	0.0009149169921875	1896.89004121081
0.32745361328125	0.00091644287109375	1897.77505120858
0.331878662109375	0.00091827392578125	1898.66006120634
0.3363037109375	0.0009197998046875	1899.54507120411
0.340728759765625	0.00092071533203125	1900.43008120188
0.34515380859375	0.000921630859375	1901.31509119964
0.349578857421875	0.00092315673828125	1902.20010119741
0.35400390625	0.0009222412109375	1903.08511119517
0.358428955078125	0.00092437744140625	1903.97012119294
0.36285400390625	0.00092498779296875	1904.8551311907
0.367279052734375	0.00092559814453125	1905.74014118847
0.3717041015625	0.0009259033203125	1906.62515118623
0.376129150390625	0.00092620849609375	1907.510161184
0.38055419921875	0.00092559814453125	1908.39517118177
0.384979248046875	0.0009246826171875	1909.28018117953
0.389404296875	0.00092376708984375	1910.1651911773
0.393829345703125	0.0009222412109375	1911.05020117506
0.39825439453125	0.000921630859375	1911.93521117283
0.402679443359375	0.00092041015625	1912.82022117059
0.4071044921875	0.00091888427734375	1913.70523116836
0.411529541015625	0.00091766357421875	1914.59024116612
0.41595458984375	0.00091552734375	1915.47525116389
0.420379638671875	0.0009136962890625	1916.36026116166
0.4248046875	0.000911865234375	1917.24527115942
0.429229736328125	0.00090972900390625	1918.13028115719
0.43365478515625	0.000906982421875	1919.01529115495
0.438079833984375	0.00090484619140625	1919.90030115272
0.4425048828125	0.000902099609375	1920.78531115048
0.446929931640625	0.00089996337890625	1921.67032114825
0.45135498046875	0.0008978271484375	1922.55533114601
0.455780029296875	0.0008953857421875	1923.44034114378
0.460205078125	0.0008929443359375	1924.32535114155
0.464630126953125	0.00089080810546875	1925.21036113931
0.46905517578125	0.00088775634765625	1926.09537113708
0.473480224609375	0.00088592529296875	1926.98038113484
0.4779052734375	0.0008837890625	1927.86539113261
0.482330322265625	0.0008819580078125	1928.75040113037
0.48675537109375	0.00087982177734375	1929.63541112814
0.491180419921875	0.000877685546875	1930.5204211259
0.49560546875	0.00087554931640625	1931.40543112367
0.500030517578125	0.00087432861328125	1932.29044112144
0.50445556640625	0.00087249755859375	1933.1754511192
0.508880615234375	0.00087066650390625	1934.06046111697
0.5133056640625	0.00086944580078125	1934.94547111473
0.517730712890625	0.0008685302734375	1935.8304811125
0.52215576171875	0.00086761474609375	1936.71549111026
0.526580810546875	0.00086639404296875	1937.60050110803
0.531005859375	0.0008648681640625	1938.48551110579
0.535430908203125	0.0008642578125	1939.37052110356
0.53985595703125	0.00086334228515625	1940.25553110133
0.544281005859375	0.000863037109375	1941.14054109909
0.5487060546875	0.00086181640625	1942.02555109686
0.553131103515625	0.0008624267578125	1942.91056109462
0.55755615234375	0.0008624267578125	1943.79557109239
0.561981201171875	0.0008624267578125	1944.68058109015
0.56640625	0.00086273193359375	1945.56559108792
0.570831298828125	0.00086334228515625	1946.45060108568
0.57525634765625	0.0008636474609375	1947.33561108345
0.579681396484375	0.00086456298828125	1948.22062108122
0.5841064453125	0.000865478515625	1949.10563107898
0.588531494140625	0.000865478515625	1949.99064107675
0.59295654296875	0.000867919921875	1950.87565107451
0.597381591796875	0.0008697509765625	1951.76066107228
0.601806640625	0.00087158203125	1952.64567107004
0.606231689453125	0.00087310791015625	1953.53068106781
0.61065673828125	0.0008758544921875	1954.41569106557
0.615081787109375	0.00087860107421875	1955.30070106334
0.6195068359375	0.00088043212890625	1956.18571106111
0.623931884765625	0.0008837890625	1957.07072105887
0.62835693359375	0.00088958740234375	1957.95573105664
0.632781982421875	0.0008917236328125	1958.8407410544
0.63720703125	0.0008941650390625	1959.72575105217
0.641632080078125	0.0008978271484375	1960.61076104993
0.64605712890625	0.00090179443359375	1961.4957710477
0.650482177734375	0.00090576171875	1962.38078104546
0.6549072265625	0.00091033935546875	1963.26579104323
0.659332275390625	0.00091522216796875	1964.150801041
0.66375732421875	0.00092010498046875	1965.03581103876
0.668182373046875	0.00092529296875	1965.92082103653
0.672607421875	0.00093048095703125	1966.80583103429
0.677032470703125	0.000936279296875	1967.69084103206
0.68145751953125	0.0009423828125	1968.57585102982
0.685882568359375	0.000948486328125	1969.46086102759
0.6903076171875	0.0009552001953125	1970.34587102535
0.694732666015625	0.00096282958984375	1971.23088102312
0.69915771484375	0.00097015380859375	1972.11589102089
0.703582763671875	0.0009771728515625	1973.00090101865
0.7080078125	0.0009857177734375	1973.88591101642
0.712432861328125	0.000994873046875	1974.77092101418
0.71685791015625	0.0010040283203125	1975.65593101195
0.721282958984375	0.0010137939453125	1976.54094100971
0.7257080078125	0.00102325439453125	1977.42595100748
0.730133056640625	0.00103424072265625	1978.31096100524
0.73455810546875	0.00104583740234375	1979.19597100301
0.738983154296875	0.0010577392578125	1980.08098100078
0.743408203125	0.0010687255859375	1980.96599099854
0.747833251953125	0.001082763671875	1981.85100099631
0.75225830078125	0.00109619140625	1982.73601099407
0.756683349609375	0.0011114501953125	1983.62102099184
0.7611083984375	0.00112762451171875	1984.5060309896
0.765533447265625	0.001143798828125	1985.39104098737
0.76995849609375	0.0011614990234375	1986.27605098514
0.774383544921875	0.00117919921875	1987.1610609829
0.77880859375	0.00119873046875	1988.04607098067
0.783233642578125	0.0012188720703125	1988.93108097843
0.78765869140625	0.0012396240234375	1989.8160909762
0.792083740234375	0.00126190185546875	1990.70110097396
0.7965087890625	0.0012860107421875	1991.58611097173
0.800933837890625	0.00131134033203125	1992.47112096949
0.80535888671875	0.00133758544921875	1993.35613096726
0.809783935546875	0.00136566162109375	1994.24114096503
0.814208984375	0.0013946533203125	1995.12615096279
0.818634033203125	0.00142486572265625	1996.01116096056
0.82305908203125	0.00145721435546875	1996.89617095832
0.827484130859375	0.001490478515625	1997.78118095609
0.8319091796875	0.00152587890625	1998.66619095385
0.836334228515625	0.0015631103515625	1999.55120095162
0.84075927734375	0.00160064697265625	2000.43621094938
0.845184326171875	0.0016412353515625	2001.32122094715
0.849609375	0.00168304443359375	2002.20623094492
0.854034423828125	0.0017266845703125	2003.09124094268
0.85845947265625	0.0017718505859375	2003.97625094045
0.862884521484375	0.00181854248046875	2004.86126093821
0.8673095703125	0.00186767578125	2005.74627093598
0.871734619140625	0.00191925048828125	2006.63128093374
0.87615966796875	0.00197296142578125	2007.51629093151
0.880584716796875	0.00202850341796875	2008.40130092927
0.885009765625	0.0020849609375	2009.28631092704
0.889434814453125	0.00214385986328125	2010.17132092481
0.89385986328125	0.00220458984375	2011.05633092257
0.898284912109375	0.0022686767578125	2011.94134092034
0.9027099609375	0.00233367919921875	2012.8263509181
0.907135009765625	0.00240020751953125	2013.71136091587
0.91156005859375	0.00246917724609375	2014.59637091363
0.915985107421875	0.00254058837890625	2015.4813809114
0.92041015625	0.002613525390625	2016.36639090916
0.924835205078125	0.00268798828125	2017.25140090693
0.92926025390625	0.0027642822265625	2018.1364109047
0.933685302734375	0.00284271240234375	2019.02142090246
0.9381103515625	0.00292449951171875	2019.90643090023
0.942535400390625	0.0030047607421875	2020.79144089799
0.94696044921875	0.00308624267578125	2021.67645089576
0.951385498046875	0.00317047119140625	2022.56146089352
0.955810546875	0.0032550048828125	2023.44647089129
0.960235595703125	0.00333953857421875	2024.33148088905
0.96466064453125	0.0034271240234375	2025.21649088682
0.969085693359375	0.00351409912109375	2026.10150088459
0.9735107421875	0.00360321044921875	2026.98651088235
0.977935791015625	0.00369232177734375	2027.87152088012
0.98236083984375	0.0037847900390625	2028.75653087788
0.986785888671875	0.00387908935546875	2029.64154087565
0.9912109375	0.0039739990234375	2030.52655087341
0.995635986328125	0.004072265625	2031.41156087118
1.00006103515625	0.00417144775390625	2032.29657086894
0.995635986328125	0.00351348876953125	2033.18158086671
0.9912109375	0.00301116943359375	2034.06659086448
0.986785888671875	0.0025994873046875	2034.95160086224
0.98236083984375	0.00224700927734375	2035.83661086001
0.977935791015625	0.00193817138671875	2036.72162085777
0.9735107421875	0.00166717529296875	2037.60663085554
0.969085693359375	0.0014227294921875	2038.4916408533
0.96466064453125	0.0012030029296875	2039.37665085107
0.960235595703125	0.00100341796875	2040.26166084883
0.955810546875	0.0008221435546875	2041.1466708466
0.951385498046875	0.0006573486328125	2042.03168084437
0.94696044921875	0.00050689697265625	2042.91669084213
0.942535400390625	0.000368682861328125	2043.8017008399
0.9381103515625	0.000242584228515625	2044.68671083766
0.933685302734375	0.000123992919921875	2045.57172083543
0.92926025390625	1.79443359375E-05	2046.45673083319
0.924835205078125	-7.9833984375E-05	2047.34174083096
0.92041015625	-0.000170257568359375	2048.22675082872
0.915985107421875	-0.000252960205078125	2049.11176082649
0.91156005859375	-0.000329193115234375	2049.99677082426
0.907135009765625	-0.0003992919921875	2050.88178082202
0.9027099609375	-0.00046490478515625	2051.76679081979
0.898284912109375	-0.000524688720703125	2052.65180081755
0.89385986328125	-0.000579345703125	2053.53681081532
0.889434814453125	-0.000629791259765625	2054.42182081308
0.885009765625	-0.00067657470703125	2055.30683081085
0.880584716796875	-0.0007196044921875	2056.19184080861
0.87615966796875	-0.00075958251953125	2057.07685080638
0.871734619140625	-0.0007952880859375	2057.96186080415
0.8673095703125	-0.000828857421875	2058.84687080191
0.862884521484375	-0.000859375	2059.73188079968
0.85845947265625	-0.0008868408203125	2060.61689079744
0.854034423828125	-0.0009124755859375	2061.50190079521
0.849609375	-0.00093597412109375	2062.38691079297
0.845184326171875	-0.00095733642578125	2063.27192079074
0.84075927734375	-0.0009771728515625	2064.1569307885
0.836334228515625	-0.0009942626953125	2065.04194078627
0.8319091796875	-0.00101043701171875	2065.92695078404
0.827484130859375	-0.00102447509765625	2066.8119607818
0.82305908203125	-0.0010382080078125	2067.69697077957
0.818634033203125	-0.0010498046875	2068.58198077733
0.814208984375	-0.00105987548828125	2069.4669907751
0.809783935546875	-0.00106903076171875	2070.35200077286
0.80535888671875	-0.00107635498046875	2071.23701077063
0.800933837890625	-0.0010833740234375	2072.12202076839
0.7965087890625	-0.0010882568359375	2073.00703076616
0.792083740234375	-0.00109283447265625	2073.89204076393
0.78765869140625	-0.00109588623046875	2074.77705076169
0.783233642578125	-0.00109771728515625	2075.66206075946
0.77880859375	-0.0010986328125	2076.54707075722
0.774383544921875	-0.00109832763671875	2077.43208075499
0.76995849609375	-0.00109832763671875	2078.31709075275
0.765533447265625	-0.00109619140625	2079.20210075052
0.7611083984375	-0.00109375	2080.08711074828
0.756683349609375	-0.00109039306640625	2080.97212074605
0.75225830078125	-0.0010870361328125	2081.85713074382
0.747833251953125	-0.00108245849609375	2082.74214074158
0.743408203125	-0.00107696533203125	2083.62715073935
0.738983154296875	-0.00107025146484375	2084.51216073711
0.73455810546875	-0.0010650634765625	2085.39717073488
0.730133056640625	-0.0010589599609375	2086.28218073264
0.7257080078125	-0.0010528564453125	2087.16719073041
0.721282958984375	-0.0010467529296875	2088.05220072818
0.71685791015625	-0.0010394287109375	2088.93721072594
0.712432861328125	-0.00103179931640625	2089.82222072371
0.7080078125	-0.00102508544921875	2090.70723072147
0.703582763671875	-0.00101776123046875	2091.59224071924
0.69915771484375	-0.0010101318359375	2092.477250717
0.694732666015625	-0.00100372314453125	2093.36226071477
0.6903076171875	-0.00099639892578125	2094.24727071253
0.685882568359375	-0.00098968505859375	2095.1322807103
0.68145751953125	-0.00098358154296875	2096.01729070807
0.677032470703125	-0.00097686767578125	2096.90230070583
0.672607421875	-0.00097015380859375	2097.7873107036
0.668182373046875	-0.0009637451171875	2098.67232070136
0.66375732421875	-0.00095733642578125	2099.55733069913
0.659332275390625	-0.000950927734375	2100.44234069689
0.6549072265625	-0.00094482421875	2101.32735069466
0.650482177734375	-0.00093841552734375	2102.21236069242
0.64605712890625	-0.0009332275390625	2103.09737069019
0.641632080078125	-0.00092742919921875	2103.98238068795
0.63720703125	-0.0009222412109375	2104.86739068572
0.632781982421875	-0.00091644287109375	2105.75240068349
0.62835693359375	-0.000911865234375	2106.63741068125
0.623931884765625	-0.000909423828125	2107.52242067902
0.6195068359375	-0.00090423583984375	2108.40743067678
0.615081787109375	-0.0008990478515625	2109.29244067455
0.61065673828125	-0.0008941650390625	2110.17745067231
0.606231689453125	-0.00089080810546875	2111.06246067008
0.601806640625	-0.0008868408203125	2111.94747066785
0.597381591796875	-0.00088348388671875	2112.83248066561
0.59295654296875	-0.000880126953125	2113.71749066338
0.588531494140625	-0.00087738037109375	2114.60250066114
0.5841064453125	-0.0008734130859375	2115.48751065891
0.579681396484375	-0.00087158203125	2116.37252065667
0.57525634765625	-0.00086944580078125	2117.25753065444
0.570831298828125	-0.000867919921875	2118.1425406522
0.56640625	-0.00086578369140625	2119.02755064997
0.561981201171875	-0.00086456298828125	2119.91256064774
0.55755615234375	-0.00086273193359375	2120.7975706455
0.553131103515625	-0.00086181640625	2121.68258064327
0.5487060546875	-0.0008612060546875	2122.56759064103
0.544281005859375	-0.000859375	2123.4526006388
0.53985595703125	-0.000859375	2124.33761063656
0.535430908203125	-0.00085906982421875	2125.22262063433
0.531005859375	-0.00085906982421875	2126.10763063209
0.526580810546875	-0.0008587646484375	2126.99264062986
0.52215576171875	-0.00085968017578125	2127.87765062763
0.517730712890625	-0.0008599853515625	2128.76266062539
0.5133056640625	-0.000860595703125	2129.64767062316
0.508880615234375	-0.00086090087890625	2130.53268062092
0.50445556640625	-0.0008612060546875	2131.41769061869
0.500030517578125	-0.00086273193359375	2132.30270061645
0.49560546875	-0.000863037109375	2133.18771061422
0.491180419921875	-0.00086456298828125	2134.07272061198
0.48675537109375	-0.000865478515625	2134.95773060975
0.482330322265625	-0.00086669921875	2135.84274060752
0.4779052734375	-0.000867919921875	2136.72775060528
0.473480224609375	-0.0008697509765625	2137.61276060305
0.46905517578125	-0.0008709716796875	2138.49777060081
0.464630126953125	-0.00087188720703125	2139.38278059858
0.460205078125	-0.00087310791015625	2140.26779059634
0.455780029296875	-0.00087432861328125	2141.15280059411
0.45135498046875	-0.00087615966796875	2142.03781059187
0.446929931640625	-0.000877685546875	2142.92282058964
0.4425048828125	-0.00087860107421875	2143.80783058741
0.438079833984375	-0.00088043212890625	2144.69284058517
0.43365478515625	-0.0008819580078125	2145.57785058294
0.429229736328125	-0.00088287353515625	2146.4628605807
0.4248046875	-0.00088470458984375	2147.34787057847
0.420379638671875	-0.00088592529296875	2148.23288057623
0.41595458984375	-0.00088714599609375	2149.117890574
0.411529541015625	-0.00088897705078125	2150.00290057176
0.4071044921875	-0.00089111328125	2150.88791056953
0.402679443359375	-0.000892333984375	2151.7729205673
0.39825439453125	-0.00089385986328125	2152.65793056506
0.393829345703125	-0.00089630126953125	2153.54294056283
0.389404296875	-0.00089752197265625	2154.42795056059
0.384979248046875	-0.000899658203125	2155.31296055836
0.38055419921875	-0.00090179443359375	2156.19797055612
0.376129150390625	-0.00090423583984375	2157.08298055389
0.3717041015625	-0.000906982421875	2157.96799055165
0.367279052734375	-0.000909423828125	2158.85300054942
0.36285400390625	-0.00091156005859375	2159.73801054719
0.358428955078125	-0.0009149169921875	2160.62302054495
0.35400390625	-0.0009173583984375	2161.50803054272
0.349578857421875	-0.00091888427734375	2162.39304054048
0.34515380859375	-0.0009228515625	2163.27805053825
0.340728759765625	-0.00092620849609375	2164.16306053601
0.3363037109375	-0.00092987060546875	2165.04807053378
0.331878662109375	-0.00093353271484375	2165.93308053154
0.32745361328125	-0.00093719482421875	2166.81809052931
0.323028564453125	-0.0009405517578125	2167.70310052708
0.318603515625	-0.00094451904296875	2168.58811052484
0.314178466796875	-0.000948486328125	2169.47312052261
0.30975341796875	-0.00095458984375	2170.35813052037
0.305328369140625	-0.00095794677734375	2171.24314051814
0.3009033203125	-0.00096160888671875	2172.1281505159
0.296478271484375	-0.00096588134765625	2173.01316051367
0.29205322265625	-0.00097015380859375	2173.89817051143
0.287628173828125	-0.00097503662109375	2174.7831805092
0.283203125	-0.0009796142578125	2175.66819050697
0.278778076171875	-0.00098388671875	2176.55320050473
0.27435302734375	-0.00098876953125	2177.4382105025
0.269927978515625	-0.00099334716796875	2178.32322050026
0.2655029296875	-0.00099853515625	2179.20823049803
0.261077880859375	-0.0010028076171875	2180.09324049579
0.25665283203125	-0.0010076904296875	2180.97825049356
0.252227783203125	-0.0010125732421875	2181.86326049132
0.247802734375	-0.00101776123046875	2182.74827048909
0.243377685546875	-0.0010223388671875	2183.63328048686
0.23895263671875	-0.0010272216796875	2184.51829048462
0.234527587890625	-0.00103271484375	2185.40330048239
0.2301025390625	-0.001036376953125	2186.28831048015
0.225677490234375	-0.00104248046875	2187.17332047792
0.22125244140625	-0.00104766845703125	2188.05833047568
0.216827392578125	-0.00105224609375	2188.94334047345
0.21240234375	-0.00105804443359375	2189.82835047121
0.207977294921875	-0.0010626220703125	2190.71336046898
0.20355224609375	-0.001068115234375	2191.59837046675
0.199127197265625	-0.0010736083984375	2192.48338046451
0.1947021484375	-0.00107940673828125	2193.36839046228
0.190277099609375	-0.0010845947265625	2194.25340046004
0.18585205078125	-0.00109039306640625	2195.13841045781
0.181427001953125	-0.0010955810546875	2196.02342045557
0.177001953125	-0.00110137939453125	2196.90843045334
0.172576904296875	-0.00110748291015625	2197.79344045111
0.16815185546875	-0.00111358642578125	2198.67845044887
0.163726806640625	-0.00112060546875	2199.56346044664
0.1593017578125	-0.00112701416015625	2200.4484704444
0.154876708984375	-0.0011328125	2201.33348044217
0.15045166015625	-0.00114044189453125	2202.21849043993
0.146026611328125	-0.00114776611328125	2203.1035004377
0.1416015625	-0.00115509033203125	2203.98851043546
0.137176513671875	-0.0011627197265625	2204.87352043323
0.13275146484375	-0.001170654296875	2205.758530431
0.128326416015625	-0.001177978515625	2206.64354042876
0.1239013671875	-0.00118560791015625	2207.52855042653
0.119476318359375	-0.00119384765625	2208.41356042429
0.11505126953125	-0.00120025634765625	2209.29857042206
0.110626220703125	-0.0012091064453125	2210.18358041982
0.106201171875	-0.00121734619140625	2211.06859041759
0.101776123046875	-0.00122528076171875	2211.95360041535
0.09735107421875	-0.00123382568359375	2212.83861041312
0.092926025390625	-0.0012420654296875	2213.72362041088
0.0885009765625	-0.00125	2214.60863040865
0.084075927734375	-0.0012579345703125	2215.49364040642
0.07965087890625	-0.0012652587890625	2216.37865040418
0.075225830078125	-0.00127227783203125	2217.26366040195
0.07080078125	-0.0012799072265625	2218.14867039971
0.066375732421875	-0.0012872314453125	2219.03368039748
0.06195068359375	-0.00129486083984375	2219.91869039524
0.057525634765625	-0.0013018798828125	2220.80370039301
0.0531005859375	-0.00130950927734375	2221.68871039078
0.048675537109375	-0.0013165283203125	2222.57372038854
0.04425048828125	-0.00132354736328125	2223.45873038631
0.039825439453125	-0.00133087158203125	2224.34374038407
0.035400390625	-0.00133819580078125	2225.22875038184
0.030975341796875	-0.00134674072265625	2226.1137603796
0.02655029296875	-0.0013543701171875	2226.99877037737
0.022125244140625	-0.00136322021484375	2227.88378037513
0.0177001953125	-0.0013720703125	2228.7687903729
0.013275146484375	-0.00138153076171875	2229.65380037067
0.00885009765625	-0.00139068603515625	2230.53881036843
0.004425048828125	-0.0014013671875	2231.4238203662
0	-0.00141143798828125	2232.30883036396
0.004425048828125	-0.0007672119140625	2233.19384036173
0.00885009765625	-0.000352996826171875	2234.07885035949
0.013275146484375	-7.3272705078125E-05	2234.96386035726
0.0177001953125	0.000122589111328125	2235.84887035502
0.022125244140625	0.00026385498046875	2236.73388035279
0.02655029296875	0.000368194580078125	2237.61889035056
0.030975341796875	0.000446868896484375	2238.50390034832
0.035400390625	0.000508697509765625	2239.38891034609
0.039825439453125	0.00055584716796875	2240.27392034385
0.04425048828125	0.0005946044921875	2241.15893034162
0.048675537109375	0.00062481689453125	2242.04394033938
0.0531005859375	0.00065032958984375	2242.92895033715
0.057525634765625	0.00067138671875	2243.81396033491
0.06195068359375	0.0006884765625	2244.69897033268
0.066375732421875	0.0007025146484375	2245.58398033045
0.07080078125	0.00071502685546875	2246.46899032821
0.075225830078125	0.00072540283203125	2247.35400032598
0.07965087890625	0.0007330322265625	2248.23901032374
0.084075927734375	0.000740966796875	2249.12402032151
0.0885009765625	0.0007470703125	2250.00903031927
0.092926025390625	0.000753173828125	2250.89404031704
0.09735107421875	0.000758056640625	2251.7790503148
0.101776123046875	0.0007623291015625	2252.66406031257
0.106201171875	0.0007659912109375	2253.54907031034
0.110626220703125	0.00076934814453125	2254.4340803081
0.11505126953125	0.00077178955078125	2255.31909030587
0.119476318359375	0.00077301025390625	2256.20410030363
0.1239013671875	0.00077545166015625	2257.0891103014
0.128326416015625	0.000777587890625	2257.97412029916
0.13275146484375	0.00077972412109375	2258.85913029693
0.137176513671875	0.00078094482421875	2259.74414029469
0.1416015625	0.000782470703125	2260.62915029246
0.146026611328125	0.0007843017578125	2261.51416029023
0.15045166015625	0.0007855224609375	2262.39917028799
0.154876708984375	0.000787353515625	2263.28418028576
0.1593017578125	0.0007879638671875	2264.16919028352
0.163726806640625	0.00078948974609375	2265.05420028129
0.16815185546875	0.000791015625	2265.93921027905
0.172576904296875	0.00079254150390625	2266.82422027682
0.177001953125	0.00079376220703125	2267.70923027458
0.181427001953125	0.00079559326171875	2268.59424027235
0.18585205078125	0.00079681396484375	2269.47925027012
0.190277099609375	0.00079803466796875	2270.36426026788
0.1947021484375	0.0008001708984375	2271.24927026565
0.199127197265625	0.00080169677734375	2272.13428026341
0.20355224609375	0.00080291748046875	2273.01929026118
0.207977294921875	0.0008050537109375	2273.90430025894
0.21240234375	0.000806884765625	2274.78931025671
0.216827392578125	0.00080902099609375	2275.67432025447
0.22125244140625	0.00081024169921875	2276.55933025224
0.225677490234375	0.0008123779296875	2277.44434025001
0.2301025390625	0.000814208984375	2278.32935024777
0.234527587890625	0.00081512451171875	2279.21436024554
0.23895263671875	0.00081787109375	2280.0993702433
0.243377685546875	0.0008197021484375	2280.98438024107
0.247802734375	0.0008221435546875	2281.86939023883
0.252227783203125	0.00082427978515625	2282.7544002366
0.25665283203125	0.00082672119140625	2283.63941023436
0.261077880859375	0.00082855224609375	2284.52442023213
0.2655029296875	0.00083038330078125	2285.4094302299
0.269927978515625	0.00083251953125	2286.29444022766
0.27435302734375	0.0008349609375	2287.17945022543
0.278778076171875	0.00083740234375	2288.06446022319
0.283203125	0.00083953857421875	2288.94947022096
0.287628173828125	0.00084197998046875	2289.83448021872
0.29205322265625	0.0008447265625	2290.71949021649
0.296478271484375	0.0008465576171875	2291.60450021425
0.3009033203125	0.00084869384765625	2292.48951021202
0.305328369140625	0.00085052490234375	2293.37452020979
0.30975341796875	0.0008526611328125	2294.25953020755
0.314178466796875	0.0008563232421875	2295.14454020532
0.318603515625	0.0008575439453125	2296.02955020308
0.323028564453125	0.000859375	2296.91456020085
0.32745361328125	0.0008612060546875	2297.79957019861
0.331878662109375	0.0008624267578125	2298.68458019638
0.3363037109375	0.0008642578125	2299.56959019414
0.340728759765625	0.00086578369140625	2300.45460019191
0.34515380859375	0.0008673095703125	2301.33961018968
0.349578857421875	0.0008685302734375	2302.22462018744
0.35400390625	0.0008685302734375	2303.10963018521
0.358428955078125	0.00087066650390625	2303.99464018297
0.36285400390625	0.00087127685546875	2304.87965018074
0.367279052734375	0.00087249755859375	2305.7646601785
0.3717041015625	0.0008734130859375	2306.64967017627
0.376129150390625	0.00087371826171875	2307.53468017404
0.38055419921875	0.0008740234375	2308.4196901718
0.384979248046875	0.00087432861328125	2309.30470016957
0.389404296875	0.00087371826171875	2310.18971016733
0.393829345703125	0.00087310791015625	2311.0747201651
0.39825439453125	0.000872802734375	2311.95973016286
0.402679443359375	0.00087188720703125	2312.84474016063
0.4071044921875	0.00087158203125	2313.72975015839
0.411529541015625	0.0008709716796875	2314.61476015616
0.41595458984375	0.000870361328125	2315.49977015393
0.420379638671875	0.00086883544921875	2316.38478015169
0.4248046875	0.000867919921875	2317.26979014946
0.429229736328125	0.00086700439453125	2318.15480014722
0.43365478515625	0.0008660888671875	2319.03981014499
0.438079833984375	0.0008642578125	2319.92482014275
0.4425048828125	0.00086334228515625	2320.80983014052
0.446929931640625	0.00086273193359375	2321.69484013828
0.45135498046875	0.00086151123046875	2322.57985013605
0.455780029296875	0.00086029052734375	2323.46486013381
0.460205078125	0.0008587646484375	2324.34987013158
0.464630126953125	0.00085784912109375	2325.23488012935
0.46905517578125	0.0008563232421875	2326.11989012711
0.473480224609375	0.000855712890625	2327.00490012488
0.4779052734375	0.0008544921875	2327.88991012264
0.482330322265625	0.00085357666015625	2328.77492012041
0.48675537109375	0.0008526611328125	2329.65993011817
0.491180419921875	0.00085174560546875	2330.54494011594
0.49560546875	0.00085113525390625	2331.42995011371
0.500030517578125	0.0008502197265625	2332.31496011147
0.50445556640625	0.000849609375	2333.19997010924
0.508880615234375	0.00084930419921875	2334.084980107
0.5133056640625	0.0008489990234375	2334.96999010477
0.517730712890625	0.0008477783203125	2335.85500010253
0.52215576171875	0.00084747314453125	2336.7400101003
0.526580810546875	0.00084747314453125	2337.62502009806
0.531005859375	0.00084747314453125	2338.51003009583
0.535430908203125	0.00084716796875	2339.3950400936
0.53985595703125	0.00084716796875	2340.28005009136
0.544281005859375	0.0008477783203125	2341.16506008913
0.5487060546875	0.00084716796875	2342.05007008689
0.553131103515625	0.000848388671875	2342.93508008466
0.55755615234375	0.0008489990234375	2343.82009008242
0.561981201171875	0.00084991455078125	2344.70510008019
0.56640625	0.000850830078125	2345.59011007795
0.570831298828125	0.00085205078125	2346.47512007572
0.57525634765625	0.000853271484375	2347.36013007349
0.579681396484375	0.0008551025390625	2348.24514007125
0.5841064453125	0.0008563232421875	2349.13015006902
0.588531494140625	0.00085693359375	2350.01516006678
0.59295654296875	0.000859375	2350.90017006455
0.597381591796875	0.00086181640625	2351.78518006231
0.601806640625	0.0008642578125	2352.67019006008
0.606231689453125	0.00086700439453125	2353.55520005784
0.61065673828125	0.00086944580078125	2354.44021005561
0.615081787109375	0.000872802734375	2355.32522005338
0.6195068359375	0.000875244140625	2356.21023005114
0.623931884765625	0.00087890625	2357.09524004891
0.62835693359375	0.000885009765625	2357.98025004667
0.632781982421875	0.00088714599609375	2358.86526004444
0.63720703125	0.000889892578125	2359.7502700422
0.641632080078125	0.00089385986328125	2360.63528003997
0.64605712890625	0.0008978271484375	2361.52029003773
0.650482177734375	0.00090240478515625	2362.4053000355
0.6549072265625	0.00090606689453125	2363.29031003327
0.659332275390625	0.0009112548828125	2364.17532003103
0.66375732421875	0.0009161376953125	2365.0603300288
0.668182373046875	0.00092132568359375	2365.94534002656
0.672607421875	0.00092681884765625	2366.83035002433
0.677032470703125	0.00093231201171875	2367.71536002209
0.68145751953125	0.0009381103515625	2368.60037001986
0.685882568359375	0.00094451904296875	2369.48538001762
0.6903076171875	0.00095062255859375	2370.37039001539
0.694732666015625	0.0009576416015625	2371.25540001316
0.69915771484375	0.00096405029296875	2372.14041001092
0.703582763671875	0.00097076416015625	2373.02542000869
0.7080078125	0.00097900390625	2373.91043000645
0.712432861328125	0.0009869384765625	2374.79544000422
0.71685791015625	0.00099517822265625	2375.68045000198
0.721282958984375	0.0010040283203125	2376.56545999975
0.7257080078125	0.00101318359375	2377.45046999751
0.730133056640625	0.00102325439453125	2378.33547999528
0.73455810546875	0.00103363037109375	2379.22048999305
0.738983154296875	0.00104400634765625	2380.10549999081
0.743408203125	0.001053466796875	2380.99050998858
0.747833251953125	0.0010662841796875	2381.87551998634
0.75225830078125	0.00107818603515625	2382.76052998411
0.756683349609375	0.0010919189453125	2383.64553998187
0.7611083984375	0.0011053466796875	2384.53054997964
0.765533447265625	0.00111968994140625	2385.4155599774
0.76995849609375	0.00113555908203125	2386.30056997517
0.774383544921875	0.00115142822265625	2387.18557997294
0.77880859375	0.001168212890625	2388.0705899707
0.783233642578125	0.001185302734375	2388.95559996847
0.78765869140625	0.0012042236328125	2389.84060996623
0.792083740234375	0.0012237548828125	2390.725619964
0.7965087890625	0.0012445068359375	2391.61062996176
0.800933837890625	0.001265869140625	2392.49563995953
0.80535888671875	0.00128875732421875	2393.38064995729
0.809783935546875	0.0013128662109375	2394.26565995506
0.814208984375	0.00133758544921875	2395.15066995283
0.818634033203125	0.0013641357421875	2396.03567995059
0.82305908203125	0.00139129638671875	2396.92068994836
0.827484130859375	0.001419677734375	2397.80569994612
0.8319091796875	0.00144927978515625	2398.69070994389
0.836334228515625	0.00148101806640625	2399.57571994165
0.84075927734375	0.00151397705078125	2400.46072993942
0.845184326171875	0.00154815673828125	2401.34573993718
0.849609375	0.00158294677734375	2402.23074993495
0.854034423828125	0.00161956787109375	2403.11575993272
0.85845947265625	0.00165771484375	2404.00076993048
0.862884521484375	0.00169708251953125	2404.88577992825
0.8673095703125	0.00173828125	2405.77078992601
0.871734619140625	0.00178009033203125	2406.65579992378
0.87615966796875	0.00182403564453125	2407.54080992154
0.880584716796875	0.00186859130859375	2408.42581991931
0.885009765625	0.001915283203125	2409.31082991707
0.889434814453125	0.0019635009765625	2410.19583991484
0.89385986328125	0.002012939453125	2411.08084991261
0.898284912109375	0.00206268310546875	2411.96585991037
0.9027099609375	0.00211456298828125	2412.85086990814
0.907135009765625	0.0021673583984375	2413.7358799059
0.91156005859375	0.00222137451171875	2414.62088990367
0.915985107421875	0.00227630615234375	2415.50589990143
0.92041015625	0.00233154296875	2416.3909098992
0.924835205078125	0.002388916015625	2417.27591989697
0.92926025390625	0.0024468994140625	2418.16092989473
0.933685302734375	0.0025054931640625	2419.0459398925
0.9381103515625	0.0025677490234375	2419.93094989026
0.942535400390625	0.002628173828125	2420.81595988803
0.94696044921875	0.00268951416015625	2421.70096988579
0.951385498046875	0.0027520751953125	2422.58597988356
0.955810546875	0.00281646728515625	2423.47098988132
0.960235595703125	0.0028826904296875	2424.35599987909
0.96466064453125	0.0029510498046875	2425.24100987686
0.969085693359375	0.00302093505859375	2426.12601987462
0.9735107421875	0.00309478759765625	2427.01102987239
0.977935791015625	0.003170166015625	2427.89603987015
0.98236083984375	0.003250732421875	2428.78104986792
0.986785888671875	0.0033349609375	2429.66605986568
0.9912109375	0.00342437744140625	2430.55106986345
0.995635986328125	0.003516845703125	2431.43607986121
1.00006103515625	0.00361419677734375	2432.32108985898
0.995635986328125	0.002982177734375	2433.20609985674
0.9912109375	0.00251434326171875	2434.09110985451
0.986785888671875	0.0021380615234375	2434.97611985228
0.98236083984375	0.00182220458984375	2435.86112985004
0.977935791015625	0.0015496826171875	2436.74613984781
0.9735107421875	0.001312255859375	2437.63114984557
0.969085693359375	0.0010992431640625	2438.51615984334
0.96466064453125	0.00090972900390625	2439.4011698411
0.960235595703125	0.00073974609375	2440.28617983887
0.955810546875	0.0005853271484375	2441.17118983664
0.951385498046875	0.000446502685546875	2442.0561998344
0.94696044921875	0.0003193359375	2442.94120983217
0.942535400390625	0.000204010009765625	2443.82621982993
0.9381103515625	9.771728515625E-05	2444.7112298277
0.933685302734375	-9.49096679687497E-07	2445.59623982546
0.92926025390625	-8.905029296875E-05	2446.48124982323
0.924835205078125	-0.000170379638671875	2447.36625982099
0.92041015625	-0.00024530029296875	2448.25126981876
0.915985107421875	-0.0003138427734375	2449.13627981653
0.91156005859375	-0.000378326416015625	2450.02128981429
0.907135009765625	-0.000437042236328125	2450.90629981206
0.9027099609375	-0.00049139404296875	2451.79130980982
0.898284912109375	-0.000541229248046875	2452.67631980759
0.89385986328125	-0.000587554931640625	2453.56132980535
0.889434814453125	-0.000630096435546875	2454.44633980312
0.885009765625	-0.00066925048828125	2455.33134980088
0.880584716796875	-0.00070526123046875	2456.21635979865
0.87615966796875	-0.00073822021484375	2457.10136979642
0.871734619140625	-0.0007696533203125	2457.98637979418
0.8673095703125	-0.00079742431640625	2458.87138979195
0.862884521484375	-0.00082275390625	2459.75639978971
0.85845947265625	-0.00084625244140625	2460.64140978748
0.854034423828125	-0.00086822509765625	2461.52641978524
0.849609375	-0.00088836669921875	2462.41142978301
0.845184326171875	-0.000906982421875	2463.29643978077
0.84075927734375	-0.0009234619140625	2464.18144977854
0.836334228515625	-0.0009381103515625	2465.06645977631
0.8319091796875	-0.0009521484375	2465.95146977407
0.827484130859375	-0.00096435546875	2466.83647977184
0.82305908203125	-0.0009759521484375	2467.7214897696
0.818634033203125	-0.0009857177734375	2468.60649976737
0.814208984375	-0.00099517822265625	2469.49150976513
0.809783935546875	-0.00100341796875	2470.3765197629
0.80535888671875	-0.00101043701171875	2471.26152976066
0.800933837890625	-0.001016845703125	2472.14653975843
0.7965087890625	-0.0010223388671875	2473.0315497562
0.792083740234375	-0.001026611328125	2473.91655975396
0.78765869140625	-0.00102996826171875	2474.80156975173
0.783233642578125	-0.00103302001953125	2475.68657974949
0.77880859375	-0.00103424072265625	2476.57158974726
0.774383544921875	-0.0010357666015625	2477.45659974502
0.76995849609375	-0.001036376953125	2478.34160974279
0.765533447265625	-0.0010357666015625	2479.22661974055
0.7611083984375	-0.00103515625	2480.11162973832
0.756683349609375	-0.00103302001953125	2480.99663973609
0.75225830078125	-0.00103118896484375	2481.88164973385
0.747833251953125	-0.00102783203125	2482.76665973162
0.743408203125	-0.00102447509765625	2483.65166972938
0.738983154296875	-0.001019287109375	2484.53667972715
0.73455810546875	-0.001015625	2485.42168972491
0.730133056640625	-0.0010113525390625	2486.30669972268
0.7257080078125	-0.00100616455078125	2487.19170972044
0.721282958984375	-0.00100067138671875	2488.07671971821
0.71685791015625	-0.0009954833984375	2488.96172971598
0.712432861328125	-0.00099029541015625	2489.84673971374
0.7080078125	-0.000985107421875	2490.73174971151
0.703582763671875	-0.0009783935546875	2491.61675970927
0.69915771484375	-0.00097198486328125	2492.50176970704
0.694732666015625	-0.0009661865234375	2493.3867797048
0.6903076171875	-0.00096099853515625	2494.27178970257
0.685882568359375	-0.0009552001953125	2495.15679970033
0.68145751953125	-0.00094940185546875	2496.0418096981
0.677032470703125	-0.00094451904296875	2496.92681969587
0.672607421875	-0.00093841552734375	2497.81182969363
0.668182373046875	-0.0009332275390625	2498.6968396914
0.66375732421875	-0.00092803955078125	2499.58184968916
0.659332275390625	-0.00092315673828125	2500.46685968693
0.6549072265625	-0.00091827392578125	2501.35186968469
0.650482177734375	-0.00091339111328125	2502.23687968246
0.64605712890625	-0.0009088134765625	2503.12188968022
0.641632080078125	-0.000904541015625	2504.00689967799
0.63720703125	-0.0009002685546875	2504.89190967576
0.632781982421875	-0.00089599609375	2505.77691967352
0.62835693359375	-0.00089202880859375	2506.66192967129
0.623931884765625	-0.00089111328125	2507.54693966905
0.6195068359375	-0.00088623046875	2508.43194966682
0.615081787109375	-0.000882568359375	2509.31695966458
0.61065673828125	-0.00087890625	2510.20196966235
0.606231689453125	-0.000875244140625	2511.08697966011
0.601806640625	-0.0008721923828125	2511.97198965788
0.597381591796875	-0.00087005615234375	2512.85699965565
0.59295654296875	-0.00086761474609375	2513.74200965341
0.588531494140625	-0.00086517333984375	2514.62701965118
0.5841064453125	-0.0008624267578125	2515.51202964894
0.579681396484375	-0.00086090087890625	2516.39703964671
0.57525634765625	-0.0008599853515625	2517.28204964447
0.570831298828125	-0.00085845947265625	2518.16705964224
0.56640625	-0.0008575439453125	2519.05206964
0.561981201171875	-0.00085662841796875	2519.93707963777
0.55755615234375	-0.00085601806640625	2520.82208963554
0.553131103515625	-0.000855712890625	2521.7070996333
0.5487060546875	-0.00085540771484375	2522.59210963107
0.544281005859375	-0.0008538818359375	2523.47711962883
0.53985595703125	-0.00085479736328125	2524.3621296266
0.535430908203125	-0.0008551025390625	2525.24713962436
0.531005859375	-0.00085540771484375	2526.13214962213
0.526580810546875	-0.00085540771484375	2527.0171596199
0.52215576171875	-0.00085662841796875	2527.90216961766
0.517730712890625	-0.0008575439453125	2528.78717961543
0.5133056640625	-0.000858154296875	2529.67218961319
0.508880615234375	-0.0008587646484375	2530.55719961096
0.50445556640625	-0.0008599853515625	2531.44220960872
0.500030517578125	-0.0008612060546875	2532.32721960649
0.49560546875	-0.00086212158203125	2533.21222960425
0.491180419921875	-0.0008636474609375	2534.09723960202
0.48675537109375	-0.00086517333984375	2534.98224959979
0.482330322265625	-0.00086639404296875	2535.86725959755
0.4779052734375	-0.000867919921875	2536.75226959532
0.473480224609375	-0.0008697509765625	2537.63727959308
0.46905517578125	-0.0008709716796875	2538.52228959085
0.464630126953125	-0.0008721923828125	2539.40729958861
0.460205078125	-0.0008740234375	2540.29230958638
0.455780029296875	-0.000875244140625	2541.17731958414
0.45135498046875	-0.00087738037109375	2542.06232958191
0.446929931640625	-0.00087860107421875	2542.94733957967
0.4425048828125	-0.000880126953125	2543.83234957744
0.438079833984375	-0.00088134765625	2544.71735957521
0.43365478515625	-0.00088287353515625	2545.60236957297
0.429229736328125	-0.00088409423828125	2546.48737957074
0.4248046875	-0.00088531494140625	2547.3723895685
0.420379638671875	-0.00088714599609375	2548.25739956627
0.41595458984375	-0.000888671875	2549.14240956403
0.411529541015625	-0.00088958740234375	2550.0274195618
0.4071044921875	-0.00089141845703125	2550.91242955957
0.402679443359375	-0.0008929443359375	2551.79743955733
0.39825439453125	-0.0008941650390625	2552.6824495551
0.393829345703125	-0.00089569091796875	2553.56745955286
0.389404296875	-0.00089691162109375	2554.45246955063
0.384979248046875	-0.0008990478515625	2555.33747954839
0.38055419921875	-0.0009014892578125	2556.22248954616
0.376129150390625	-0.00090301513671875	2557.10749954392
0.3717041015625	-0.00090545654296875	2557.99250954169
0.367279052734375	-0.00090728759765625	2558.87751953946
0.36285400390625	-0.000909423828125	2559.76252953722
0.358428955078125	-0.00091217041015625	2560.64753953499
0.35400390625	-0.0009149169921875	2561.53254953275
0.349578857421875	-0.00091583251953125	2562.41755953052
0.34515380859375	-0.00091949462890625	2563.30256952828
0.340728759765625	-0.00092254638671875	2564.18757952605
0.3363037109375	-0.00092559814453125	2565.07258952381
0.331878662109375	-0.000928955078125	2565.95759952158
0.32745361328125	-0.0009320068359375	2566.84260951935
0.323028564453125	-0.00093536376953125	2567.72761951711
0.318603515625	-0.000938720703125	2568.61262951488
0.314178466796875	-0.00094268798828125	2569.49763951264
0.30975341796875	-0.00094818115234375	2570.38264951041
0.305328369140625	-0.000950927734375	2571.26765950817
0.3009033203125	-0.00095458984375	2572.15266950594
0.296478271484375	-0.000958251953125	2573.0376795037
0.29205322265625	-0.0009625244140625	2573.92268950147
0.287628173828125	-0.0009661865234375	2574.80769949924
0.283203125	-0.00097076416015625	2575.692709497
0.278778076171875	-0.0009747314453125	2576.57771949477
0.27435302734375	-0.00097900390625	2577.46272949253
0.269927978515625	-0.0009832763671875	2578.3477394903
0.2655029296875	-0.0009881591796875	2579.23274948806
0.261077880859375	-0.000992431640625	2580.11775948583
0.25665283203125	-0.0009967041015625	2581.00276948359
0.252227783203125	-0.0010009765625	2581.88777948136
0.247802734375	-0.001005859375	2582.77278947913
0.243377685546875	-0.00101043701171875	2583.65779947689
0.23895263671875	-0.00101531982421875	2584.54280947466
0.234527587890625	-0.0010198974609375	2585.42781947242
0.2301025390625	-0.00102294921875	2586.31282947019
0.225677490234375	-0.00102874755859375	2587.19783946795
0.22125244140625	-0.00103363037109375	2588.08284946572
0.216827392578125	-0.00103851318359375	2588.96785946348
0.21240234375	-0.0010430908203125	2589.85286946125
0.207977294921875	-0.0010479736328125	2590.73787945902
0.20355224609375	-0.00105316162109375	2591.62288945678
0.199127197265625	-0.00105804443359375	2592.50789945455
0.1947021484375	-0.00106292724609375	2593.39290945231
0.190277099609375	-0.00106842041015625	2594.27791945008
0.18585205078125	-0.00107421875	2595.16292944784
0.181427001953125	-0.00107940673828125	2596.04793944561
0.177001953125	-0.00108551025390625	2596.93294944337
0.172576904296875	-0.00109130859375	2597.81795944114
0.16815185546875	-0.00109710693359375	2598.70296943891
0.163726806640625	-0.0011029052734375	2599.58797943667
0.1593017578125	-0.00110992431640625	2600.47298943444
0.154876708984375	-0.00111541748046875	2601.3579994322
0.15045166015625	-0.00112274169921875	2602.24300942997
0.146026611328125	-0.00113006591796875	2603.12801942773
0.1416015625	-0.0011370849609375	2604.0130294255
0.137176513671875	-0.001143798828125	2604.89803942326
0.13275146484375	-0.00115142822265625	2605.78304942103
0.128326416015625	-0.00115875244140625	2606.6680594188
0.1239013671875	-0.00116668701171875	2607.55306941656
0.119476318359375	-0.00117431640625	2608.43807941433
0.11505126953125	-0.0011810302734375	2609.32308941209
0.110626220703125	-0.00118927001953125	2610.20809940986
0.106201171875	-0.00119720458984375	2611.09310940762
0.101776123046875	-0.00120574951171875	2611.97811940539
0.09735107421875	-0.0012139892578125	2612.86312940315
0.092926025390625	-0.00122222900390625	2613.74813940092
0.0885009765625	-0.00123046875	2614.63314939869
0.084075927734375	-0.00123870849609375	2615.51815939645
0.07965087890625	-0.00124664306640625	2616.40316939422
0.075225830078125	-0.001253662109375	2617.28817939198
0.07080078125	-0.00126220703125	2618.17318938975
0.066375732421875	-0.0012701416015625	2619.05819938751
0.06195068359375	-0.00127838134765625	2619.94320938528
0.057525634765625	-0.00128692626953125	2620.82821938304
0.0531005859375	-0.0012945556640625	2621.71322938081
0.048675537109375	-0.0013031005859375	2622.59823937858
0.04425048828125	-0.0013116455078125	2623.48324937634
0.039825439453125	-0.00132080078125	2624.36825937411
0.035400390625	-0.00132965087890625	2625.25326937187
0.030975341796875	-0.00133880615234375	2626.13827936964
0.02655029296875	-0.0013482666015625	2627.0232893674
0.022125244140625	-0.001358642578125	2627.90829936517
0.0177001953125	-0.00136962890625	2628.79330936293
0.013275146484375	-0.00138031005859375	2629.6783193607
0.00885009765625	-0.0013916015625	2630.56332935847
0.004425048828125	-0.00140350341796875	2631.44833935623
0	-0.00141632080078125	2632.333349354
0.004425048828125	-0.00077362060546875	2633.21835935176
0.00885009765625	-0.000359893798828125	2634.10336934953
0.013275146484375	-8.0352783203125E-05	2634.98837934729
0.0177001953125	0.000115478515625	2635.87338934506
0.022125244140625	0.000257293701171875	2636.75839934283
0.02655029296875	0.00036248779296875	2637.64340934059
0.030975341796875	0.000441619873046875	2638.52841933836
0.035400390625	0.000504119873046875	2639.41342933612
0.039825439453125	0.00055145263671875	2640.29843933389
0.04425048828125	0.00059027099609375	2641.18344933165
0.048675537109375	0.00062139892578125	2642.06845932942
0.0531005859375	0.00064727783203125	2642.95346932718
0.057525634765625	0.00066741943359375	2643.83847932495
0.06195068359375	0.0006854248046875	2644.72348932272
0.066375732421875	0.0007000732421875	2645.60849932048
0.07080078125	0.00071197509765625	2646.49350931825
0.075225830078125	0.00072265625	2647.37851931601
0.07965087890625	0.0007305908203125	2648.26352931378
0.084075927734375	0.00073822021484375	2649.14853931154
0.0885009765625	0.00074432373046875	2650.03354930931
0.092926025390625	0.00074981689453125	2650.91855930707
0.09735107421875	0.0007550048828125	2651.80356930484
0.101776123046875	0.0007586669921875	2652.6885793026
0.106201171875	0.00076171875	2653.57358930037
0.110626220703125	0.0007647705078125	2654.45859929814
0.11505126953125	0.0007672119140625	2655.3436092959
0.119476318359375	0.0007684326171875	2656.22861929367
0.1239013671875	0.00077056884765625	2657.11362929143
0.128326416015625	0.00077239990234375	2657.9986392892
0.13275146484375	0.00077362060546875	2658.88364928696
0.137176513671875	0.000775146484375	2659.76865928473
0.1416015625	0.00077606201171875	2660.6536692825
0.146026611328125	0.00077728271484375	2661.53867928026
0.15045166015625	0.00077880859375	2662.42368927803
0.154876708984375	0.00077972412109375	2663.30869927579
0.1593017578125	0.000780029296875	2664.19370927356
0.163726806640625	0.00078155517578125	2665.07871927132
0.16815185546875	0.00078216552734375	2665.96372926909
0.172576904296875	0.00078338623046875	2666.84873926685
0.177001953125	0.00078399658203125	2667.73374926462
0.181427001953125	0.00078521728515625	2668.61875926239
0.18585205078125	0.0007861328125	2669.50376926015
0.190277099609375	0.00078765869140625	2670.38877925792
0.1947021484375	0.00078887939453125	2671.27378925568
0.199127197265625	0.00079010009765625	2672.15879925345
0.20355224609375	0.000791015625	2673.04380925121
0.207977294921875	0.00079254150390625	2673.92881924898
0.21240234375	0.00079376220703125	2674.81382924674
0.216827392578125	0.0007952880859375	2675.69883924451
0.22125244140625	0.000797119140625	2676.58384924228
0.225677490234375	0.00079833984375	2677.46885924004
0.2301025390625	0.000799560546875	2678.35386923781
0.234527587890625	0.00080047607421875	2679.23887923557
0.23895263671875	0.000802001953125	2680.12388923334
0.243377685546875	0.000804443359375	2681.0088992311
0.247802734375	0.00080596923828125	2681.89390922887
0.252227783203125	0.00080780029296875	2682.77891922663
0.25665283203125	0.000809326171875	2683.6639292244
0.261077880859375	0.00081146240234375	2684.54893922217
0.2655029296875	0.00081298828125	2685.43394921993
0.269927978515625	0.0008148193359375	2686.3189592177
0.27435302734375	0.00081634521484375	2687.20396921546
0.278778076171875	0.00081817626953125	2688.08897921323
0.283203125	0.00082000732421875	2688.97398921099
0.287628173828125	0.00082275390625	2689.85899920876
0.29205322265625	0.0008245849609375	2690.74400920652
0.296478271484375	0.000826416015625	2691.62901920429
0.3009033203125	0.00082855224609375	2692.51402920206
0.305328369140625	0.000830078125	2693.39903919982
0.30975341796875	0.0008319091796875	2694.28404919759
0.314178466796875	0.00083526611328125	2695.16905919535
0.318603515625	0.00083648681640625	2696.05406919312
0.323028564453125	0.00083740234375	2696.93907919088
0.32745361328125	0.00083892822265625	2697.82408918865
0.331878662109375	0.00084014892578125	2698.70909918641
0.3363037109375	0.0008416748046875	2699.59410918418
0.340728759765625	0.0008428955078125	2700.47911918195
0.34515380859375	0.0008441162109375	2701.36412917971
0.349578857421875	0.0008453369140625	2702.24913917748
0.35400390625	0.00084503173828125	2703.13414917524
0.358428955078125	0.00084686279296875	2704.01915917301
0.36285400390625	0.0008477783203125	2704.90416917077
0.367279052734375	0.00084869384765625	2705.78917916854
0.3717041015625	0.0008489990234375	2706.6741891663
0.376129150390625	0.00084991455078125	2707.55919916407
0.38055419921875	0.000849609375	2708.44420916184
0.384979248046875	0.00084991455078125	2709.3292191596
0.389404296875	0.00084991455078125	2710.21422915737
0.393829345703125	0.0008489990234375	2711.09923915513
0.39825439453125	0.00084869384765625	2711.9842491529
0.402679443359375	0.00084869384765625	2712.86925915066
0.4071044921875	0.0008477783203125	2713.75426914843
0.411529541015625	0.00084716796875	2714.63927914619
0.41595458984375	0.00084625244140625	2715.52428914396
0.420379638671875	0.00084564208984375	2716.40929914173
0.4248046875	0.0008447265625	2717.29430913949
0.429229736328125	0.0008441162109375	2718.17931913726
0.43365478515625	0.00084320068359375	2719.06432913502
0.438079833984375	0.00084259033203125	2719.94933913279
0.4425048828125	0.00084197998046875	2720.83434913055
0.446929931640625	0.000841064453125	2721.71935912832
0.45135498046875	0.00084075927734375	2722.60436912608
0.455780029296875	0.00083953857421875	2723.48937912385
0.460205078125	0.000838623046875	2724.37438912162
0.464630126953125	0.0008380126953125	2725.25939911938
0.46905517578125	0.00083709716796875	2726.14440911715
0.473480224609375	0.000836181640625	2727.02941911491
0.4779052734375	0.0008355712890625	2727.91442911268
0.482330322265625	0.0008349609375	2728.79943911044
0.48675537109375	0.00083465576171875	2729.68444910821
0.491180419921875	0.00083404541015625	2730.56945910597
0.49560546875	0.00083343505859375	2731.45446910374
0.500030517578125	0.00083282470703125	2732.33947910151
0.50445556640625	0.00083251953125	2733.22448909927
0.508880615234375	0.00083221435546875	2734.10949909704
0.5133056640625	0.0008319091796875	2734.9945090948
0.517730712890625	0.0008319091796875	2735.87951909257
0.52215576171875	0.00083160400390625	2736.76452909033
0.526580810546875	0.00083160400390625	2737.6495390881
0.531005859375	0.00083160400390625	2738.53454908586
0.535430908203125	0.000831298828125	2739.41955908363
0.53985595703125	0.0008319091796875	2740.3045690814
0.544281005859375	0.00083221435546875	2741.18957907916
0.5487060546875	0.00083221435546875	2742.07458907693
0.553131103515625	0.0008331298828125	2742.95959907469
0.55755615234375	0.000833740234375	2743.84460907246
0.561981201171875	0.00083526611328125	2744.72961907022
0.56640625	0.00083648681640625	2745.61462906799
0.570831298828125	0.00083770751953125	2746.49963906576
0.57525634765625	0.00083892822265625	2747.38464906352
0.579681396484375	0.0008404541015625	2748.26965906129
0.5841064453125	0.00084228515625	2749.15466905905
0.588531494140625	0.00084259033203125	2750.03967905682
0.59295654296875	0.0008453369140625	2750.92468905458
0.597381591796875	0.00084716796875	2751.80969905235
0.601806640625	0.0008502197265625	2752.69470905011
0.606231689453125	0.00085235595703125	2753.57971904788
0.61065673828125	0.00085540771484375	2754.46472904565
0.615081787109375	0.0008575439453125	2755.34973904341
0.6195068359375	0.00086090087890625	2756.23474904118
0.623931884765625	0.00086395263671875	2757.11975903894
0.62835693359375	0.0008697509765625	2758.00476903671
0.632781982421875	0.0008721923828125	2758.88977903447
0.63720703125	0.0008746337890625	2759.77478903224
0.641632080078125	0.00087860107421875	2760.65979903
0.64605712890625	0.00088165283203125	2761.54480902777
0.650482177734375	0.00088623046875	2762.42981902553
0.6549072265625	0.0008905029296875	2763.3148290233
0.659332275390625	0.00089447021484375	2764.19983902107
0.66375732421875	0.00089935302734375	2765.08484901883
0.668182373046875	0.00090423583984375	2765.9698590166
0.672607421875	0.000909423828125	2766.85486901436
0.677032470703125	0.00091461181640625	2767.73987901213
0.68145751953125	0.00092041015625	2768.62488900989
0.685882568359375	0.00092559814453125	2769.50989900766
0.6903076171875	0.0009320068359375	2770.39490900543
0.694732666015625	0.00093780517578125	2771.27991900319
0.69915771484375	0.00094482421875	2772.16492900096
0.703582763671875	0.00095062255859375	2773.04993899872
0.7080078125	0.000958251953125	2773.93494899649
0.712432861328125	0.00096588134765625	2774.81995899425
0.71685791015625	0.0009735107421875	2775.70496899202
0.721282958984375	0.0009814453125	2776.58997898978
0.7257080078125	0.000989990234375	2777.47498898755
0.730133056640625	0.0009991455078125	2778.35999898532
0.73455810546875	0.00100830078125	2779.24500898308
0.738983154296875	0.00101806640625	2780.13001898085
0.743408203125	0.00102752685546875	2781.01502897861
0.747833251953125	0.00103912353515625	2781.90003897638
0.75225830078125	0.0010504150390625	2782.78504897414
0.756683349609375	0.00106292724609375	2783.67005897191
0.7611083984375	0.00107574462890625	2784.55506896967
0.765533447265625	0.00108917236328125	2785.44007896744
0.76995849609375	0.00110321044921875	2786.32508896521
0.774383544921875	0.00111785888671875	2787.21009896297
0.77880859375	0.0011334228515625	2788.09510896074
0.783233642578125	0.00114898681640625	2788.9801189585
0.78765869140625	0.0011663818359375	2789.86512895627
0.792083740234375	0.00118377685546875	2790.75013895403
0.7965087890625	0.00120269775390625	2791.6351489518
0.800933837890625	0.00122314453125	2792.52015894956
0.80535888671875	0.001243896484375	2793.40516894733
0.809783935546875	0.0012652587890625	2794.2901789451
0.814208984375	0.0012884521484375	2795.17518894286
0.818634033203125	0.00131195068359375	2796.06019894063
0.82305908203125	0.001336669921875	2796.94520893839
0.827484130859375	0.0013629150390625	2797.83021893616
0.8319091796875	0.001390380859375	2798.71522893392
0.836334228515625	0.00141845703125	2799.60023893169
0.84075927734375	0.00144805908203125	2800.48524892945
0.845184326171875	0.0014788818359375	2801.37025892722
0.849609375	0.00151031494140625	2802.25526892499
0.854034423828125	0.00154388427734375	2803.14027892275
0.85845947265625	0.001578369140625	2804.02528892052
0.862884521484375	0.001612548828125	2804.91029891828
0.8673095703125	0.0016497802734375	2805.79530891605
0.871734619140625	0.00168792724609375	2806.68031891381
0.87615966796875	0.00172698974609375	2807.56532891158
0.880584716796875	0.0017669677734375	2808.45033890934
0.885009765625	0.0018084716796875	2809.33534890711
0.889434814453125	0.0018505859375	2810.22035890488
0.89385986328125	0.0018939208984375	2811.10536890264
0.898284912109375	0.0019384765625	2811.99037890041
0.9027099609375	0.00198394775390625	2812.87538889817
0.907135009765625	0.002030029296875	2813.76039889594
0.91156005859375	0.002076416015625	2814.6454088937
0.915985107421875	0.0021240234375	2815.53041889147
0.92041015625	0.0021722412109375	2816.41542888923
0.924835205078125	0.0022210693359375	2817.300438887
0.92926025390625	0.00227081298828125	2818.18544888477
0.933685302734375	0.00232147216796875	2819.07045888253
0.9381103515625	0.0023748779296875	2819.9554688803
0.942535400390625	0.00242523193359375	2820.84047887806
0.94696044921875	0.00247802734375	2821.72548887583
0.951385498046875	0.0025311279296875	2822.61049887359
0.955810546875	0.00258636474609375	2823.49550887136
0.960235595703125	0.00264373779296875	2824.38051886912
0.96466064453125	0.0027032470703125	2825.26552886689
0.969085693359375	0.00276580810546875	2826.15053886466
0.9735107421875	0.0028314208984375	2827.03554886242
0.977935791015625	0.00289947509765625	2827.92055886019
0.98236083984375	0.0029736328125	2828.80556885795
0.986785888671875	0.0030517578125	2829.69057885572
0.9912109375	0.0031353759765625	2830.57558885348
0.995635986328125	0.003223876953125	2831.46059885125
1.00006103515625	0.0033172607421875	2832.34560884901
0.995635986328125	0.0027001953125	2833.23061884678
0.9912109375	0.0022515869140625	2834.11562884455
0.986785888671875	0.001895751953125	2835.00063884231
0.98236083984375	0.0015997314453125	2835.88564884008
0.977935791015625	0.00134613037109375	2836.77065883784
0.9735107421875	0.0011279296875	2837.65566883561
0.969085693359375	0.0009332275390625	2838.54067883337
0.96466064453125	0.000760498046875	2839.42568883114
0.960235595703125	0.00060577392578125	2840.3106988289
0.955810546875	0.000467041015625	2841.19570882667
0.951385498046875	0.00034259033203125	2842.08071882444
0.94696044921875	0.0002294921875	2842.9657288222
0.942535400390625	0.00012701416015625	2843.85073881997
0.9381103515625	3.24615478515625E-05	2844.73574881773
0.933685302734375	-5.5206298828125E-05	2845.6207588155
0.92926025390625	-0.00013311767578125	2846.50576881326
0.924835205078125	-0.00020440673828125	2847.39077881103
0.92041015625	-0.000271026611328125	2848.27578880879
0.915985107421875	-0.000331695556640625	2849.16079880656
0.91156005859375	-0.000387725830078125	2850.04580880433
0.907135009765625	-0.000439727783203125	2850.93081880209
0.9027099609375	-0.000487701416015625	2851.81582879986
0.898284912109375	-0.000531646728515625	2852.70083879762
0.89385986328125	-0.000572265625	2853.58584879539
0.889434814453125	-0.000610260009765625	2854.47085879315
0.885009765625	-0.00064422607421875	2855.35586879092
0.880584716796875	-0.00067596435546875	2856.24087878869
0.87615966796875	-0.00070556640625	2857.12588878645
0.871734619140625	-0.00073272705078125	2858.01089878422
0.8673095703125	-0.000758056640625	2858.89590878198
0.862884521484375	-0.00078094482421875	2859.78091877975
0.85845947265625	-0.00080047607421875	2860.66592877751
0.854034423828125	-0.0008203125	2861.55093877528
0.849609375	-0.00083831787109375	2862.43594877304
0.845184326171875	-0.0008538818359375	2863.32095877081
0.84075927734375	-0.00086883544921875	2864.20596876858
0.836334228515625	-0.00088226318359375	2865.09097876634
0.8319091796875	-0.0008941650390625	2865.97598876411
0.827484130859375	-0.0009051513671875	2866.86099876187
0.82305908203125	-0.00091522216796875	2867.74600875964
0.818634033203125	-0.00092376708984375	2868.6310187574
0.814208984375	-0.00093231201171875	2869.51602875517
0.809783935546875	-0.00093902587890625	2870.40103875293
0.80535888671875	-0.0009454345703125	2871.2860487507
0.800933837890625	-0.000950927734375	2872.17105874846
0.7965087890625	-0.000955810546875	2873.05606874623
0.792083740234375	-0.0009600830078125	2873.941078744
0.78765869140625	-0.00096282958984375	2874.82608874176
0.783233642578125	-0.00096588134765625	2875.71109873953
0.77880859375	-0.00096710205078125	2876.59610873729
0.774383544921875	-0.0009686279296875	2877.48111873506
0.76995849609375	-0.00096954345703125	2878.36612873282
0.765533447265625	-0.000970458984375	2879.25113873059
0.7611083984375	-0.00097015380859375	2880.13614872836
0.756683349609375	-0.00096893310546875	2881.02115872612
0.75225830078125	-0.000968017578125	2881.90616872389
0.747833251953125	-0.00096527099609375	2882.79117872165
0.743408203125	-0.0009625244140625	2883.67618871942
0.738983154296875	-0.0009588623046875	2884.56119871718
0.73455810546875	-0.00095550537109375	2885.44620871495
0.730133056640625	-0.00095184326171875	2886.33121871271
0.7257080078125	-0.000948486328125	2887.21622871048
0.721282958984375	-0.000943603515625	2888.10123870825
0.71685791015625	-0.00093963623046875	2888.98624870601
0.712432861328125	-0.00093505859375	2889.87125870378
0.7080078125	-0.00093048095703125	2890.75626870154
0.703582763671875	-0.00092559814453125	2891.64127869931
0.69915771484375	-0.00092010498046875	2892.52628869707
0.694732666015625	-0.00091522216796875	2893.41129869484
0.6903076171875	-0.00091094970703125	2894.2963086926
0.685882568359375	-0.00090576171875	2895.18131869037
0.68145751953125	-0.00090118408203125	2896.06632868814
0.677032470703125	-0.0008966064453125	2896.9513386859
0.672607421875	-0.000892333984375	2897.83634868367
0.668182373046875	-0.00088775634765625	2898.72135868143
0.66375732421875	-0.00088287353515625	2899.6063686792
0.659332275390625	-0.00087921142578125	2900.49137867696
0.6549072265625	-0.000875244140625	2901.37638867473
0.650482177734375	-0.00087127685546875	2902.26139867249
0.64605712890625	-0.00086761474609375	2903.14640867026
0.641632080078125	-0.00086395263671875	2904.03141866803
0.63720703125	-0.00086029052734375	2904.91642866579
0.632781982421875	-0.00085693359375	2905.80143866356
0.62835693359375	-0.00085418701171875	2906.68644866132
0.623931884765625	-0.00085357666015625	2907.57145865909
0.6195068359375	-0.00084991455078125	2908.45646865685
0.615081787109375	-0.00084716796875	2909.34147865462
0.61065673828125	-0.0008441162109375	2910.22648865238
0.606231689453125	-0.00084197998046875	2911.11149865015
0.601806640625	-0.00084014892578125	2911.99650864792
0.597381591796875	-0.0008380126953125	2912.88151864568
0.59295654296875	-0.00083648681640625	2913.76652864345
0.588531494140625	-0.0008349609375	2914.65153864121
0.5841064453125	-0.00083251953125	2915.53654863898
0.579681396484375	-0.0008319091796875	2916.42155863674
0.57525634765625	-0.00083160400390625	2917.30656863451
0.570831298828125	-0.00083099365234375	2918.19157863227
0.56640625	-0.00083038330078125	2919.07658863004
0.561981201171875	-0.000830078125	2919.96159862781
0.55755615234375	-0.00082977294921875	2920.84660862557
0.553131103515625	-0.00082977294921875	2921.73161862334
0.5487060546875	-0.000830078125	2922.6166286211
0.544281005859375	-0.00082977294921875	2923.50163861887
0.53985595703125	-0.00083038330078125	2924.38664861663
0.535430908203125	-0.0008319091796875	2925.2716586144
0.531005859375	-0.00083221435546875	2926.15666861216
0.526580810546875	-0.000833740234375	2927.04167860993
0.52215576171875	-0.00083465576171875	2927.9266886077
0.517730712890625	-0.0008355712890625	2928.81169860546
0.5133056640625	-0.00083709716796875	2929.69670860323
0.508880615234375	-0.00083831787109375	2930.58171860099
0.50445556640625	-0.00084014892578125	2931.46672859876
0.500030517578125	-0.00084136962890625	2932.35173859652
0.49560546875	-0.00084320068359375	2933.23674859429
0.491180419921875	-0.0008447265625	2934.12175859205
0.48675537109375	-0.00084716796875	2935.00676858982
0.482330322265625	-0.00084930419921875	2935.89177858759
0.4779052734375	-0.000850830078125	2936.77678858535
0.473480224609375	-0.00085235595703125	2937.66179858312
0.46905517578125	-0.0008544921875	2938.54680858088
0.464630126953125	-0.00085601806640625	2939.43181857865
0.460205078125	-0.000858154296875	2940.31682857641
0.455780029296875	-0.0008599853515625	2941.20183857418
0.45135498046875	-0.00086151123046875	2942.08684857194
0.446929931640625	-0.00086334228515625	2942.97185856971
0.4425048828125	-0.00086517333984375	2943.85686856748
0.438079833984375	-0.00086669921875	2944.74187856524
0.43365478515625	-0.00086883544921875	2945.62688856301
0.429229736328125	-0.00087005615234375	2946.51189856077
0.4248046875	-0.00087188720703125	2947.39690855854
0.420379638671875	-0.00087371826171875	2948.2819185563
0.41595458984375	-0.0008746337890625	2949.16692855407
0.411529541015625	-0.00087646484375	2950.05193855183
0.4071044921875	-0.000877685546875	2950.9369485496
0.402679443359375	-0.00087982177734375	2951.82195854737
0.39825439453125	-0.00088104248046875	2952.70696854513
0.393829345703125	-0.00088287353515625	2953.5919785429
0.389404296875	-0.0008837890625	2954.47698854066
0.384979248046875	-0.00088653564453125	2955.36199853843
0.38055419921875	-0.00088836669921875	2956.24700853619
0.376129150390625	-0.00089019775390625	2957.13201853396
0.3717041015625	-0.000892333984375	2958.01702853172
0.367279052734375	-0.00089447021484375	2958.90203852949
0.36285400390625	-0.00089691162109375	2959.78704852726
0.358428955078125	-0.00089935302734375	2960.67205852502
0.35400390625	-0.00090179443359375	2961.55706852279
0.349578857421875	-0.00090240478515625	2962.44207852055
0.34515380859375	-0.00090606689453125	2963.32708851832
0.340728759765625	-0.0009088134765625	2964.21209851608
0.3363037109375	-0.00091217041015625	2965.09710851385
0.331878662109375	-0.00091522216796875	2965.98211851162
0.32745361328125	-0.0009185791015625	2966.86712850938
0.323028564453125	-0.00092132568359375	2967.75213850715
0.318603515625	-0.00092529296875	2968.63714850491
0.314178466796875	-0.0009283447265625	2969.52215850268
0.30975341796875	-0.000933837890625	2970.40716850044
0.305328369140625	-0.0009368896484375	2971.29217849821
0.3009033203125	-0.00093963623046875	2972.17718849597
0.296478271484375	-0.00094329833984375	2973.06219849374
0.29205322265625	-0.00094696044921875	2973.94720849151
0.287628173828125	-0.000950927734375	2974.83221848927
0.283203125	-0.00095489501953125	2975.71722848704
0.278778076171875	-0.0009588623046875	2976.6022384848
0.27435302734375	-0.000963134765625	2977.48724848257
0.269927978515625	-0.00096710205078125	2978.37225848033
0.2655029296875	-0.0009716796875	2979.2572684781
0.261077880859375	-0.00097564697265625	2980.14227847586
0.25665283203125	-0.00097991943359375	2981.02728847363
0.252227783203125	-0.0009844970703125	2981.91229847139
0.247802734375	-0.00098876953125	2982.79730846916
0.243377685546875	-0.00099273681640625	2983.68231846693
0.23895263671875	-0.00099761962890625	2984.56732846469
0.234527587890625	-0.001002197265625	2985.45233846246
0.2301025390625	-0.00100555419921875	2986.33734846022
0.225677490234375	-0.0010107421875	2987.22235845799
0.22125244140625	-0.00101531982421875	2988.10736845575
0.216827392578125	-0.0010198974609375	2988.99237845352
0.21240234375	-0.00102508544921875	2989.87738845129
0.207977294921875	-0.00102935791015625	2990.76239844905
0.20355224609375	-0.00103424072265625	2991.64740844682
0.199127197265625	-0.00103973388671875	2992.53241844458
0.1947021484375	-0.0010443115234375	2993.41742844235
0.190277099609375	-0.0010498046875	2994.30243844011
0.18585205078125	-0.00105499267578125	2995.18744843788
0.181427001953125	-0.00106048583984375	2996.07245843564
0.177001953125	-0.00106597900390625	2996.95746843341
0.172576904296875	-0.00107177734375	2997.84247843118
0.16815185546875	-0.00107818603515625	2998.72748842894
0.163726806640625	-0.00108428955078125	2999.61249842671
0.1593017578125	-0.00109039306640625	3000.49750842447
0.154876708984375	-0.00109588623046875	3001.38251842224
0.15045166015625	-0.0011029052734375	3002.26752842
0.146026611328125	-0.00110992431640625	3003.15253841777
0.1416015625	-0.001116943359375	3004.03754841553
0.137176513671875	-0.00112396240234375	3004.9225584133
0.13275146484375	-0.00113128662109375	3005.80756841107
0.128326416015625	-0.00113861083984375	3006.69257840883
0.1239013671875	-0.001146240234375	3007.5775884066
0.119476318359375	-0.00115386962890625	3008.46259840436
0.11505126953125	-0.0011602783203125	3009.34760840213
0.110626220703125	-0.0011688232421875	3010.23261839989
0.106201171875	-0.0011767578125	3011.11762839766
0.101776123046875	-0.001185302734375	3012.00263839542
0.09735107421875	-0.00119384765625	3012.88764839319
0.092926025390625	-0.001202392578125	3013.77265839096
0.0885009765625	-0.00121063232421875	3014.65766838872
0.084075927734375	-0.0012188720703125	3015.54267838649
0.07965087890625	-0.00122772216796875	3016.42768838425
0.075225830078125	-0.0012347412109375	3017.31269838202
0.07080078125	-0.00124420166015625	3018.19770837978
0.066375732421875	-0.00125213623046875	3019.08271837755
0.06195068359375	-0.00126129150390625	3019.96772837531
0.057525634765625	-0.00126983642578125	3020.85273837308
0.0531005859375	-0.00127899169921875	3021.73774837085
0.048675537109375	-0.00128814697265625	3022.62275836861
0.04425048828125	-0.00129791259765625	3023.50776836638
0.039825439453125	-0.00130706787109375	3024.39277836414
0.035400390625	-0.00131744384765625	3025.27778836191
0.030975341796875	-0.00132720947265625	3026.16279835967
0.02655029296875	-0.001339111328125	3027.04780835744
0.022125244140625	-0.00134979248046875	3027.9328183552
0.0177001953125	-0.00136138916015625	3028.81782835297
0.013275146484375	-0.0013739013671875	3029.70283835074
0.00885009765625	-0.00138641357421875	3030.5878483485
0.004425048828125	-0.00139984130859375	3031.47285834627
0	-0.00141326904296875	3032.35786834403
0.004425048828125	-0.0007720947265625	3033.2428783418
0.00885009765625	-0.000359405517578125	3034.12788833956
0.013275146484375	-8.001708984375E-05	3035.01289833733
