Potential applied (V)	WE(1).Current (A)	Time (s)
0.004425048828125	-0.0081573486328125	4019.55248885161
0.00885009765625	-0.0075103759765625	4019.57461385155
0.013275146484375	-0.006878662109375	4019.59673885149
0.0177001953125	-0.0062591552734375	4019.61886385144
0.022125244140625	-0.00565185546875	4019.64098885138
0.02655029296875	-0.005059814453125	4019.66311385133
0.030975341796875	-0.004478759765625	4019.68523885127
0.035400390625	-0.003905029296875	4019.70736385121
0.039825439453125	-0.0033404541015625	4019.72948885116
0.04425048828125	-0.00278533935546875	4019.7516138511
0.048675537109375	-0.00223846435546875	4019.77373885105
0.0531005859375	-0.001708984375	4019.79586385099
0.057525634765625	-0.00117706298828125	4019.81798885094
0.06195068359375	-0.00065338134765625	4019.84011385088
0.066375732421875	-0.0001370849609375	4019.86223885082
0.07080078125	0.00037127685546875	4019.88436385077
0.075225830078125	0.00087310791015625	4019.90648885071
0.07965087890625	0.00136627197265625	4019.92861385066
0.084075927734375	0.00185455322265625	4019.9507388506
0.0885009765625	0.00233673095703125	4019.97286385054
0.092926025390625	0.0028118896484375	4019.99498885049
0.09735107421875	0.003280029296875	4020.01711385043
0.101776123046875	0.0037420654296875	4020.03923885038
0.106201171875	0.00419769287109375	4020.06136385032
0.110626220703125	0.00464691162109375	4020.08348885026
0.11505126953125	0.00508941650390625	4020.10561385021
0.119476318359375	0.005523681640625	4020.12773885015
0.1239013671875	0.00595703125	4020.1498638501
0.128326416015625	0.006383056640625	4020.17198885004
0.13275146484375	0.0067901611328125	4020.19411384999
0.137176513671875	0.0072052001953125	4020.21623884993
0.1416015625	0.0076141357421875	4020.23836384987
0.146026611328125	0.008013916015625	4020.26048884982
0.15045166015625	0.00841064453125	4020.28261384976
0.154876708984375	0.00880126953125	4020.30473884971
0.1593017578125	0.0091888427734375	4020.32686384965
0.163726806640625	0.0095672607421875	4020.34898884959
0.16815185546875	0.009942626953125	4020.37111384954
0.172576904296875	0.0103118896484375	4020.39323884948
0.177001953125	0.0106781005859375	4020.41536384943
0.181427001953125	0.01103515625	4020.43748884937
0.18585205078125	0.01138916015625	4020.45961384932
0.190277099609375	0.0117401123046875	4020.48173884926
0.1947021484375	0.0120849609375	4020.5038638492
0.199127197265625	0.0124237060546875	4020.52598884915
0.20355224609375	0.0127593994140625	4020.54811384909
0.207977294921875	0.0130889892578125	4020.57023884904
0.21240234375	0.01341552734375	4020.59236384898
0.216827392578125	0.013739013671875	4020.61448884892
0.22125244140625	0.014056396484375	4020.63661384887
0.225677490234375	0.01436767578125	4020.65873884881
0.2301025390625	0.0146759033203125	4020.68086384876
0.234527587890625	0.0149749755859375	4020.7029888487
0.23895263671875	0.0152740478515625	4020.72511384864
0.243377685546875	0.015570068359375	4020.74723884859
0.247802734375	0.01585693359375	4020.76936384853
0.252227783203125	0.016143798828125	4020.79148884848
0.25665283203125	0.016424560546875	4020.81361384842
0.261077880859375	0.0167022705078125	4020.83573884837
0.2655029296875	0.016973876953125	4020.85786384831
0.269927978515625	0.0172393798828125	4020.87998884825
0.27435302734375	0.0175048828125	4020.9021138482
0.278778076171875	0.017767333984375	4020.92423884814
0.283203125	0.0180206298828125	4020.94636384809
0.287628173828125	0.01827392578125	4020.96848884803
0.29205322265625	0.0185211181640625	4020.99061384797
0.296478271484375	0.0187652587890625	4021.01273884792
0.3009033203125	0.01900634765625	4021.03486384786
0.305328369140625	0.019244384765625	4021.05698884781
0.30975341796875	0.019476318359375	4021.07911384775
0.314178466796875	0.019708251953125	4021.1012388477
0.318603515625	0.01993408203125	4021.12336384764
0.323028564453125	0.0201568603515625	4021.14548884758
0.32745361328125	0.0203704833984375	4021.16761384753
0.331878662109375	0.0205841064453125	4021.18973884747
0.3363037109375	0.0207977294921875	4021.21186384742
0.340728759765625	0.02100830078125	4021.23398884736
0.34515380859375	0.0212127685546875	4021.2561138473
0.349578857421875	0.0214141845703125	4021.27823884725
0.35400390625	0.021612548828125	4021.30036384719
0.358428955078125	0.0218048095703125	4021.32248884714
0.36285400390625	0.0219940185546875	4021.34461384708
0.367279052734375	0.02218017578125	4021.36673884702
0.3717041015625	0.0223602294921875	4021.38886384697
0.376129150390625	0.0225433349609375	4021.41098884691
0.38055419921875	0.0227264404296875	4021.43311384686
0.384979248046875	0.0229095458984375	4021.4552388468
0.389404296875	0.02308349609375	4021.47736384675
0.393829345703125	0.023248291015625	4021.49948884669
0.39825439453125	0.0234100341796875	4021.52161384663
0.402679443359375	0.0235748291015625	4021.54373884658
0.4071044921875	0.0237457275390625	4021.56586384652
0.411529541015625	0.0239105224609375	4021.58798884647
0.41595458984375	0.0240692138671875	4021.61011384641
0.420379638671875	0.0242218017578125	4021.63223884635
0.4248046875	0.024371337890625	4021.6543638463
0.429229736328125	0.0245208740234375	4021.67648884624
0.43365478515625	0.024664306640625	4021.69861384619
0.438079833984375	0.0248077392578125	4021.72073884613
0.4425048828125	0.0249481201171875	4021.74286384608
0.446929931640625	0.02508544921875	4021.76498884602
0.45135498046875	0.0252227783203125	4021.78711384596
0.455780029296875	0.0253570556640625	4021.80923884591
0.460205078125	0.02548828125	4021.83136384585
0.464630126953125	0.0256195068359375	4021.8534888458
0.46905517578125	0.0257476806640625	4021.87561384574
0.473480224609375	0.0258697509765625	4021.89773884568
0.4779052734375	0.0259918212890625	4021.91986384563
0.482330322265625	0.0261138916015625	4021.94198884557
0.48675537109375	0.02623291015625	4021.96411384552
0.491180419921875	0.0263519287109375	4021.98623884546
0.49560546875	0.02646484375	4022.00836384541
0.500030517578125	0.0265777587890625	4022.03048884535
0.50445556640625	0.0266876220703125	4022.05261384529
0.508880615234375	0.0267974853515625	4022.07473884524
0.5133056640625	0.026904296875	4022.09686384518
0.517730712890625	0.0270111083984375	4022.11898884513
0.52215576171875	0.0271148681640625	4022.14111384507
0.526580810546875	0.0272186279296875	4022.16323884501
0.531005859375	0.0273193359375	4022.18536384496
0.535430908203125	0.0274169921875	4022.2074888449
0.53985595703125	0.0275146484375	4022.22961384485
0.544281005859375	0.0276092529296875	4022.25173884479
0.5487060546875	0.027703857421875	4022.27386384473
0.553131103515625	0.02779541015625	4022.29598884468
0.55755615234375	0.027886962890625	4022.31811384462
0.561981201171875	0.0279754638671875	4022.34023884457
0.56640625	0.02806396484375	4022.36236384451
0.570831298828125	0.0281494140625	4022.38448884446
0.57525634765625	0.02823486328125	4022.4066138444
0.579681396484375	0.0283172607421875	4022.42873884434
0.5841064453125	0.028399658203125	4022.45086384429
0.588531494140625	0.02847900390625	4022.47298884423
0.59295654296875	0.0285552978515625	4022.49511384418
0.597381591796875	0.0286346435546875	4022.51723884412
0.601806640625	0.0287109375	4022.53936384406
0.606231689453125	0.0287841796875	4022.56148884401
0.61065673828125	0.028857421875	4022.58361384395
0.615081787109375	0.0289306640625	4022.6057388439
0.6195068359375	0.028997802734375	4022.62786384384
0.623931884765625	0.0290679931640625	4022.64998884379
0.62835693359375	0.0291412353515625	4022.67211384373
0.632781982421875	0.029205322265625	4022.69423884367
0.63720703125	0.0292755126953125	4022.71636384362
0.641632080078125	0.0293365478515625	4022.73848884356
0.64605712890625	0.02939453125	4022.76061384351
0.650482177734375	0.02945556640625	4022.78273884345
0.6549072265625	0.0295135498046875	4022.80486384339
0.659332275390625	0.0295684814453125	4022.82698884334
0.66375732421875	0.0296234130859375	4022.84911384328
0.668182373046875	0.0296783447265625	4022.87123884323
0.672607421875	0.029730224609375	4022.89336384317
0.677032470703125	0.0297821044921875	4022.91548884311
0.68145751953125	0.0298309326171875	4022.93761384306
0.685882568359375	0.0298797607421875	4022.959738843
0.6903076171875	0.0299285888671875	4022.98186384295
0.694732666015625	0.029974365234375	4023.00398884289
0.69915771484375	0.0300201416015625	4023.02611384284
0.703582763671875	0.030059814453125	4023.04823884278
0.7080078125	0.0301055908203125	4023.07036384272
0.712432861328125	0.0301483154296875	4023.09248884267
0.71685791015625	0.03018798828125	4023.11461384261
0.721282958984375	0.030230712890625	4023.13673884256
0.7257080078125	0.030267333984375	4023.1588638425
0.730133056640625	0.0303009033203125	4023.18098884244
0.73455810546875	0.03033447265625	4023.20311384239
0.738983154296875	0.03037109375	4023.22523884233
0.743408203125	0.030401611328125	4023.24736384228
0.747833251953125	0.0304351806640625	4023.26948884222
0.75225830078125	0.0304656982421875	4023.29161384217
0.756683349609375	0.0304962158203125	4023.31373884211
0.7611083984375	0.030523681640625	4023.33586384205
0.765533447265625	0.0305511474609375	4023.357988842
0.76995849609375	0.0305816650390625	4023.38011384194
0.774383544921875	0.030609130859375	4023.40223884189
0.77880859375	0.030633544921875	4023.42436384183
0.783233642578125	0.030657958984375	4023.44648884177
0.78765869140625	0.030682373046875	4023.46861384172
0.792083740234375	0.030706787109375	4023.49073884166
0.7965087890625	0.030731201171875	4023.51286384161
0.800933837890625	0.0307525634765625	4023.53498884155
0.80535888671875	0.0307769775390625	4023.55711384149
0.809783935546875	0.0307952880859375	4023.57923884144
0.814208984375	0.030816650390625	4023.60136384138
0.818634033203125	0.0308380126953125	4023.62348884133
0.82305908203125	0.030859375	4023.64561384127
0.827484130859375	0.030877685546875	4023.66773884122
0.8319091796875	0.03089599609375	4023.68986384116
0.836334228515625	0.0309173583984375	4023.7119888411
0.84075927734375	0.030938720703125	4023.73411384105
0.845184326171875	0.0309600830078125	4023.75623884099
0.849609375	0.030975341796875	4023.77836384094
0.854034423828125	0.03099365234375	4023.80048884088
0.85845947265625	0.0310150146484375	4023.82261384082
0.862884521484375	0.0310333251953125	4023.84473884077
0.8673095703125	0.0310516357421875	4023.86686384071
0.871734619140625	0.031072998046875	4023.88898884066
0.87615966796875	0.03109130859375	4023.9111138406
0.880584716796875	0.031109619140625	4023.93323884055
0.885009765625	0.031134033203125	4023.95536384049
0.889434814453125	0.03115234375	4023.97748884043
0.89385986328125	0.0311737060546875	4023.99961384038
0.898284912109375	0.031195068359375	4024.02173884032
0.9027099609375	0.0312164306640625	4024.04386384027
0.907135009765625	0.0312408447265625	4024.06598884021
0.91156005859375	0.0312652587890625	4024.08811384015
0.915985107421875	0.03128662109375	4024.1102388401
0.92041015625	0.03131103515625	4024.13236384004
0.924835205078125	0.0313385009765625	4024.15448883999
0.92926025390625	0.031365966796875	4024.17661383993
0.933685302734375	0.031396484375	4024.19873883987
0.9381103515625	0.0314300537109375	4024.22086383982
0.942535400390625	0.0314605712890625	4024.24298883976
0.94696044921875	0.0314910888671875	4024.26511383971
0.951385498046875	0.031524658203125	4024.28723883965
0.955810546875	0.0315582275390625	4024.3093638396
0.960235595703125	0.031591796875	4024.33148883954
0.96466064453125	0.0316314697265625	4024.35361383948
0.969085693359375	0.031671142578125	4024.37573883943
0.9735107421875	0.0317108154296875	4024.39786383937
0.977935791015625	0.03175048828125	4024.41998883932
0.98236083984375	0.031793212890625	4024.44211383926
0.986785888671875	0.0318389892578125	4024.4642388392
0.9912109375	0.031884765625	4024.48636383915
0.995635986328125	0.0319366455078125	4024.50848883909
1.00006103515625	0.0319854736328125	4024.53061383904
0.995635986328125	0.0308990478515625	4024.55273883898
0.9912109375	0.02984619140625	4024.57486383893
0.986785888671875	0.0288360595703125	4024.59698883887
0.98236083984375	0.0278472900390625	4024.61911383881
0.977935791015625	0.026885986328125	4024.64123883876
0.9735107421875	0.0259521484375	4024.6633638387
0.969085693359375	0.0250335693359375	4024.68548883865
0.96466064453125	0.0241363525390625	4024.70761383859
0.960235595703125	0.023260498046875	4024.72973883853
0.955810546875	0.02239990234375	4024.75186383848
0.951385498046875	0.0215606689453125	4024.77398883842
0.94696044921875	0.0207366943359375	4024.79611383837
0.942535400390625	0.019927978515625	4024.81823883831
0.9381103515625	0.019134521484375	4024.84036383826
0.933685302734375	0.0183502197265625	4024.8624888382
0.92926025390625	0.0175872802734375	4024.88461383814
0.924835205078125	0.0168365478515625	4024.90673883809
0.92041015625	0.0160980224609375	4024.92886383803
0.915985107421875	0.0153778076171875	4024.95098883798
0.91156005859375	0.014666748046875	4024.97311383792
0.907135009765625	0.0139678955078125	4024.99523883786
0.9027099609375	0.01328125	4025.01736383781
0.898284912109375	0.0126068115234375	4025.03948883775
0.89385986328125	0.011944580078125	4025.0616138377
0.889434814453125	0.01129150390625	4025.08373883764
0.885009765625	0.0106536865234375	4025.10586383758
0.880584716796875	0.01002197265625	4025.12798883753
0.87615966796875	0.0093994140625	4025.15011383747
0.871734619140625	0.0087890625	4025.17223883742
0.8673095703125	0.0081878662109375	4025.19436383736
0.862884521484375	0.007598876953125	4025.21648883731
0.85845947265625	0.00701904296875	4025.23861383725
0.854034423828125	0.0064453125	4025.26073883719
0.849609375	0.0058837890625	4025.28286383714
0.845184326171875	0.005328369140625	4025.30498883708
0.84075927734375	0.00478363037109375	4025.32711383703
0.836334228515625	0.0042462158203125	4025.34923883697
0.8319091796875	0.00371795654296875	4025.37136383691
0.827484130859375	0.00319854736328125	4025.39348883686
0.82305908203125	0.00268646240234375	4025.4156138368
0.818634033203125	0.00218414306640625	4025.43773883675
0.814208984375	0.00168701171875	4025.45986383669
0.809783935546875	0.0011981201171875	4025.48198883664
0.80535888671875	0.000716552734375	4025.50411383658
0.800933837890625	0.0002421875	4025.52623883652
0.7965087890625	-0.000224334716796875	4025.54836383647
0.792083740234375	-0.00068328857421875	4025.57048883641
0.78765869140625	-0.00113494873046875	4025.59261383636
0.783233642578125	-0.00157989501953125	4025.6147388363
0.77880859375	-0.00201751708984375	4025.63686383624
0.774383544921875	-0.00244720458984375	4025.65898883619
0.76995849609375	-0.00287139892578125	4025.68111383613
0.765533447265625	-0.0032891845703125	4025.70323883608
0.7611083984375	-0.00370025634765625	4025.72536383602
0.756683349609375	-0.00410400390625	4025.74748883596
0.75225830078125	-0.004501953125	4025.76961383591
0.747833251953125	-0.004892578125	4025.79173883585
0.743408203125	-0.00527801513671875	4025.8138638358
0.738983154296875	-0.00565399169921875	4025.83598883574
0.73455810546875	-0.0060272216796875	4025.85811383569
0.730133056640625	-0.0063690185546875	4025.88023883563
0.7257080078125	-0.0067291259765625	4025.90236383557
0.721282958984375	-0.0070831298828125	4025.92448883552
0.71685791015625	-0.0074310302734375	4025.94661383546
0.712432861328125	-0.00777587890625	4025.96873883541
0.7080078125	-0.0081085205078125	4025.99086383535
0.703582763671875	-0.0084381103515625	4026.01298883529
0.69915771484375	-0.0087615966796875	4026.03511383524
0.694732666015625	-0.00908203125	4026.05723883518
0.6903076171875	-0.0093963623046875	4026.07936383513
0.685882568359375	-0.00970458984375	4026.10148883507
0.68145751953125	-0.010009765625	4026.12361383502
0.677032470703125	-0.0103118896484375	4026.14573883496
0.672607421875	-0.0106048583984375	4026.1678638349
0.668182373046875	-0.010894775390625	4026.18998883485
0.66375732421875	-0.011175537109375	4026.21211383479
0.659332275390625	-0.011456298828125	4026.23423883474
0.6549072265625	-0.01173095703125	4026.25636383468
0.650482177734375	-0.0120025634765625	4026.27848883462
0.64605712890625	-0.01226806640625	4026.30061383457
0.641632080078125	-0.0125274658203125	4026.32273883451
0.63720703125	-0.012786865234375	4026.34486383446
0.632781982421875	-0.0130401611328125	4026.3669888344
0.62835693359375	-0.013287353515625	4026.38911383434
0.623931884765625	-0.0135406494140625	4026.41123883429
0.6195068359375	-0.01378173828125	4026.43336383423
0.615081787109375	-0.0140167236328125	4026.45548883418
0.61065673828125	-0.01424560546875	4026.47761383412
0.606231689453125	-0.0144744873046875	4026.49973883407
0.601806640625	-0.0147003173828125	4026.52186383401
0.597381591796875	-0.014923095703125	4026.54398883395
0.59295654296875	-0.0151397705078125	4026.5661138339
0.588531494140625	-0.0153564453125	4026.58823883384
0.5841064453125	-0.0155670166015625	4026.61036383379
0.579681396484375	-0.0157684326171875	4026.63248883373
0.57525634765625	-0.015972900390625	4026.65461383367
0.570831298828125	-0.01617431640625	4026.67673883362
0.56640625	-0.0163726806640625	4026.69886383356
0.561981201171875	-0.016571044921875	4026.72098883351
0.55755615234375	-0.0167724609375	4026.74311383345
0.553131103515625	-0.016961669921875	4026.76523883339
0.5487060546875	-0.0171478271484375	4026.78736383334
0.544281005859375	-0.017327880859375	4026.80948883328
0.53985595703125	-0.017510986328125	4026.83161383323
0.535430908203125	-0.01768798828125	4026.85373883317
0.531005859375	-0.017864990234375	4026.87586383312
0.526580810546875	-0.018035888671875	4026.89798883306
0.52215576171875	-0.0181976318359375	4026.920113833
0.517730712890625	-0.0183624267578125	4026.94223883295
0.5133056640625	-0.0185272216796875	4026.96436383289
0.508880615234375	-0.018695068359375	4026.98648883284
0.50445556640625	-0.018865966796875	4027.00861383278
0.500030517578125	-0.0190277099609375	4027.03073883272
0.49560546875	-0.0191864013671875	4027.05286383267
0.491180419921875	-0.019342041015625	4027.07498883261
0.48675537109375	-0.0194976806640625	4027.09711383256
0.482330322265625	-0.0196502685546875	4027.1192388325
0.4779052734375	-0.0197998046875	4027.14136383245
0.473480224609375	-0.0199462890625	4027.16348883239
0.46905517578125	-0.0200958251953125	4027.18561383233
0.464630126953125	-0.0202392578125	4027.20773883228
0.460205078125	-0.0203765869140625	4027.22986383222
0.455780029296875	-0.0205230712890625	4027.25198883217
0.45135498046875	-0.0206634521484375	4027.27411383211
0.446929931640625	-0.02080078125	4027.29623883205
0.4425048828125	-0.0209381103515625	4027.318363832
0.438079833984375	-0.0210723876953125	4027.34048883194
0.43365478515625	-0.0212066650390625	4027.36261383189
0.429229736328125	-0.021337890625	4027.38473883183
0.4248046875	-0.02147216796875	4027.40686383177
0.420379638671875	-0.021600341796875	4027.42898883172
0.41595458984375	-0.021728515625	4027.45111383166
0.411529541015625	-0.021856689453125	4027.47323883161
0.4071044921875	-0.021978759765625	4027.49536383155
0.402679443359375	-0.02210693359375	4027.5174888315
0.39825439453125	-0.02222900390625	4027.53961383144
0.393829345703125	-0.0223541259765625	4027.56173883138
0.389404296875	-0.02247314453125	4027.58386383133
0.384979248046875	-0.02259521484375	4027.60598883127
0.38055419921875	-0.0227142333984375	4027.62811383122
0.376129150390625	-0.0228363037109375	4027.65023883116
0.3717041015625	-0.0229522705078125	4027.67236383111
0.367279052734375	-0.0230682373046875	4027.69448883105
0.36285400390625	-0.023187255859375	4027.71661383099
0.358428955078125	-0.02330322265625	4027.73873883094
0.35400390625	-0.023419189453125	4027.76086383088
0.349578857421875	-0.0235260009765625	4027.78298883083
0.34515380859375	-0.0236419677734375	4027.80511383077
