Potential applied (V)	WE(1).Current (A)	Time (s)
0.004425048828125	-0.00154052734375	3641.36747780643
0.00885009765625	-0.000946044921875	3641.58872980587
0.013275146484375	-0.000431304931640625	3641.80998180531
0.0177001953125	2.069091796875E-05	3642.03123380476
0.022125244140625	0.000420074462890625	3642.2524858042
0.02655029296875	0.00077484130859375	3642.47373780364
0.030975341796875	0.00109100341796875	3642.69498980308
0.035400390625	0.001373291015625	3642.91624180252
0.039825439453125	0.001624755859375	3643.13749380196
0.04425048828125	0.00185150146484375	3643.3587458014
0.048675537109375	0.0020538330078125	3643.57999780084
0.0531005859375	0.00223480224609375	3643.80124980029
0.057525634765625	0.002396240234375	3644.02250179973
0.06195068359375	0.0025396728515625	3644.24375379917
0.066375732421875	0.0026690673828125	3644.46500579861
0.07080078125	0.0027874755859375	3644.68625779805
0.075225830078125	0.00289337158203125	3644.90750979749
0.07965087890625	0.00298736572265625	3645.12876179693
0.084075927734375	0.00307342529296875	3645.35001379638
0.0885009765625	0.00314971923828125	3645.57126579582
0.092926025390625	0.0032177734375	3645.79251779526
0.09735107421875	0.00327880859375	3646.0137697947
0.101776123046875	0.00333221435546875	3646.23502179414
0.106201171875	0.00338043212890625	3646.45627379358
0.110626220703125	0.0034228515625	3646.67752579302
0.11505126953125	0.0034600830078125	3646.89877779247
0.119476318359375	0.0034912109375	3647.12002979191
0.1239013671875	0.00351959228515625	3647.34128179135
0.128326416015625	0.00354461669921875	3647.56253379079
0.13275146484375	0.0035662841796875	3647.78378579023
0.137176513671875	0.003585205078125	3648.00503778967
0.1416015625	0.00360107421875	3648.22628978911
0.146026611328125	0.0036151123046875	3648.44754178856
0.15045166015625	0.00362701416015625	3648.668793788
0.154876708984375	0.00363677978515625	3648.89004578744
0.1593017578125	0.00364349365234375	3649.11129778688
0.163726806640625	0.00364990234375	3649.33254978632
0.16815185546875	0.00365570068359375	3649.55380178576
0.172576904296875	0.00365997314453125	3649.7750537852
0.177001953125	0.00366241455078125	3649.99630578465
0.181427001953125	0.00366424560546875	3650.21755778409
0.18585205078125	0.003665771484375	3650.43880978353
0.190277099609375	0.0036663818359375	3650.66006178297
0.1947021484375	0.0036669921875	3650.88131378241
0.199127197265625	0.0036663818359375	3651.10256578185
0.20355224609375	0.0036663818359375	3651.32381778129
0.207977294921875	0.00366546630859375	3651.54506978074
0.21240234375	0.00366485595703125	3651.76632178018
0.216827392578125	0.00366363525390625	3651.98757377962
0.22125244140625	0.00366241455078125	3652.20882577906
0.225677490234375	0.0036614990234375	3652.4300777785
0.2301025390625	0.00365936279296875	3652.65132977794
0.234527587890625	0.00365631103515625	3652.87258177738
0.23895263671875	0.00365631103515625	3653.09383377682
0.243377685546875	0.00365509033203125	3653.31508577627
0.247802734375	0.0036529541015625	3653.53633777571
0.252227783203125	0.00365234375	3653.75758977515
0.25665283203125	0.00365142822265625	3653.97884177459
0.261077880859375	0.0036505126953125	3654.20009377403
0.2655029296875	0.00364990234375	3654.42134577347
0.269927978515625	0.00364959716796875	3654.64259777291
0.27435302734375	0.00364898681640625	3654.86384977236
0.278778076171875	0.00364898681640625	3655.0851017718
0.283203125	0.003648681640625	3655.30635377124
0.287628173828125	0.0036492919921875	3655.52760577068
0.29205322265625	0.00364898681640625	3655.74885777012
0.296478271484375	0.00364898681640625	3655.97010976956
0.3009033203125	0.00364959716796875	3656.191361769
0.305328369140625	0.00365020751953125	3656.41261376845
0.30975341796875	0.003651123046875	3656.63386576789
0.314178466796875	0.003656005859375	3656.85511776733
0.318603515625	0.0036566162109375	3657.07636976677
0.323028564453125	0.0036578369140625	3657.29762176621
0.32745361328125	0.00365875244140625	3657.51887376565
0.331878662109375	0.0036602783203125	3657.74012576509
0.3363037109375	0.00366241455078125	3657.96137776454
0.340728759765625	0.00366424560546875	3658.18262976398
0.34515380859375	0.00366607666015625	3658.40388176342
0.349578857421875	0.003668212890625	3658.62513376286
0.35400390625	0.00366790771484375	3658.8463857623
0.358428955078125	0.003670654296875	3659.06763776174
0.36285400390625	0.00367279052734375	3659.28888976118
0.367279052734375	0.0036749267578125	3659.51014176063
0.3717041015625	0.0036773681640625	3659.73139376007
0.376129150390625	0.0036798095703125	3659.95264575951
0.38055419921875	0.00368194580078125	3660.17389775895
0.384979248046875	0.00368377685546875	3660.39514975839
0.389404296875	0.00368560791015625	3660.61640175783
0.393829345703125	0.003685302734375	3660.83765375727
0.39825439453125	0.0036871337890625	3661.05890575671
0.402679443359375	0.0036883544921875	3661.28015775616
0.4071044921875	0.00368896484375	3661.5014097556
0.411529541015625	0.0036883544921875	3661.72266175504
0.41595458984375	0.00368804931640625	3661.94391375448
0.420379638671875	0.00368743896484375	3662.16516575392
0.4248046875	0.00368621826171875	3662.38641775336
0.429229736328125	0.003685302734375	3662.6076697528
0.43365478515625	0.00368377685546875	3662.82892175225
0.438079833984375	0.003681640625	3663.05017375169
0.4425048828125	0.00367919921875	3663.27142575113
0.446929931640625	0.0036773681640625	3663.49267775057
0.45135498046875	0.0036749267578125	3663.71392975001
0.455780029296875	0.00367218017578125	3663.93518174945
0.460205078125	0.00366912841796875	3664.15643374889
0.464630126953125	0.00366668701171875	3664.37768574834
0.46905517578125	0.0036627197265625	3664.59893774778
0.473480224609375	0.0036602783203125	3664.82018974722
0.4779052734375	0.0036578369140625	3665.04144174666
0.482330322265625	0.00365509033203125	3665.2626937461
0.48675537109375	0.0036517333984375	3665.48394574554
0.491180419921875	0.00364898681640625	3665.70519774498
0.49560546875	0.00364593505859375	3665.92644974443
0.500030517578125	0.0036431884765625	3666.14770174387
0.50445556640625	0.00364013671875	3666.36895374331
0.508880615234375	0.003636474609375	3666.59020574275
0.5133056640625	0.00363311767578125	3666.81145774219
0.517730712890625	0.00362945556640625	3667.03270974163
0.52215576171875	0.00362640380859375	3667.25396174107
0.526580810546875	0.003623046875	3667.47521374052
0.531005859375	0.003619384765625	3667.69646573996
0.535430908203125	0.00361602783203125	3667.9177177394
0.53985595703125	0.00361175537109375	3668.13896973884
0.544281005859375	0.0036083984375	3668.36022173828
0.5487060546875	0.00360382080078125	3668.58147373772
0.553131103515625	0.00360076904296875	3668.80272573716
0.55755615234375	0.003597412109375	3669.02397773661
0.561981201171875	0.00359375	3669.24522973605
0.56640625	0.00359100341796875	3669.46648173549
0.570831298828125	0.0035888671875	3669.68773373493
0.57525634765625	0.003585205078125	3669.90898573437
0.579681396484375	0.00358306884765625	3670.13023773381
0.5841064453125	0.0035809326171875	3670.35148973325
0.588531494140625	0.00357635498046875	3670.57274173269
0.59295654296875	0.003575439453125	3670.79399373214
0.597381591796875	0.00357421875	3671.01524573158
0.601806640625	0.00357330322265625	3671.23649773102
0.606231689453125	0.003572998046875	3671.45774973046
0.61065673828125	0.00357330322265625	3671.6790017299
0.615081787109375	0.0035736083984375	3671.90025372934
0.6195068359375	0.00357391357421875	3672.12150572878
0.623931884765625	0.00357574462890625	3672.34275772823
0.62835693359375	0.00358184814453125	3672.56400972767
0.632781982421875	0.00358306884765625	3672.78526172711
0.63720703125	0.003585205078125	3673.00651372655
0.641632080078125	0.003587646484375	3673.22776572599
0.64605712890625	0.0035906982421875	3673.44901772543
0.650482177734375	0.0035943603515625	3673.67026972487
0.6549072265625	0.00359832763671875	3673.89152172432
0.659332275390625	0.003603515625	3674.11277372376
0.66375732421875	0.00360931396484375	3674.3340257232
0.668182373046875	0.00361480712890625	3674.55527772264
0.672607421875	0.0036212158203125	3674.77652972208
0.677032470703125	0.0036285400390625	3674.99778172152
0.68145751953125	0.00363616943359375	3675.21903372096
0.685882568359375	0.0036444091796875	3675.44028572041
0.6903076171875	0.00365325927734375	3675.66153771985
0.694732666015625	0.00366302490234375	3675.88278971929
0.69915771484375	0.00367279052734375	3676.10404171873
0.703582763671875	0.00368133544921875	3676.32529371817
0.7080078125	0.0036932373046875	3676.54654571761
0.712432861328125	0.003704833984375	3676.76779771705
0.71685791015625	0.00371734619140625	3676.9890497165
0.721282958984375	0.00373016357421875	3677.21030171594
0.7257080078125	0.00374359130859375	3677.43155371538
0.730133056640625	0.00375762939453125	3677.65280571482
0.73455810546875	0.00377288818359375	3677.87405771426
0.738983154296875	0.00378814697265625	3678.0953097137
0.743408203125	0.0038018798828125	3678.31656171314
0.747833251953125	0.003819580078125	3678.53781371258
0.75225830078125	0.00383636474609375	3678.75906571203
0.756683349609375	0.00385528564453125	3678.98031771147
0.7611083984375	0.00387420654296875	3679.20156971091
0.765533447265625	0.00389373779296875	3679.42282171035
0.76995849609375	0.003914794921875	3679.64407370979
0.774383544921875	0.0039361572265625	3679.86532570923
0.77880859375	0.00395782470703125	3680.08657770867
0.783233642578125	0.00398040771484375	3680.30782970812
0.78765869140625	0.00400421142578125	3680.52908170756
0.792083740234375	0.00402923583984375	3680.750333707
0.7965087890625	0.0040557861328125	3680.97158570644
0.800933837890625	0.00408233642578125	3681.19283770588
0.80535888671875	0.0041107177734375	3681.41408970532
0.809783935546875	0.0041400146484375	3681.63534170476
0.814208984375	0.004169921875	3681.85659370421
0.818634033203125	0.00420196533203125	3682.07784570365
0.82305908203125	0.0042340087890625	3682.29909770309
0.827484130859375	0.00426849365234375	3682.52034970253
0.8319091796875	0.00430389404296875	3682.74160170197
0.836334228515625	0.0043408203125	3682.96285370141
0.84075927734375	0.00437896728515625	3683.18410570085
0.845184326171875	0.00441864013671875	3683.4053577003
0.849609375	0.0044598388671875	3683.62660969974
0.854034423828125	0.00450225830078125	3683.84786169918
0.85845947265625	0.004547119140625	3684.06911369862
0.862884521484375	0.0045916748046875	3684.29036569806
0.8673095703125	0.0046392822265625	3684.5116176975
0.871734619140625	0.0046881103515625	3684.73286969694
0.87615966796875	0.00473968505859375	3684.95412169639
0.880584716796875	0.0047918701171875	3685.17537369583
0.885009765625	0.00484619140625	3685.39662569527
0.889434814453125	0.00490203857421875	3685.61787769471
0.89385986328125	0.004959716796875	3685.83912969415
0.898284912109375	0.005018310546875	3686.06038169359
0.9027099609375	0.00507843017578125	3686.28163369303
0.907135009765625	0.00514129638671875	3686.50288569248
0.91156005859375	0.00520416259765625	3686.72413769192
0.915985107421875	0.00527008056640625	3686.94538969136
0.92041015625	0.0053369140625	3687.1666416908
0.924835205078125	0.0054052734375	3687.38789369024
0.92926025390625	0.00547393798828125	3687.60914568968
0.933685302734375	0.00554473876953125	3687.83039768912
0.9381103515625	0.0056207275390625	3688.05164968856
0.942535400390625	0.00569427490234375	3688.27290168801
0.94696044921875	0.005767822265625	3688.49415368745
0.951385498046875	0.005843505859375	3688.71540568689
0.955810546875	0.00592010498046875	3688.93665768633
0.960235595703125	0.0059979248046875	3689.15790968577
0.96466064453125	0.00607635498046875	3689.37916168521
0.969085693359375	0.006146240234375	3689.60041368465
0.9735107421875	0.0062225341796875	3689.8216656841
0.977935791015625	0.0062957763671875	3690.04291768354
0.98236083984375	0.0063751220703125	3690.26416968298
0.986785888671875	0.00645751953125	3690.48542168242
0.9912109375	0.0065399169921875	3690.70667368186
0.995635986328125	0.006622314453125	3690.9279256813
1.00006103515625	0.006707763671875	3691.14917768074
0.995635986328125	0.005816650390625	3691.37042968019
0.9912109375	0.0050445556640625	3691.59168167963
0.986785888671875	0.00436126708984375	3691.81293367907
0.98236083984375	0.00374755859375	3692.03418567851
0.977935791015625	0.00319122314453125	3692.25543767795
0.9735107421875	0.002686767578125	3692.47668967739
0.969085693359375	0.0022222900390625	3692.69794167683
0.96466064453125	0.001795654296875	3692.91919367628
0.960235595703125	0.00140228271484375	3693.14044567572
0.955810546875	0.001038818359375	3693.36169767516
0.951385498046875	0.00070220947265625	3693.5829496746
0.94696044921875	0.000390716552734375	3693.80420167404
0.942535400390625	0.00010137939453125	3694.02545367348
0.9381103515625	-0.000167449951171875	3694.24670567292
0.933685302734375	-0.00042071533203125	3694.46795767237
0.92926025390625	-0.0006524658203125	3694.68920967181
0.924835205078125	-0.000867919921875	3694.91046167125
0.92041015625	-0.0010687255859375	3695.13171367069
0.915985107421875	-0.00125518798828125	3695.35296567013
0.91156005859375	-0.00142913818359375	3695.57421766957
0.907135009765625	-0.00159088134765625	3695.79546966901
0.9027099609375	-0.00174224853515625	3696.01672166845
0.898284912109375	-0.0018829345703125	3696.2379736679
0.89385986328125	-0.0020147705078125	3696.45922566734
0.889434814453125	-0.0021368408203125	3696.68047766678
0.885009765625	-0.00225067138671875	3696.90172966622
0.880584716796875	-0.0023565673828125	3697.12298166566
0.87615966796875	-0.0024554443359375	3697.3442336651
0.871734619140625	-0.002547607421875	3697.56548566454
0.8673095703125	-0.00263336181640625	3697.78673766399
0.862884521484375	-0.00271270751953125	3698.00798966343
0.85845947265625	-0.0027850341796875	3698.22924166287
0.854034423828125	-0.00285369873046875	3698.45049366231
0.849609375	-0.00291717529296875	3698.67174566175
0.845184326171875	-0.0029754638671875	3698.89299766119
0.84075927734375	-0.00302978515625	3699.11424966063
0.836334228515625	-0.00307952880859375	3699.33550166008
0.8319091796875	-0.0031256103515625	3699.55675365952
0.827484130859375	-0.003167724609375	3699.77800565896
0.82305908203125	-0.003206787109375	3699.9992576584
0.818634033203125	-0.00324188232421875	3700.22050965784
0.814208984375	-0.003275146484375	3700.44176165728
0.809783935546875	-0.00330474853515625	3700.66301365672
0.80535888671875	-0.0033319091796875	3700.88426565617
0.800933837890625	-0.00335662841796875	3701.10551765561
0.7965087890625	-0.0033795166015625	3701.32676965505
0.792083740234375	-0.00339996337890625	3701.54802165449
0.78765869140625	-0.00341827392578125	3701.76927365393
0.783233642578125	-0.00343475341796875	3701.99052565337
0.77880859375	-0.0034490966796875	3702.21177765281
0.774383544921875	-0.00346221923828125	3702.43302965226
0.76995849609375	-0.0034747314453125	3702.6542816517
0.765533447265625	-0.003485107421875	3702.87553365114
0.7611083984375	-0.003494873046875	3703.09678565058
0.756683349609375	-0.00350311279296875	3703.31803765002
0.75225830078125	-0.0035107421875	3703.53928964946
0.747833251953125	-0.00351654052734375	3703.7605416489
0.743408203125	-0.00352203369140625	3703.98179364835
0.738983154296875	-0.0035235595703125	3704.20304564779
0.73455810546875	-0.00352752685546875	3704.42429764723
0.730133056640625	-0.0035302734375	3704.64554964667
0.7257080078125	-0.00353240966796875	3704.86680164611
0.721282958984375	-0.00353424072265625	3705.08805364555
0.71685791015625	-0.00353485107421875	3705.30930564499
0.712432861328125	-0.0035345458984375	3705.53055764443
0.7080078125	-0.00353424072265625	3705.75180964388
0.703582763671875	-0.00353179931640625	3705.97306164332
0.69915771484375	-0.00352783203125	3706.19431364276
0.694732666015625	-0.00352691650390625	3706.4155656422
0.6903076171875	-0.0035272216796875	3706.63681764164
0.685882568359375	-0.00352386474609375	3706.85806964108
0.68145751953125	-0.00352142333984375	3707.07932164052
0.677032470703125	-0.00351898193359375	3707.30057363997
0.672607421875	-0.00351531982421875	3707.52182563941
0.668182373046875	-0.0035125732421875	3707.74307763885
0.66375732421875	-0.003509521484375	3707.96432963829
0.659332275390625	-0.0035052490234375	3708.18558163773
0.6549072265625	-0.00350189208984375	3708.40683363717
0.650482177734375	-0.00349822998046875	3708.62808563661
0.64605712890625	-0.0034942626953125	3708.84933763606
0.641632080078125	-0.00349029541015625	3709.0705896355
0.63720703125	-0.0034869384765625	3709.29184163494
0.632781982421875	-0.00348358154296875	3709.51309363438
0.62835693359375	-0.00347991943359375	3709.73434563382
0.623931884765625	-0.0034814453125	3709.95559763326
0.6195068359375	-0.00347747802734375	3710.1768496327
0.615081787109375	-0.0034747314453125	3710.39810163215
0.61065673828125	-0.0034716796875	3710.61935363159
0.606231689453125	-0.00346893310546875	3710.84060563103
0.601806640625	-0.003466796875	3711.06185763047
0.597381591796875	-0.00346527099609375	3711.28310962991
0.59295654296875	-0.0034637451171875	3711.50436162935
0.588531494140625	-0.0034625244140625	3711.72561362879
0.5841064453125	-0.00345977783203125	3711.94686562824
0.579681396484375	-0.00345977783203125	3712.16811762768
0.57525634765625	-0.00345947265625	3712.38936962712
0.570831298828125	-0.00345977783203125	3712.61062162656
0.56640625	-0.00346099853515625	3712.831873626
0.561981201171875	-0.00346221923828125	3713.05312562544
0.55755615234375	-0.00346405029296875	3713.27437762488
0.553131103515625	-0.00346527099609375	3713.49562962432
0.5487060546875	-0.00346832275390625	3713.71688162377
0.544281005859375	-0.00346954345703125	3713.93813362321
0.53985595703125	-0.00347259521484375	3714.15938562265
0.535430908203125	-0.0034765625	3714.38063762209
0.531005859375	-0.003480224609375	3714.60188962153
0.526580810546875	-0.0034844970703125	3714.82314162097
0.52215576171875	-0.00348876953125	3715.04439362041
0.517730712890625	-0.00349395751953125	3715.26564561986
0.5133056640625	-0.00349945068359375	3715.4868976193
0.508880615234375	-0.00350555419921875	3715.70814961874
0.50445556640625	-0.0035113525390625	3715.92940161818
0.500030517578125	-0.00351806640625	3716.15065361762
0.49560546875	-0.003524169921875	3716.37190561706
0.491180419921875	-0.0035321044921875	3716.5931576165
0.48675537109375	-0.003538818359375	3716.81440961595
0.482330322265625	-0.003546142578125	3717.03566161539
0.4779052734375	-0.00355438232421875	3717.25691361483
0.473480224609375	-0.00356292724609375	3717.47816561427
0.46905517578125	-0.00357147216796875	3717.69941761371
0.464630126953125	-0.00357940673828125	3717.92066961315
0.460205078125	-0.0035882568359375	3718.14192161259
0.455780029296875	-0.003597412109375	3718.36317361204
0.45135498046875	-0.0036077880859375	3718.58442561148
0.446929931640625	-0.00361724853515625	3718.80567761092
0.4425048828125	-0.0036273193359375	3719.02692961036
0.438079833984375	-0.00363677978515625	3719.2481816098
0.43365478515625	-0.00364715576171875	3719.46943360924
0.429229736328125	-0.00365692138671875	3719.69068560868
0.4248046875	-0.0036676025390625	3719.91193760813
0.420379638671875	-0.00367828369140625	3720.13318960757
0.41595458984375	-0.0036883544921875	3720.35444160701
0.411529541015625	-0.00369842529296875	3720.57569360645
0.4071044921875	-0.0037091064453125	3720.79694560589
0.402679443359375	-0.003719482421875	3721.01819760533
0.39825439453125	-0.00372955322265625	3721.23944960477
0.393829345703125	-0.00374053955078125	3721.46070160422
0.389404296875	-0.00374847412109375	3721.68195360366
0.384979248046875	-0.0037591552734375	3721.9032056031
0.38055419921875	-0.00376983642578125	3722.12445760254
0.376129150390625	-0.0037799072265625	3722.34570960198
0.3717041015625	-0.00379058837890625	3722.56696160142
0.367279052734375	-0.003800048828125	3722.78821360086
0.36285400390625	-0.00381011962890625	3723.0094656003
0.358428955078125	-0.00381988525390625	3723.23071759975
0.35400390625	-0.00383026123046875	3723.45196959919
0.349578857421875	-0.00383758544921875	3723.67322159863
0.34515380859375	-0.00384796142578125	3723.89447359807
0.340728759765625	-0.0038580322265625	3724.11572559751
0.3363037109375	-0.003868408203125	3724.33697759695
0.331878662109375	-0.00387847900390625	3724.55822959639
0.32745361328125	-0.003887939453125	3724.77948159584
0.323028564453125	-0.00389801025390625	3725.00073359528
0.318603515625	-0.003907470703125	3725.22198559472
0.314178466796875	-0.003917236328125	3725.44323759416
0.30975341796875	-0.0039306640625	3725.6644895936
0.305328369140625	-0.0039398193359375	3725.88574159304
0.3009033203125	-0.00394989013671875	3726.10699359248
0.296478271484375	-0.0039605712890625	3726.32824559193
0.29205322265625	-0.00397003173828125	3726.54949759137
0.287628173828125	-0.00398040771484375	3726.77074959081
0.283203125	-0.00399139404296875	3726.99200159025
0.278778076171875	-0.00400146484375	3727.21325358969
0.27435302734375	-0.0040118408203125	3727.43450558913
0.269927978515625	-0.004022216796875	3727.65575758857
0.2655029296875	-0.00403350830078125	3727.87700958802
0.261077880859375	-0.00404449462890625	3728.09826158746
0.25665283203125	-0.00405517578125	3728.3195135869
0.252227783203125	-0.0040667724609375	3728.54076558634
0.247802734375	-0.0040789794921875	3728.76201758578
0.243377685546875	-0.0040899658203125	3728.98326958522
0.23895263671875	-0.0041015625	3729.20452158466
0.234527587890625	-0.0041143798828125	3729.42577358411
0.2301025390625	-0.00412506103515625	3729.64702558355
0.225677490234375	-0.00413726806640625	3729.86827758299
0.22125244140625	-0.0041497802734375	3730.08952958243
0.216827392578125	-0.0041619873046875	3730.31078158187
0.21240234375	-0.0041748046875	3730.53203358131
0.207977294921875	-0.0041876220703125	3730.75328558075
0.20355224609375	-0.004200439453125	3730.97453758019
0.199127197265625	-0.0042132568359375	3731.19578957964
0.1947021484375	-0.00422515869140625	3731.41704157908
0.190277099609375	-0.00423858642578125	3731.63829357852
0.18585205078125	-0.00425262451171875	3731.85954557796
0.181427001953125	-0.00426605224609375	3732.0807975774
0.177001953125	-0.00427978515625	3732.30204957684
0.172576904296875	-0.00429412841796875	3732.52330157628
0.16815185546875	-0.00430877685546875	3732.74455357573
0.163726806640625	-0.00432281494140625	3732.96580557517
0.1593017578125	-0.0043377685546875	3733.18705757461
0.154876708984375	-0.00435150146484375	3733.40830957405
0.15045166015625	-0.00436767578125	3733.62956157349
0.146026611328125	-0.004383544921875	3733.85081357293
0.1416015625	-0.00440032958984375	3734.07206557237
0.137176513671875	-0.00441619873046875	3734.29331757182
0.13275146484375	-0.00443359375	3734.51456957126
0.128326416015625	-0.00445068359375	3734.7358215707
0.1239013671875	-0.0044683837890625	3734.95707357014
0.119476318359375	-0.00448638916015625	3735.17832556958
0.11505126953125	-0.00450286865234375	3735.39957756902
0.110626220703125	-0.004521484375	3735.62082956846
0.106201171875	-0.00454132080078125	3735.84208156791
0.101776123046875	-0.004561767578125	3736.06333356735
0.09735107421875	-0.0045819091796875	3736.28458556679
0.092926025390625	-0.00460357666015625	3736.50583756623
0.0885009765625	-0.004625244140625	3736.72708956567
0.084075927734375	-0.00464691162109375	3736.94834156511
0.07965087890625	-0.00466949462890625	3737.16959356455
0.075225830078125	-0.0046905517578125	3737.390845564
0.07080078125	-0.00471435546875	3737.61209756344
0.066375732421875	-0.00473846435546875	3737.83334956288
0.06195068359375	-0.00476287841796875	3738.05460156232
0.057525634765625	-0.00478790283203125	3738.27585356176
0.0531005859375	-0.00481353759765625	3738.4971055612
0.048675537109375	-0.00483917236328125	3738.71835756064
0.04425048828125	-0.00486541748046875	3738.93960956009
0.039825439453125	-0.0048919677734375	3739.16086155953
0.035400390625	-0.0049188232421875	3739.38211355897
0.030975341796875	-0.0049462890625	3739.60336555841
0.02655029296875	-0.00497528076171875	3739.82461755785
0.022125244140625	-0.0050030517578125	3740.04586955729
0.0177001953125	-0.00503204345703125	3740.26712155673
0.013275146484375	-0.0050616455078125	3740.48837355617
0.00885009765625	-0.00509185791015625	3740.70962555562
0.004425048828125	-0.0051220703125	3740.93087755506
0	-0.00515380859375	3741.1521295545
0.004425048828125	-0.00421875	3741.37338155394
0.00885009765625	-0.003408203125	3741.59463355338
0.013275146484375	-0.0026959228515625	3741.81588555282
0.0177001953125	-0.00206390380859375	3742.03713755226
0.022125244140625	-0.0015008544921875	3742.25838955171
0.02655029296875	-0.0009967041015625	3742.47964155115
0.030975341796875	-0.0005438232421875	3742.70089355059
0.035400390625	-0.000136016845703125	3742.92214555003
0.039825439453125	0.0002313232421875	3743.14339754947
0.04425048828125	0.00056304931640625	3743.36464954891
0.048675537109375	0.0008636474609375	3743.58590154835
0.0531005859375	0.00113494873046875	3743.8071535478
0.057525634765625	0.00138153076171875	3744.02840554724
0.06195068359375	0.00160400390625	3744.24965754668
0.066375732421875	0.00180450439453125	3744.47090954612
0.07080078125	0.001986083984375	3744.69216154556
0.075225830078125	0.00215057373046875	3744.913413545
0.07965087890625	0.00229736328125	3745.13466554444
0.084075927734375	0.00242919921875	3745.35591754389
0.0885009765625	0.002547607421875	3745.57716954333
0.092926025390625	0.0026580810546875	3745.79842154277
0.09735107421875	0.0027587890625	3746.01967354221
0.101776123046875	0.00284942626953125	3746.24092554165
0.106201171875	0.00293060302734375	3746.46217754109
0.110626220703125	0.0030029296875	3746.68342954053
0.11505126953125	0.00306884765625	3746.90468153998
0.119476318359375	0.00312469482421875	3747.12593353942
0.1239013671875	0.003177490234375	3747.34718553886
0.128326416015625	0.00322479248046875	3747.5684375383
0.13275146484375	0.00326629638671875	3747.78968953774
0.137176513671875	0.00330352783203125	3748.01094153718
0.1416015625	0.00333648681640625	3748.23219353662
0.146026611328125	0.00336578369140625	3748.45344553606
0.15045166015625	0.00339111328125	3748.67469753551
0.154876708984375	0.003414306640625	3748.89594953495
0.1593017578125	0.00343292236328125	3749.11720153439
0.163726806640625	0.003450927734375	3749.33845353383
0.16815185546875	0.00346588134765625	3749.55970553327
0.172576904296875	0.00347900390625	3749.78095753271
0.177001953125	0.0034906005859375	3750.00220953215
0.181427001953125	0.0035003662109375	3750.2234615316
0.18585205078125	0.00350830078125	3750.44471353104
0.190277099609375	0.00351531982421875	3750.66596553048
0.1947021484375	0.003521728515625	3750.88721752992
0.199127197265625	0.00352630615234375	3751.10846952936
0.20355224609375	0.00353057861328125	3751.3297215288
0.207977294921875	0.00353424072265625	3751.55097352824
0.21240234375	0.00353668212890625	3751.77222552769
0.216827392578125	0.0035394287109375	3751.99347752713
0.22125244140625	0.00354156494140625	3752.21472952657
0.225677490234375	0.00354278564453125	3752.43598152601
0.2301025390625	0.00354400634765625	3752.65723352545
0.234527587890625	0.00354339599609375	3752.87848552489
0.23895263671875	0.00354400634765625	3753.09973752433
0.243377685546875	0.00354583740234375	3753.32098952378
0.247802734375	0.00354644775390625	3753.54224152322
0.252227783203125	0.003546142578125	3753.76349352266
0.25665283203125	0.00354644775390625	3753.9847455221
0.261077880859375	0.003546142578125	3754.20599752154
0.2655029296875	0.00354644775390625	3754.42724952098
0.269927978515625	0.0035479736328125	3754.64850152042
0.27435302734375	0.0035479736328125	3754.86975351987
0.278778076171875	0.00354766845703125	3755.09100551931
0.283203125	0.0035479736328125	3755.31225751875
0.287628173828125	0.0035479736328125	3755.53350951819
0.29205322265625	0.003548583984375	3755.75476151763
0.296478271484375	0.003548583984375	3755.97601351707
0.3009033203125	0.00354949951171875	3756.19726551651
0.305328369140625	0.0035504150390625	3756.41851751596
0.30975341796875	0.0035516357421875	3756.6397695154
0.314178466796875	0.00355560302734375	3756.86102151484
0.318603515625	0.00355621337890625	3757.08227351428
0.323028564453125	0.00355621337890625	3757.30352551372
0.32745361328125	0.00355682373046875	3757.52477751316
0.331878662109375	0.00355804443359375	3757.7460295126
0.3363037109375	0.00355926513671875	3757.96728151204
0.340728759765625	0.00356109619140625	3758.18853351149
0.34515380859375	0.00356170654296875	3758.40978551093
0.349578857421875	0.0035626220703125	3758.63103751037
0.35400390625	0.00356201171875	3758.85228950981
0.358428955078125	0.0035638427734375	3759.07354150925
0.36285400390625	0.0035650634765625	3759.29479350869
0.367279052734375	0.00356689453125	3759.51604550813
0.3717041015625	0.00356842041015625	3759.73729750758
0.376129150390625	0.00356964111328125	3759.95854950702
0.38055419921875	0.00357025146484375	3760.17980150646
0.384979248046875	0.00357177734375	3760.4010535059
0.389404296875	0.0035723876953125	3760.62230550534
0.393829345703125	0.00357177734375	3760.84355750478
0.39825439453125	0.00357147216796875	3761.06480950422
0.402679443359375	0.00357147216796875	3761.28606150367
0.4071044921875	0.0035711669921875	3761.50731350311
0.411529541015625	0.0035699462890625	3761.72856550255
0.41595458984375	0.0035687255859375	3761.94981750199
0.420379638671875	0.00356658935546875	3762.17106950143
0.4248046875	0.00356475830078125	3762.39232150087
0.429229736328125	0.00356231689453125	3762.61357350031
0.43365478515625	0.00355926513671875	3762.83482549976
0.438079833984375	0.00355621337890625	3763.0560774992
0.4425048828125	0.0035528564453125	3763.27732949864
0.446929931640625	0.00354949951171875	3763.49858149808
0.45135498046875	0.00354522705078125	3763.71983349752
0.455780029296875	0.003541259765625	3763.94108549696
0.460205078125	0.0035369873046875	3764.1623374964
0.464630126953125	0.00353271484375	3764.38358949585
0.46905517578125	0.00352813720703125	3764.60484149529
0.473480224609375	0.003524169921875	3764.82609349473
0.4779052734375	0.00352020263671875	3765.04734549417
0.482330322265625	0.003515625	3765.26859749361
0.48675537109375	0.00351165771484375	3765.48984949305
0.491180419921875	0.0035076904296875	3765.71110149249
0.49560546875	0.0035028076171875	3765.93235349193
0.500030517578125	0.0034991455078125	3766.15360549138
0.50445556640625	0.00349517822265625	3766.37485749082
0.508880615234375	0.00349090576171875	3766.59610949026
0.5133056640625	0.00348663330078125	3766.8173614897
0.517730712890625	0.003482666015625	3767.03861348914
0.52215576171875	0.00347808837890625	3767.25986548858
0.526580810546875	0.0034747314453125	3767.48111748802
0.531005859375	0.00347076416015625	3767.70236948747
0.535430908203125	0.0034674072265625	3767.92362148691
0.53985595703125	0.0034637451171875	3768.14487348635
0.544281005859375	0.00345977783203125	3768.36612548579
0.5487060546875	0.00345458984375	3768.58737748523
0.553131103515625	0.0034527587890625	3768.80862948467
0.55755615234375	0.00344940185546875	3769.02988148411
0.561981201171875	0.0034466552734375	3769.25113348356
0.56640625	0.00344390869140625	3769.472385483
0.570831298828125	0.00344146728515625	3769.69363748244
0.57525634765625	0.0034393310546875	3769.91488948188
0.579681396484375	0.00343719482421875	3770.13614148132
0.5841064453125	0.0034356689453125	3770.35739348076
0.588531494140625	0.00343170166015625	3770.5786454802
0.59295654296875	0.00343109130859375	3770.79989747965
0.597381591796875	0.0034307861328125	3771.02114947909
0.601806640625	0.00343017578125	3771.24240147853
0.606231689453125	0.00343048095703125	3771.46365347797
0.61065673828125	0.0034307861328125	3771.68490547741
0.615081787109375	0.003431396484375	3771.90615747685
0.6195068359375	0.00343231201171875	3772.12740947629
0.623931884765625	0.003433837890625	3772.34866147574
0.62835693359375	0.0034405517578125	3772.56991347518
0.632781982421875	0.00344207763671875	3772.79116547462
0.63720703125	0.00344329833984375	3773.01241747406
0.641632080078125	0.0034466552734375	3773.2336694735
0.64605712890625	0.00344970703125	3773.45492147294
0.650482177734375	0.00345367431640625	3773.67617347238
0.6549072265625	0.00345703125	3773.89742547183
0.659332275390625	0.00346221923828125	3774.11867747127
0.66375732421875	0.00346710205078125	3774.33992947071
0.668182373046875	0.003472900390625	3774.56118147015
0.672607421875	0.0034796142578125	3774.78243346959
0.677032470703125	0.00348602294921875	3775.00368546903
0.68145751953125	0.00349334716796875	3775.22493746847
0.685882568359375	0.0035015869140625	3775.44618946791
0.6903076171875	0.003509521484375	3775.66744146736
0.694732666015625	0.00351806640625	3775.8886934668
0.69915771484375	0.00352783203125	3776.10994546624
0.703582763671875	0.003536376953125	3776.33119746568
0.7080078125	0.0035467529296875	3776.55244946512
0.712432861328125	0.00355804443359375	3776.77370146456
0.71685791015625	0.0035699462890625	3776.994953464
0.721282958984375	0.00358245849609375	3777.21620546345
0.7257080078125	0.00359405517578125	3777.43745746289
0.730133056640625	0.00360748291015625	3777.65870946233
0.73455810546875	0.003621826171875	3777.87996146177
0.738983154296875	0.00363677978515625	3778.10121346121
0.743408203125	0.00364990234375	3778.32246546065
0.747833251953125	0.0036663818359375	3778.54371746009
0.75225830078125	0.0036834716796875	3778.76496945954
0.756683349609375	0.00370086669921875	3778.98622145898
0.7611083984375	0.003719482421875	3779.20747345842
0.765533447265625	0.0037384033203125	3779.42872545786
0.76995849609375	0.00375732421875	3779.6499774573
0.774383544921875	0.00377777099609375	3779.87122945674
0.77880859375	0.0037994384765625	3780.09248145618
0.783233642578125	0.0038214111328125	3780.31373345563
0.78765869140625	0.00384429931640625	3780.53498545507
0.792083740234375	0.003868408203125	3780.75623745451
0.7965087890625	0.00389404296875	3780.97748945395
0.800933837890625	0.00391998291015625	3781.19874145339
0.80535888671875	0.0039471435546875	3781.41999345283
0.809783935546875	0.0039752197265625	3781.64124545227
0.814208984375	0.00400482177734375	3781.86249745172
0.818634033203125	0.00403564453125	3782.08374945116
0.82305908203125	0.0040673828125	3782.3050014506
0.827484130859375	0.00410125732421875	3782.52625345004
0.8319091796875	0.0041351318359375	3782.74750544948
0.836334228515625	0.004171142578125	3782.96875744892
0.84075927734375	0.00420867919921875	3783.19000944836
0.845184326171875	0.00424774169921875	3783.4112614478
0.849609375	0.00428802490234375	3783.63251344725
0.854034423828125	0.004329833984375	3783.85376544669
0.85845947265625	0.00437347412109375	3784.07501744613
0.862884521484375	0.00441741943359375	3784.29626944557
0.8673095703125	0.00446441650390625	3784.51752144501
0.871734619140625	0.00451263427734375	3784.73877344445
0.87615966796875	0.00456268310546875	3784.96002544389
0.880584716796875	0.0046142578125	3785.18127744334
0.885009765625	0.0046673583984375	3785.40252944278
0.889434814453125	0.00472320556640625	3785.62378144222
0.89385986328125	0.00477996826171875	3785.84503344166
0.898284912109375	0.004837646484375	3786.0662854411
0.9027099609375	0.0048968505859375	3786.28753744054
0.907135009765625	0.00495849609375	3786.50878943998
0.91156005859375	0.005020751953125	3786.73004143943
0.915985107421875	0.00508544921875	3786.95129343887
0.92041015625	0.00515106201171875	3787.17254543831
0.924835205078125	0.00521820068359375	3787.39379743775
0.92926025390625	0.00528717041015625	3787.61504943719
0.933685302734375	0.005357666015625	3787.83630143663
0.9381103515625	0.00543121337890625	3788.05755343607
0.942535400390625	0.00550323486328125	3788.27880543552
0.94696044921875	0.0055755615234375	3788.50005743496
0.951385498046875	0.0056500244140625	3788.7213094344
0.955810546875	0.0057257080078125	3788.94256143384
0.960235595703125	0.005802001953125	3789.16381343328
0.96466064453125	0.0058795166015625	3789.38506543272
0.969085693359375	0.00595733642578125	3789.60631743216
0.9735107421875	0.00603668212890625	3789.82756943161
0.977935791015625	0.006103515625	3790.04882143105
0.98236083984375	0.006182861328125	3790.27007343049
0.986785888671875	0.00626220703125	3790.49132542993
0.9912109375	0.006341552734375	3790.71257742937
0.995635986328125	0.006427001953125	3790.93382942881
1.00006103515625	0.0065093994140625	3791.15508142825
0.995635986328125	0.0056243896484375	3791.3763334277
0.9912109375	0.00485748291015625	3791.59758542714
0.986785888671875	0.0041802978515625	3791.81883742658
0.98236083984375	0.003572998046875	3792.04008942602
0.977935791015625	0.00302398681640625	3792.26134142546
0.9735107421875	0.0025274658203125	3792.4825934249
0.969085693359375	0.002071533203125	3792.70384542434
0.96466064453125	0.00165283203125	3792.92509742378
0.960235595703125	0.00126678466796875	3793.14634942323
0.955810546875	0.00091094970703125	3793.36760142267
0.951385498046875	0.00058197021484375	3793.58885342211
0.94696044921875	0.000277435302734375	3793.81010542155
0.942535400390625	-4.43420410156251E-06	3794.03135742099
0.9381103515625	-0.0002666015625	3794.25260942043
0.933685302734375	-0.00051239013671875	3794.47386141987
0.92926025390625	-0.0007379150390625	3794.69511341932
0.924835205078125	-0.00094696044921875	3794.91636541876
0.92041015625	-0.00114166259765625	3795.1376174182
0.915985107421875	-0.00132232666015625	3795.35886941764
0.91156005859375	-0.0014910888671875	3795.58012141708
0.907135009765625	-0.00164703369140625	3795.80137341652
0.9027099609375	-0.00179290771484375	3796.02262541596
0.898284912109375	-0.0019281005859375	3796.24387741541
0.89385986328125	-0.002054443359375	3796.46512941485
0.889434814453125	-0.0021722412109375	3796.68638141429
0.885009765625	-0.002281494140625	3796.90763341373
0.880584716796875	-0.0023834228515625	3797.12888541317
0.87615966796875	-0.00247833251953125	3797.35013741261
0.871734619140625	-0.0025665283203125	3797.57138941205
0.8673095703125	-0.00264801025390625	3797.7926414115
0.862884521484375	-0.00272430419921875	3798.01389341094
0.85845947265625	-0.0027935791015625	3798.23514541038
0.854034423828125	-0.00285919189453125	3798.45639740982
0.849609375	-0.00291900634765625	3798.67764940926
0.845184326171875	-0.002974853515625	3798.8989014087
0.84075927734375	-0.00302642822265625	3799.12015340814
0.836334228515625	-0.00307403564453125	3799.34140540759
0.8319091796875	-0.00311614990234375	3799.56265740703
0.827484130859375	-0.0031561279296875	3799.78390940647
0.82305908203125	-0.00319305419921875	3800.00516140591
0.818634033203125	-0.00322662353515625	3800.22641340535
0.814208984375	-0.003258056640625	3800.44766540479
0.809783935546875	-0.00328643798828125	3800.66891740423
0.80535888671875	-0.00331207275390625	3800.89016940367
0.800933837890625	-0.00333587646484375	3801.11142140312
0.7965087890625	-0.00335693359375	3801.33267340256
0.792083740234375	-0.0033758544921875	3801.553925402
0.78765869140625	-0.00339385986328125	3801.77517740144
0.783233642578125	-0.003409423828125	3801.99642940088
0.77880859375	-0.00342254638671875	3802.21768140032
0.774383544921875	-0.00343536376953125	3802.43893339976
0.76995849609375	-0.00344635009765625	3802.66018539921
0.765533447265625	-0.00345611572265625	3802.88143739865
0.7611083984375	-0.003465576171875	3803.10268939809
0.756683349609375	-0.00347320556640625	3803.32394139753
0.75225830078125	-0.003480224609375	3803.54519339697
0.747833251953125	-0.0034857177734375	3803.76644539641
0.743408203125	-0.0034906005859375	3803.98769739585
0.738983154296875	-0.00349212646484375	3804.2089493953
0.73455810546875	-0.00349517822265625	3804.43020139474
0.730133056640625	-0.00349822998046875	3804.65145339418
0.7257080078125	-0.0035009765625	3804.87270539362
0.721282958984375	-0.00350189208984375	3805.09395739306
0.71685791015625	-0.00350250244140625	3805.3152093925
0.712432861328125	-0.00350189208984375	3805.53646139194
0.7080078125	-0.00350128173828125	3805.75771339139
0.703582763671875	-0.00349884033203125	3805.97896539083
0.69915771484375	-0.00349700927734375	3806.20021739027
0.694732666015625	-0.00349578857421875	3806.42146938971
0.6903076171875	-0.0034930419921875	3806.64272138915
0.685882568359375	-0.0034912109375	3806.86397338859
0.68145751953125	-0.0034893798828125	3807.08522538803
0.677032470703125	-0.003486328125	3807.30647738748
0.672607421875	-0.00348297119140625	3807.52772938692
0.668182373046875	-0.003480224609375	3807.74898138636
0.66375732421875	-0.00347686767578125	3807.9702333858
0.659332275390625	-0.0034735107421875	3808.19148538524
0.6549072265625	-0.003470458984375	3808.41273738468
0.650482177734375	-0.003466796875	3808.63398938412
0.64605712890625	-0.003463134765625	3808.85524138357
0.641632080078125	-0.0034600830078125	3809.07649338301
0.63720703125	-0.00345733642578125	3809.29774538245
0.632781982421875	-0.0034539794921875	3809.51899738189
0.62835693359375	-0.00345123291015625	3809.74024938133
0.623931884765625	-0.00345245361328125	3809.96150138077
0.6195068359375	-0.00345001220703125	3810.18275338021
0.615081787109375	-0.0034466552734375	3810.40400537965
0.61065673828125	-0.00344390869140625	3810.6252573791
0.606231689453125	-0.00344207763671875	3810.84650937854
0.601806640625	-0.0034405517578125	3811.06776137798
0.597381591796875	-0.0034393310546875	3811.28901337742
0.59295654296875	-0.003438720703125	3811.51026537686
0.588531494140625	-0.00343780517578125	3811.7315173763
0.5841064453125	-0.00343536376953125	3811.95276937574
0.579681396484375	-0.0034356689453125	3812.17402137519
0.57525634765625	-0.00343597412109375	3812.39527337463
0.570831298828125	-0.0034368896484375	3812.61652537407
0.56640625	-0.003438720703125	3812.83777737351
0.561981201171875	-0.00343994140625	3813.05902937295
0.55755615234375	-0.0034417724609375	3813.28028137239
0.553131103515625	-0.0034442138671875	3813.50153337183
0.5487060546875	-0.0034466552734375	3813.72278537128
0.544281005859375	-0.003448486328125	3813.94403737072
0.53985595703125	-0.00345245361328125	3814.16528937016
0.535430908203125	-0.00345611572265625	3814.3865413696
0.531005859375	-0.003460693359375	3814.60779336904
0.526580810546875	-0.00346527099609375	3814.82904536848
0.52215576171875	-0.0034698486328125	3815.05029736792
0.517730712890625	-0.00347564697265625	3815.27154936737
0.5133056640625	-0.00348114013671875	3815.49280136681
0.508880615234375	-0.0034869384765625	3815.71405336625
0.50445556640625	-0.00349334716796875	3815.93530536569
0.500030517578125	-0.00350006103515625	3816.15655736513
0.49560546875	-0.003507080078125	3816.37780936457
0.491180419921875	-0.003514404296875	3816.59906136401
0.48675537109375	-0.00352203369140625	3816.82031336346
0.482330322265625	-0.0035302734375	3817.0415653629
0.4779052734375	-0.003538818359375	3817.26281736234
0.473480224609375	-0.00354705810546875	3817.48406936178
0.46905517578125	-0.003555908203125	3817.70532136122
0.464630126953125	-0.00356475830078125	3817.92657336066
0.460205078125	-0.00357452392578125	3818.1478253601
0.455780029296875	-0.0035833740234375	3818.36907735954
0.45135498046875	-0.00359344482421875	3818.59032935899
0.446929931640625	-0.00360321044921875	3818.81158135843
0.4425048828125	-0.00361328125	3819.03283335787
0.438079833984375	-0.0036236572265625	3819.25408535731
0.43365478515625	-0.00363372802734375	3819.47533735675
0.429229736328125	-0.00364410400390625	3819.69658935619
0.4248046875	-0.00365478515625	3819.91784135563
0.420379638671875	-0.00366455078125	3820.13909335508
0.41595458984375	-0.00367523193359375	3820.36034535452
0.411529541015625	-0.00368560791015625	3820.58159735396
0.4071044921875	-0.0036962890625	3820.8028493534
0.402679443359375	-0.0037066650390625	3821.02410135284
0.39825439453125	-0.003717041015625	3821.24535335228
0.393829345703125	-0.0037274169921875	3821.46660535172
0.389404296875	-0.003736572265625	3821.68785735117
0.384979248046875	-0.00374725341796875	3821.90910935061
0.38055419921875	-0.0037579345703125	3822.13036135005
0.376129150390625	-0.00376800537109375	3822.35161334949
0.3717041015625	-0.00377838134765625	3822.57286534893
0.367279052734375	-0.00378814697265625	3822.79411734837
0.36285400390625	-0.00379852294921875	3823.01536934781
0.358428955078125	-0.0038079833984375	3823.23662134726
0.35400390625	-0.00381805419921875	3823.4578733467
0.349578857421875	-0.00382568359375	3823.67912534614
0.34515380859375	-0.00383544921875	3823.90037734558
0.340728759765625	-0.00384552001953125	3824.12162934502
0.3363037109375	-0.0038555908203125	3824.34288134446
0.331878662109375	-0.00386566162109375	3824.5641333439
0.32745361328125	-0.0038751220703125	3824.78538534335
0.323028564453125	-0.00388519287109375	3825.00663734279
0.318603515625	-0.00389495849609375	3825.22788934223
0.314178466796875	-0.003905029296875	3825.44914134167
0.30975341796875	-0.00391754150390625	3825.67039334111
0.305328369140625	-0.00392730712890625	3825.89164534055
0.3009033203125	-0.003936767578125	3826.11289733999
0.296478271484375	-0.003946533203125	3826.33414933944
0.29205322265625	-0.00395660400390625	3826.55540133888
0.287628173828125	-0.00396697998046875	3826.77665333832
0.283203125	-0.00397705078125	3826.99790533776
0.278778076171875	-0.00398712158203125	3827.2191573372
0.27435302734375	-0.003997802734375	3827.44040933664
0.269927978515625	-0.00400726318359375	3827.66166133608
0.2655029296875	-0.00401947021484375	3827.88291333552
0.261077880859375	-0.00403045654296875	3828.10416533497
0.25665283203125	-0.0040411376953125	3828.32541733441
0.252227783203125	-0.0040521240234375	3828.54666933385
0.247802734375	-0.00406341552734375	3828.76792133329
0.243377685546875	-0.00407470703125	3828.98917333273
0.23895263671875	-0.00408660888671875	3829.21042533217
0.234527587890625	-0.00409820556640625	3829.43167733161
0.2301025390625	-0.00410797119140625	3829.65292933106
0.225677490234375	-0.00412017822265625	3829.8741813305
0.22125244140625	-0.00413238525390625	3830.09543332994
0.216827392578125	-0.0041455078125	3830.31668532938
0.21240234375	-0.00415771484375	3830.53793732882
0.207977294921875	-0.0041705322265625	3830.75918932826
0.20355224609375	-0.00418304443359375	3830.9804413277
0.199127197265625	-0.0041961669921875	3831.20169332715
0.1947021484375	-0.00420867919921875	3831.42294532659
0.190277099609375	-0.00422149658203125	3831.64419732603
0.18585205078125	-0.00423492431640625	3831.86544932547
0.181427001953125	-0.004248046875	3832.08670132491
0.177001953125	-0.0042620849609375	3832.30795332435
0.172576904296875	-0.004276123046875	3832.52920532379
0.16815185546875	-0.004290771484375	3832.75045732324
0.163726806640625	-0.0043048095703125	3832.97170932268
0.1593017578125	-0.0043194580078125	3833.19296132212
0.154876708984375	-0.0043341064453125	3833.41421332156
0.15045166015625	-0.00434967041015625	3833.635465321
0.146026611328125	-0.00436492919921875	3833.85671732044
0.1416015625	-0.0043817138671875	3834.07796931988
0.137176513671875	-0.00439849853515625	3834.29922131933
0.13275146484375	-0.0044146728515625	3834.52047331877
0.128326416015625	-0.0044317626953125	3834.74172531821
0.1239013671875	-0.0044500732421875	3834.96297731765
0.119476318359375	-0.0044677734375	3835.18422931709
0.11505126953125	-0.0044842529296875	3835.40548131653
0.110626220703125	-0.00450408935546875	3835.62673331597
0.106201171875	-0.00452392578125	3835.84798531541
0.101776123046875	-0.0045440673828125	3836.06923731486
0.09735107421875	-0.00456451416015625	3836.2904893143
0.092926025390625	-0.0045855712890625	3836.51174131374
0.0885009765625	-0.00460662841796875	3836.73299331318
0.084075927734375	-0.00462860107421875	3836.95424531262
0.07965087890625	-0.00465179443359375	3837.17549731206
0.075225830078125	-0.0046734619140625	3837.3967493115
0.07080078125	-0.004697265625	3837.61800131095
0.066375732421875	-0.00472076416015625	3837.83925331039
0.06195068359375	-0.00474578857421875	3838.06050530983
0.057525634765625	-0.00477081298828125	3838.28175730927
0.0531005859375	-0.004796142578125	3838.50300930871
0.048675537109375	-0.0048223876953125	3838.72426130815
0.04425048828125	-0.00484893798828125	3838.94551330759
0.039825439453125	-0.00487548828125	3839.16676530704
0.035400390625	-0.0049029541015625	3839.38801730648
0.030975341796875	-0.004931640625	3839.60926930592
0.02655029296875	-0.004959716796875	3839.83052130536
0.022125244140625	-0.004989013671875	3840.0517733048
0.0177001953125	-0.00501861572265625	3840.27302530424
0.013275146484375	-0.005048828125	3840.49427730368
0.00885009765625	-0.005079345703125	3840.71552930313
0.004425048828125	-0.005111083984375	3840.93678130257
0	-0.00514312744140625	3841.15803330201
0.004425048828125	-0.0042095947265625	3841.37928530145
0.00885009765625	-0.0034002685546875	3841.60053730089
0.013275146484375	-0.00268890380859375	3841.82178930033
0.0177001953125	-0.00205780029296875	3842.04304129977
0.022125244140625	-0.00149505615234375	3842.26429329922
0.02655029296875	-0.00099151611328125	3842.48554529866
0.030975341796875	-0.00053985595703125	3842.7067972981
0.035400390625	-0.000132659912109375	3842.92804929754
0.039825439453125	0.000234588623046875	3843.14930129698
0.04425048828125	0.00056610107421875	3843.37055329642
0.048675537109375	0.00086639404296875	3843.59180529586
0.0531005859375	0.00113800048828125	3843.81305729531
0.057525634765625	0.00138427734375	3844.03430929475
0.06195068359375	0.0016064453125	3844.25556129419
0.066375732421875	0.00180694580078125	3844.47681329363
0.07080078125	0.00198883056640625	3844.69806529307
0.075225830078125	0.0021533203125	3844.91931729251
0.07965087890625	0.00230010986328125	3845.14056929195
0.084075927734375	0.002432861328125	3845.36182129139
0.0885009765625	0.00255035400390625	3845.58307329084
0.092926025390625	0.0026605224609375	3845.80432529028
0.09735107421875	0.0027606201171875	3846.02557728972
0.101776123046875	0.00285125732421875	3846.24682928916
0.106201171875	0.0029327392578125	3846.4680812886
0.110626220703125	0.0030059814453125	3846.68933328804
0.11505126953125	0.0030712890625	3846.91058528748
0.119476318359375	0.00312774658203125	3847.13183728693
0.1239013671875	0.00318023681640625	3847.35308928637
0.128326416015625	0.0032275390625	3847.57434128581
0.13275146484375	0.0032696533203125	3847.79559328525
0.137176513671875	0.0033062744140625	3848.01684528469
0.1416015625	0.0033392333984375	3848.23809728413
0.146026611328125	0.00336822509765625	3848.45934928357
0.15045166015625	0.00339447021484375	3848.68060128302
0.154876708984375	0.00341644287109375	3848.90185328246
0.1593017578125	0.0034356689453125	3849.1231052819
0.163726806640625	0.00345306396484375	3849.34435728134
0.16815185546875	0.00346771240234375	3849.56560928078
0.172576904296875	0.00348114013671875	3849.78686128022
0.177001953125	0.00349212646484375	3850.00811327966
0.181427001953125	0.0035015869140625	3850.22936527911
0.18585205078125	0.003509521484375	3850.45061727855
0.190277099609375	0.00351593017578125	3850.67186927799
0.1947021484375	0.003521728515625	3850.89312127743
0.199127197265625	0.00352630615234375	3851.11437327687
0.20355224609375	0.0035308837890625	3851.33562527631
0.207977294921875	0.0035333251953125	3851.55687727575
0.21240234375	0.00353546142578125	3851.7781292752
0.216827392578125	0.00353759765625	3851.99938127464
0.22125244140625	0.00354034423828125	3852.22063327408
0.225677490234375	0.00354095458984375	3852.44188527352
0.2301025390625	0.003541259765625	3852.66313727296
0.234527587890625	0.0035400390625	3852.8843892724
0.23895263671875	0.0035406494140625	3853.10564127184
0.243377685546875	0.003541259765625	3853.32689327128
0.247802734375	0.00354095458984375	3853.54814527073
0.252227783203125	0.00354095458984375	3853.76939727017
0.25665283203125	0.00354034423828125	3853.99064926961
0.261077880859375	0.00354034423828125	3854.21190126905
0.2655029296875	0.0035418701171875	3854.43315326849
0.269927978515625	0.00354248046875	3854.65440526793
0.27435302734375	0.00354156494140625	3854.87565726737
0.278778076171875	0.0035406494140625	3855.09690926682
0.283203125	0.0035400390625	3855.31816126626
0.287628173828125	0.00353912353515625	3855.5394132657
0.29205322265625	0.00353912353515625	3855.76066526514
0.296478271484375	0.0035394287109375	3855.98191726458
0.3009033203125	0.0035400390625	3856.20316926402
0.305328369140625	0.00354034423828125	3856.42442126346
0.30975341796875	0.00354034423828125	3856.64567326291
0.314178466796875	0.003543701171875	3856.86692526235
0.318603515625	0.00354339599609375	3857.08817726179
0.323028564453125	0.00354339599609375	3857.30942926123
0.32745361328125	0.00354339599609375	3857.53068126067
0.331878662109375	0.00354400634765625	3857.75193326011
0.3363037109375	0.0035443115234375	3857.97318525955
0.340728759765625	0.0035455322265625	3858.194437259
0.34515380859375	0.00354583740234375	3858.41568925844
0.349578857421875	0.00354705810546875	3858.63694125788
0.35400390625	0.00354583740234375	3858.85819325732
0.358428955078125	0.00354705810546875	3859.07944525676
0.36285400390625	0.00354766845703125	3859.3006972562
0.367279052734375	0.003548583984375	3859.52194925564
0.3717041015625	0.0035498046875	3859.74320125509
0.376129150390625	0.00355072021484375	3859.96445325453
0.38055419921875	0.00355133056640625	3860.18570525397
0.384979248046875	0.00355194091796875	3860.40695725341
0.389404296875	0.0035516357421875	3860.62820925285
0.393829345703125	0.003551025390625	3860.84946125229
0.39825439453125	0.003551025390625	3861.07071325173
0.402679443359375	0.0035504150390625	3861.29196525118
0.4071044921875	0.0035491943359375	3861.51321725062
0.411529541015625	0.0035479736328125	3861.73446925006
0.41595458984375	0.00354644775390625	3861.9557212495
0.420379638671875	0.00354461669921875	3862.17697324894
0.4248046875	0.00354156494140625	3862.39822524838
0.429229736328125	0.00353912353515625	3862.61947724782
0.43365478515625	0.00353607177734375	3862.84072924726
0.438079833984375	0.00353271484375	3863.06198124671
0.4425048828125	0.003529052734375	3863.28323324615
0.446929931640625	0.003525390625	3863.50448524559
0.45135498046875	0.0035211181640625	3863.72573724503
0.455780029296875	0.003516845703125	3863.94698924447
0.460205078125	0.00351226806640625	3864.16824124391
0.464630126953125	0.00350830078125	3864.38949324335
0.46905517578125	0.00350311279296875	3864.6107452428
0.473480224609375	0.00349853515625	3864.83199724224
0.4779052734375	0.00349456787109375	3865.05324924168
0.482330322265625	0.003489990234375	3865.27450124112
0.48675537109375	0.00348663330078125	3865.49575324056
0.491180419921875	0.0034820556640625	3865.71700524
0.49560546875	0.00347747802734375	3865.93825723944
0.500030517578125	0.0034735107421875	3866.15950923889
0.50445556640625	0.00346954345703125	3866.38076123833
0.508880615234375	0.00346405029296875	3866.60201323777
0.5133056640625	0.00346038818359375	3866.82326523721
0.517730712890625	0.0034564208984375	3867.04451723665
0.52215576171875	0.00345245361328125	3867.26576923609
0.526580810546875	0.003448486328125	3867.48702123553
0.531005859375	0.00344512939453125	3867.70827323498
0.535430908203125	0.00344085693359375	3867.92952523442
0.53985595703125	0.00343719482421875	3868.15077723386
0.544281005859375	0.00343353271484375	3868.3720292333
0.5487060546875	0.003428955078125	3868.59328123274
0.553131103515625	0.00342620849609375	3868.81453323218
0.55755615234375	0.00342315673828125	3869.03578523162
0.561981201171875	0.00342010498046875	3869.25703723107
0.56640625	0.003416748046875	3869.47828923051
0.570831298828125	0.0034149169921875	3869.69954122995
0.57525634765625	0.0034124755859375	3869.92079322939
0.579681396484375	0.00341064453125	3870.14204522883
0.5841064453125	0.0034088134765625	3870.36329722827
0.588531494140625	0.00340545654296875	3870.58454922771
0.59295654296875	0.00340484619140625	3870.80580122715
0.597381591796875	0.0034039306640625	3871.0270532266
0.601806640625	0.0034039306640625	3871.24830522604
0.606231689453125	0.00340423583984375	3871.46955722548
0.61065673828125	0.00340423583984375	3871.69080922492
0.615081787109375	0.00340545654296875	3871.91206122436
0.6195068359375	0.0034063720703125	3872.1333132238
0.623931884765625	0.00340728759765625	3872.35456522324
0.62835693359375	0.00341400146484375	3872.57581722269
0.632781982421875	0.00341552734375	3872.79706922213
0.63720703125	0.0034173583984375	3873.01832122157
0.641632080078125	0.0034197998046875	3873.23957322101
0.64605712890625	0.00342315673828125	3873.46082522045
0.650482177734375	0.00342620849609375	3873.68207721989
0.6549072265625	0.00343048095703125	3873.90332921933
0.659332275390625	0.00343536376953125	3874.12458121878
0.66375732421875	0.0034405517578125	3874.34583321822
0.668182373046875	0.00344573974609375	3874.56708521766
0.672607421875	0.0034515380859375	3874.7883372171
0.677032470703125	0.0034576416015625	3875.00958921654
0.68145751953125	0.00346527099609375	3875.23084121598
0.685882568359375	0.003472900390625	3875.45209321542
0.6903076171875	0.00348114013671875	3875.67334521487
0.694732666015625	0.0034893798828125	3875.89459721431
0.69915771484375	0.0034991455078125	3876.11584921375
0.703582763671875	0.00350677490234375	3876.33710121319
0.7080078125	0.00351654052734375	3876.55835321263
0.712432861328125	0.00352752685546875	3876.77960521207
0.71685791015625	0.00353912353515625	3877.00085721151
0.721282958984375	0.00355133056640625	3877.22210921096
0.7257080078125	0.0035638427734375	3877.4433612104
0.730133056640625	0.00357696533203125	3877.66461320984
0.73455810546875	0.0035906982421875	3877.88586520928
0.738983154296875	0.003604736328125	3878.10711720872
0.743408203125	0.00361724853515625	3878.32836920816
0.747833251953125	0.0036334228515625	3878.5496212076
0.75225830078125	0.00364990234375	3878.77087320705
0.756683349609375	0.00366668701171875	3878.99212520649
0.7611083984375	0.00368438720703125	3879.21337720593
0.765533447265625	0.00370330810546875	3879.43462920537
0.76995849609375	0.0037225341796875	3879.65588120481
0.774383544921875	0.00374267578125	3879.87713320425
0.77880859375	0.00376312255859375	3880.09838520369
0.783233642578125	0.00378448486328125	3880.31963720313
0.78765869140625	0.0038067626953125	3880.54088920258
0.792083740234375	0.00383026123046875	3880.76214120202
0.7965087890625	0.00385467529296875	3880.98339320146
0.800933837890625	0.00388092041015625	3881.2046452009
0.80535888671875	0.0039068603515625	3881.42589720034
0.809783935546875	0.003934326171875	3881.64714919978
0.814208984375	0.00396331787109375	3881.86840119922
0.818634033203125	0.0039935302734375	3882.08965319867
0.82305908203125	0.00402435302734375	3882.31090519811
0.827484130859375	0.00405731201171875	3882.53215719755
0.8319091796875	0.00409027099609375	3882.75340919699
0.836334228515625	0.00412567138671875	3882.97466119643
0.84075927734375	0.0041619873046875	3883.19591319587
0.845184326171875	0.004200439453125	3883.41716519531
0.849609375	0.00423980712890625	3883.63841719476
0.854034423828125	0.004281005859375	3883.8596691942
0.85845947265625	0.0043231201171875	3884.08092119364
0.862884521484375	0.004366455078125	3884.30217319308
0.8673095703125	0.0044122314453125	3884.52342519252
0.871734619140625	0.00445953369140625	3884.74467719196
0.87615966796875	0.0045086669921875	3884.9659291914
0.880584716796875	0.00455902099609375	3885.18718119085
0.885009765625	0.00461151123046875	3885.40843319029
0.889434814453125	0.00466522216796875	3885.62968518973
0.89385986328125	0.004720458984375	3885.85093718917
0.898284912109375	0.00477783203125	3886.07218918861
0.9027099609375	0.0048358154296875	3886.29344118805
0.907135009765625	0.0048956298828125	3886.51469318749
0.91156005859375	0.0049578857421875	3886.73594518694
0.915985107421875	0.00502044677734375	3886.95719718638
0.92041015625	0.005084228515625	3887.17844918582
0.924835205078125	0.005150146484375	3887.39970118526
0.92926025390625	0.00521697998046875	3887.6209531847
0.933685302734375	0.0052850341796875	3887.84220518414
0.9381103515625	0.005357666015625	3888.06345718358
0.942535400390625	0.00542816162109375	3888.28470918302
0.94696044921875	0.005499267578125	3888.50596118247
0.951385498046875	0.0055718994140625	3888.72721318191
0.955810546875	0.00564544677734375	3888.94846518135
0.960235595703125	0.00572052001953125	3889.16971718079
0.96466064453125	0.0057958984375	3889.39096918023
0.969085693359375	0.0058721923828125	3889.61222117967
0.9735107421875	0.0059490966796875	3889.83347317911
0.977935791015625	0.0060247802734375	3890.05472517856
0.98236083984375	0.0060943603515625	3890.275977178
0.986785888671875	0.0061737060546875	3890.49722917744
0.9912109375	0.0062530517578125	3890.71848117688
0.995635986328125	0.0063323974609375	3890.93973317632
1.00006103515625	0.0064178466796875	3891.16098517576
0.995635986328125	0.0055328369140625	3891.3822371752
0.9912109375	0.00476837158203125	3891.60348917465
0.986785888671875	0.00409423828125	3891.82474117409
0.98236083984375	0.00349090576171875	3892.04599317353
0.977935791015625	0.0029461669921875	3892.26724517297
0.9735107421875	0.00245330810546875	3892.48849717241
0.969085693359375	0.0020013427734375	3892.70974917185
0.96466064453125	0.00158660888671875	3892.93100117129
0.960235595703125	0.00120513916015625	3893.15225317074
0.955810546875	0.00085357666015625	3893.37350517018
0.951385498046875	0.000528564453125	3893.59475716962
0.94696044921875	0.00022833251953125	3893.81600916906
0.942535400390625	-5.0048828125E-05	3894.0372611685
0.9381103515625	-0.00030767822265625	3894.25851316794
0.933685302734375	-0.00055023193359375	3894.47976516738
0.92926025390625	-0.000771484375	3894.70101716683
0.924835205078125	-0.00097686767578125	3894.92226916627
0.92041015625	-0.0011676025390625	3895.14352116571
0.915985107421875	-0.0013446044921875	3895.36477316515
0.91156005859375	-0.001510009765625	3895.58602516459
0.907135009765625	-0.00166290283203125	3895.80727716403
0.9027099609375	-0.001805419921875	3896.02852916347
0.898284912109375	-0.0019378662109375	3896.24978116292
0.89385986328125	-0.0020611572265625	3896.47103316236
0.889434814453125	-0.00217620849609375	3896.6922851618
0.885009765625	-0.00228271484375	3896.91353716124
0.880584716796875	-0.0023828125	3897.13478916068
0.87615966796875	-0.00247467041015625	3897.35604116012
0.871734619140625	-0.0025604248046875	3897.57729315956
0.8673095703125	-0.00264007568359375	3897.798545159
0.862884521484375	-0.00271392822265625	3898.01979715845
0.85845947265625	-0.00278106689453125	3898.24104915789
0.854034423828125	-0.00284423828125	3898.46230115733
0.849609375	-0.0029034423828125	3898.68355315677
0.845184326171875	-0.00295745849609375	3898.90480515621
0.84075927734375	-0.00300750732421875	3899.12605715565
0.836334228515625	-0.00305328369140625	3899.34730915509
0.8319091796875	-0.0030963134765625	3899.56856115454
0.827484130859375	-0.003134765625	3899.78981315398
0.82305908203125	-0.0031707763671875	3900.01106515342
0.818634033203125	-0.003203125	3900.23231715286
0.814208984375	-0.00323333740234375	3900.4535691523
0.809783935546875	-0.003260498046875	3900.67482115174
0.80535888671875	-0.003284912109375	3900.89607315118
0.800933837890625	-0.0033074951171875	3901.11732515063
0.7965087890625	-0.0033282470703125	3901.33857715007
0.792083740234375	-0.0033465576171875	3901.55982914951
0.78765869140625	-0.0033636474609375	3901.78108114895
0.783233642578125	-0.00337860107421875	3902.00233314839
0.77880859375	-0.00339141845703125	3902.22358514783
0.774383544921875	-0.0034039306640625	3902.44483714727
0.76995849609375	-0.00341461181640625	3902.66608914672
0.765533447265625	-0.0034246826171875	3902.88734114616
0.7611083984375	-0.0034332275390625	3903.1085931456
0.756683349609375	-0.00344085693359375	3903.32984514504
0.75225830078125	-0.00344757080078125	3903.55109714448
0.747833251953125	-0.003453369140625	3903.77234914392
0.743408203125	-0.00345794677734375	3903.99360114336
0.738983154296875	-0.00345916748046875	3904.21485314281
0.73455810546875	-0.00346221923828125	3904.43610514225
0.730133056640625	-0.0034661865234375	3904.65735714169
0.7257080078125	-0.0034686279296875	3904.87860914113
0.721282958984375	-0.00346954345703125	3905.09986114057
0.71685791015625	-0.003470458984375	3905.32111314001
0.712432861328125	-0.0034698486328125	3905.54236513945
0.7080078125	-0.00346923828125	3905.76361713889
0.703582763671875	-0.00346649169921875	3905.98486913834
0.69915771484375	-0.003465576171875	3906.20612113778
0.694732666015625	-0.00346466064453125	3906.42737313722
0.6903076171875	-0.003463134765625	3906.64862513666
0.685882568359375	-0.0034613037109375	3906.8698771361
0.68145751953125	-0.00345977783203125	3907.09112913554
0.677032470703125	-0.00345703125	3907.31238113498
0.672607421875	-0.00345458984375	3907.53363313443
0.668182373046875	-0.0034521484375	3907.75488513387
0.66375732421875	-0.00344879150390625	3907.97613713331
0.659332275390625	-0.003446044921875	3908.19738913275
0.6549072265625	-0.0034429931640625	3908.41864113219
0.650482177734375	-0.00344024658203125	3908.63989313163
0.64605712890625	-0.00343658447265625	3908.86114513107
0.641632080078125	-0.00343353271484375	3909.08239713052
0.63720703125	-0.003431396484375	3909.30364912996
0.632781982421875	-0.0034283447265625	3909.5249011294
0.62835693359375	-0.00342620849609375	3909.74615312884
0.623931884765625	-0.00342803955078125	3909.96740512828
0.6195068359375	-0.0034259033203125	3910.18865712772
0.615081787109375	-0.0034234619140625	3910.40990912716
0.61065673828125	-0.0034210205078125	3910.63116112661
0.606231689453125	-0.00341888427734375	3910.85241312605
0.601806640625	-0.00341766357421875	3911.07366512549
0.597381591796875	-0.003416748046875	3911.29491712493
0.59295654296875	-0.0034161376953125	3911.51616912437
0.588531494140625	-0.0034161376953125	3911.73742112381
0.5841064453125	-0.003414306640625	3911.95867312325
0.579681396484375	-0.00341461181640625	3912.1799251227
0.57525634765625	-0.00341552734375	3912.40117712214
0.570831298828125	-0.00341705322265625	3912.62242912158
0.56640625	-0.0034185791015625	3912.84368112102
0.561981201171875	-0.00342071533203125	3913.06493312046
0.55755615234375	-0.0034228515625	3913.2861851199
0.553131103515625	-0.00342529296875	3913.50743711934
0.5487060546875	-0.0034283447265625	3913.72868911879
0.544281005859375	-0.00343017578125	3913.94994111823
0.53985595703125	-0.00343414306640625	3914.17119311767
0.535430908203125	-0.00343841552734375	3914.39244511711
0.531005859375	-0.00344329833984375	3914.61369711655
0.526580810546875	-0.00344757080078125	3914.83494911599
0.52215576171875	-0.003453369140625	3915.05620111543
0.517730712890625	-0.00345855712890625	3915.27745311487
0.5133056640625	-0.00346435546875	3915.49870511432
0.508880615234375	-0.003470458984375	3915.71995711376
0.50445556640625	-0.0034771728515625	3915.9412091132
0.500030517578125	-0.00348388671875	3916.16246111264
0.49560546875	-0.00349151611328125	3916.38371311208
0.491180419921875	-0.0034991455078125	3916.60496511152
0.48675537109375	-0.00350677490234375	3916.82621711096
0.482330322265625	-0.0035150146484375	3917.04746911041
0.4779052734375	-0.00352325439453125	3917.26872110985
0.473480224609375	-0.0035321044921875	3917.48997310929
0.46905517578125	-0.003541259765625	3917.71122510873
0.464630126953125	-0.0035498046875	3917.93247710817
0.460205078125	-0.0035595703125	3918.15372910761
0.455780029296875	-0.00356903076171875	3918.37498110705
0.45135498046875	-0.00357940673828125	3918.5962331065
0.446929931640625	-0.0035894775390625	3918.81748510594
0.4425048828125	-0.003599853515625	3919.03873710538
0.438079833984375	-0.003609619140625	3919.25998910482
0.43365478515625	-0.0036199951171875	3919.48124110426
0.429229736328125	-0.00363037109375	3919.7024931037
0.4248046875	-0.0036407470703125	3919.92374510314
0.420379638671875	-0.003651123046875	3920.14499710259
0.41595458984375	-0.00366180419921875	3920.36624910203
0.411529541015625	-0.0036724853515625	3920.58750110147
0.4071044921875	-0.0036834716796875	3920.80875310091
0.402679443359375	-0.0036944580078125	3921.03000510035
0.39825439453125	-0.00370391845703125	3921.25125709979
0.393829345703125	-0.00371490478515625	3921.47250909923
0.389404296875	-0.003724365234375	3921.69376109868
0.384979248046875	-0.0037347412109375	3921.91501309812
0.38055419921875	-0.00374542236328125	3922.13626509756
0.376129150390625	-0.00375518798828125	3922.357517097
0.3717041015625	-0.003765869140625	3922.57876909644
0.367279052734375	-0.00377593994140625	3922.80002109588
0.36285400390625	-0.0037860107421875	3923.02127309532
0.358428955078125	-0.00379547119140625	3923.24252509476
0.35400390625	-0.00380523681640625	3923.46377709421
0.349578857421875	-0.0038128662109375	3923.68502909365
0.34515380859375	-0.00382293701171875	3923.90628109309
0.340728759765625	-0.00383270263671875	3924.12753309253
0.3363037109375	-0.0038427734375	3924.34878509197
0.331878662109375	-0.00385223388671875	3924.57003709141
0.32745361328125	-0.00386199951171875	3924.79128909085
0.323028564453125	-0.00387176513671875	3925.0125410903
0.318603515625	-0.00388092041015625	3925.23379308974
0.314178466796875	-0.0038909912109375	3925.45504508918
0.30975341796875	-0.0039044189453125	3925.67629708862
0.305328369140625	-0.00391387939453125	3925.89754908806
0.3009033203125	-0.0039227294921875	3926.1188010875
0.296478271484375	-0.00393218994140625	3926.34005308694
0.29205322265625	-0.00394195556640625	3926.56130508639
0.287628173828125	-0.0039520263671875	3926.78255708583
0.283203125	-0.0039630126953125	3927.00380908527
0.278778076171875	-0.00397247314453125	3927.22506108471
0.27435302734375	-0.00398284912109375	3927.44631308415
0.269927978515625	-0.0039923095703125	3927.66756508359
0.2655029296875	-0.00400299072265625	3927.88881708303
0.261077880859375	-0.00401397705078125	3928.11006908248
0.25665283203125	-0.004024658203125	3928.33132108192
0.252227783203125	-0.0040362548828125	3928.55257308136
0.247802734375	-0.00404754638671875	3928.7738250808
0.243377685546875	-0.00405853271484375	3928.99507708024
0.23895263671875	-0.00407012939453125	3929.21632907968
0.234527587890625	-0.00408111572265625	3929.43758107912
0.2301025390625	-0.00409149169921875	3929.65883307857
0.225677490234375	-0.0041033935546875	3929.88008507801
0.22125244140625	-0.004114990234375	3930.10133707745
0.216827392578125	-0.00412811279296875	3930.32258907689
0.21240234375	-0.00414031982421875	3930.54384107633
0.207977294921875	-0.00415252685546875	3930.76509307577
0.20355224609375	-0.00416473388671875	3930.98634507521
0.199127197265625	-0.00417755126953125	3931.20759707466
0.1947021484375	-0.004190673828125	3931.4288490741
0.190277099609375	-0.0042034912109375	3931.65010107354
0.18585205078125	-0.00421661376953125	3931.87135307298
0.181427001953125	-0.004229736328125	3932.09260507242
0.177001953125	-0.00424346923828125	3932.31385707186
0.172576904296875	-0.00425689697265625	3932.5351090713
0.16815185546875	-0.00427093505859375	3932.75636107074
0.163726806640625	-0.004285888671875	3932.97761307019
0.1593017578125	-0.00430023193359375	3933.19886506963
0.154876708984375	-0.00431427001953125	3933.42011706907
0.15045166015625	-0.00433013916015625	3933.64136906851
0.146026611328125	-0.004345703125	3933.86262106795
0.1416015625	-0.00436187744140625	3934.08387306739
0.137176513671875	-0.004378662109375	3934.30512506683
0.13275146484375	-0.00439544677734375	3934.52637706628
0.128326416015625	-0.004412841796875	3934.74762906572
0.1239013671875	-0.0044305419921875	3934.96888106516
0.119476318359375	-0.00444854736328125	3935.1901330646
0.11505126953125	-0.00446502685546875	3935.41138506404
0.110626220703125	-0.004483642578125	3935.63263706348
0.106201171875	-0.00450347900390625	3935.85388906292
0.101776123046875	-0.00452362060546875	3936.07514106237
0.09735107421875	-0.00454437255859375	3936.29639306181
0.092926025390625	-0.00456512451171875	3936.51764506125
0.0885009765625	-0.00458709716796875	3936.73889706069
0.084075927734375	-0.0046087646484375	3936.96014906013
0.07965087890625	-0.00463134765625	3937.18140105957
0.075225830078125	-0.00465301513671875	3937.40265305901
0.07080078125	-0.004677734375	3937.62390505846
0.066375732421875	-0.0047015380859375	3937.8451570579
0.06195068359375	-0.00472564697265625	3938.06640905734
0.057525634765625	-0.0047509765625	3938.28766105678
0.0531005859375	-0.0047772216796875	3938.50891305622
0.048675537109375	-0.004803466796875	3938.73016505566
0.04425048828125	-0.00483001708984375	3938.9514170551
0.039825439453125	-0.00485687255859375	3939.17266905455
0.035400390625	-0.004884033203125	3939.39392105399
0.030975341796875	-0.0049127197265625	3939.61517305343
0.02655029296875	-0.00494110107421875	3939.83642505287
0.022125244140625	-0.004970703125	3940.05767705231
0.0177001953125	-0.00500091552734375	3940.27892905175
0.013275146484375	-0.0050311279296875	3940.50018105119
0.00885009765625	-0.005062255859375	3940.72143305063
0.004425048828125	-0.005093994140625	3940.94268505008
0	-0.005126953125	3941.16393704952
0.004425048828125	-0.00419403076171875	3941.38518904896
0.00885009765625	-0.00338592529296875	3941.6064410484
0.013275146484375	-0.002674560546875	3941.82769304784
