Potential applied (V)	WE(1).Current (A)	Time (s)
0.004425048828125	-0.00141387939453125	8.42532997872809
0.00885009765625	-0.00092620849609375	9.31033997649365
0.013275146484375	-0.00057952880859375	10.1953499742592
0.0177001953125	-0.00032879638671875	11.0803599720248
0.022125244140625	-0.000144989013671875	11.9653699697903
0.02655029296875	-6.6650390625E-06	12.8503799675559
0.030975341796875	9.771728515625E-05	13.7353899653215
0.035400390625	0.0001785888671875	14.620399963087
0.039825439453125	0.00024127197265625	15.5054099608526
0.04425048828125	0.000290771484375	16.3904199586182
0.048675537109375	0.000330169677734375	17.2754299563837
0.0531005859375	0.0003612060546875	18.1604399541493
0.057525634765625	0.000386688232421875	19.0454499519149
0.06195068359375	0.000407440185546875	19.9304599496804
0.066375732421875	0.000424285888671875	20.815469947446
0.07080078125	0.00043768310546875	21.7004799452116
0.075225830078125	0.00044970703125	22.5854899429771
0.07965087890625	0.000458160400390625	23.4704999407427
0.084075927734375	0.00046575927734375	24.3555099385082
0.0885009765625	0.000472076416015625	25.2405199362738
0.092926025390625	0.000477325439453125	26.1255299340394
0.09735107421875	0.000481475830078125	27.0105399318049
0.101776123046875	0.0004847412109375	27.8955499295705
0.106201171875	0.00048736572265625	28.7805599273361
0.110626220703125	0.0004888916015625	29.6655699251016
0.11505126953125	0.00048992919921875	30.5505799228672
0.119476318359375	0.000489837646484375	31.4355899206328
0.1239013671875	0.000490753173828125	32.3205999183983
0.128326416015625	0.000491241455078125	33.2056099161639
0.13275146484375	0.00049151611328125	34.0906199139295
0.137176513671875	0.000491119384765625	34.975629911695
0.1416015625	0.000490234375	35.8606399094606
0.146026611328125	0.0004898681640625	36.7456499072262
0.15045166015625	0.000489410400390625	37.6306599049917
0.154876708984375	0.00048870849609375	38.5156699027573
0.1593017578125	0.00048748779296875	39.4006799005228
0.163726806640625	0.000486419677734375	40.2856898982884
0.16815185546875	0.000485687255859375	41.170699896054
0.172576904296875	0.000484527587890625	42.0557098938195
0.177001953125	0.000483673095703125	42.9407198915851
0.181427001953125	0.000482635498046875	43.8257298893507
0.18585205078125	0.000480926513671875	44.7107398871162
0.190277099609375	0.00047991943359375	45.5957498848818
0.1947021484375	0.0004786376953125	46.4807598826474
0.199127197265625	0.000476776123046875	47.3657698804129
0.20355224609375	0.000476165771484375	48.2507798781785
0.207977294921875	0.0004749755859375	49.1357898759441
0.21240234375	0.000473541259765625	50.0207998737096
0.216827392578125	0.000472808837890625	50.9058098714752
0.22125244140625	0.00047161865234375	51.7908198692407
0.225677490234375	0.000470550537109375	52.6758298670063
0.2301025390625	0.000469329833984375	53.5608398647719
0.234527587890625	0.00046795654296875	54.4458498625374
0.23895263671875	0.000466827392578125	55.330859860303
0.243377685546875	0.00046600341796875	56.2158698580686
0.247802734375	0.00046514892578125	57.1008798558341
0.252227783203125	0.000464080810546875	57.9858898535997
0.25665283203125	0.000463623046875	58.8708998513653
0.261077880859375	0.000462432861328125	59.7559098491308
0.2655029296875	0.00046142578125	60.6409198468964
0.269927978515625	0.000460693359375	61.525929844662
0.27435302734375	0.00045947265625	62.4109398424275
0.278778076171875	0.000458648681640625	63.2959498401931
0.283203125	0.00045794677734375	64.1809598379587
0.287628173828125	0.0004576416015625	65.0659698357242
0.29205322265625	0.000456787109375	65.9509798334898
0.296478271484375	0.000455963134765625	66.8359898312553
0.3009033203125	0.00045562744140625	67.7209998290209
0.305328369140625	0.000454833984375	68.6060098267865
0.30975341796875	0.0004544677734375	69.491019824552
0.314178466796875	0.00045501708984375	70.3760298223176
0.318603515625	0.000453887939453125	71.2610398200832
0.323028564453125	0.00045294189453125	72.1460498178487
0.32745361328125	0.000452301025390625	73.0310598156143
0.331878662109375	0.000451934814453125	73.9160698133799
0.3363037109375	0.000451080322265625	74.8010798111454
0.340728759765625	0.000450164794921875	75.686089808911
0.34515380859375	0.000449859619140625	76.5710998066766
0.349578857421875	0.00044970703125	77.4561098044421
0.35400390625	0.000447906494140625	78.3411198022077
0.358428955078125	0.00044830322265625	79.2261297999733
0.36285400390625	0.00044757080078125	80.1111397977388
0.367279052734375	0.00044732666015625	80.9961497955044
0.3717041015625	0.00044671630859375	81.8811597932699
0.376129150390625	0.00044580078125	82.7661697910355
0.38055419921875	0.00044561767578125	83.6511797888011
0.384979248046875	0.00044482421875	84.5361897865666
0.389404296875	0.0004442138671875	85.4211997843322
0.393829345703125	0.000443023681640625	86.3062097820978
0.39825439453125	0.000442626953125	87.1912197798633
0.402679443359375	0.000442108154296875	88.0762297776289
0.4071044921875	0.0004412841796875	88.9612397753945
0.411529541015625	0.0004405517578125	89.84624977316
0.41595458984375	0.000439727783203125	90.7312597709256
0.420379638671875	0.00043914794921875	91.6162697686912
0.4248046875	0.000438262939453125	92.5012797664567
0.429229736328125	0.000438079833984375	93.3862897642223
0.43365478515625	0.000436859130859375	94.2712997619878
0.438079833984375	0.000436553955078125	95.1563097597534
0.4425048828125	0.000436004638671875	96.041319757519
0.446929931640625	0.000435638427734375	96.9263297552845
0.45135498046875	0.000435455322265625	97.8113397530501
0.455780029296875	0.00043487548828125	98.6963497508157
0.460205078125	0.000434173583984375	99.5813597485812
0.464630126953125	0.00043414306640625	100.466369746347
0.46905517578125	0.000433319091796875	101.351379744112
0.473480224609375	0.0004329833984375	102.236389741878
0.4779052734375	0.0004327392578125	103.121399739643
0.482330322265625	0.000432159423828125	104.006409737409
0.48675537109375	0.000431793212890625	104.891419735175
0.491180419921875	0.000431671142578125	105.77642973294
0.49560546875	0.000431396484375	106.661439730706
0.500030517578125	0.000431243896484375	107.546449728471
0.50445556640625	0.00043115234375	108.431459726237
0.508880615234375	0.00043035888671875	109.316469724002
0.5133056640625	0.000430572509765625	110.201479721768
0.517730712890625	0.000430419921875	111.086489719534
0.52215576171875	0.000430389404296875	111.971499717299
0.526580810546875	0.0004305419921875	112.856509715065
0.531005859375	0.000430511474609375	113.74151971283
0.535430908203125	0.00043072509765625	114.626529710596
0.53985595703125	0.00043060302734375	115.511539708361
0.544281005859375	0.000430450439453125	116.396549706127
0.5487060546875	0.000430450439453125	117.281559703893
0.553131103515625	0.0004310302734375	118.166569701658
0.55755615234375	0.0004312744140625	119.051579699424
0.561981201171875	0.000431488037109375	119.936589697189
0.56640625	0.00043170166015625	120.821599694955
0.570831298828125	0.0004324951171875	121.70660969272
0.57525634765625	0.0004329833984375	122.591619690486
0.579681396484375	0.000433258056640625	123.476629688251
0.5841064453125	0.000433868408203125	124.361639686017
0.588531494140625	0.000433929443359375	125.246649683783
0.59295654296875	0.000434967041015625	126.131659681548
0.597381591796875	0.000436004638671875	127.016669679314
0.601806640625	0.000437042236328125	127.901679677079
0.606231689453125	0.00043792724609375	128.786689674845
0.61065673828125	0.00043896484375	129.67169967261
0.615081787109375	0.00043994140625	130.556709670376
0.6195068359375	0.000441192626953125	131.441719668142
0.623931884765625	0.000442626953125	132.326729665907
0.62835693359375	0.0004454345703125	133.211739663673
0.632781982421875	0.000445953369140625	134.096749661438
0.63720703125	0.000446929931640625	134.981759659204
0.641632080078125	0.00044830322265625	135.866769656969
0.64605712890625	0.00044964599609375	136.751779654735
0.650482177734375	0.00045159912109375	137.636789652501
0.6549072265625	0.00045361328125	138.521799650266
0.659332275390625	0.00045526123046875	139.406809648032
0.66375732421875	0.000457122802734375	140.291819645797
0.668182373046875	0.00045941162109375	141.176829643563
0.672607421875	0.00046173095703125	142.061839641328
0.677032470703125	0.0004637451171875	142.946849639094
0.68145751953125	0.00046630859375	143.831859636859
0.685882568359375	0.0004693603515625	144.716869634625
0.6903076171875	0.000471649169921875	145.601879632391
0.694732666015625	0.000474578857421875	146.486889630156
0.69915771484375	0.000477783203125	147.371899627922
0.703582763671875	0.000480560302734375	148.256909625687
0.7080078125	0.000484039306640625	149.141919623453
0.712432861328125	0.000487640380859375	150.026929621218
0.71685791015625	0.000492095947265625	150.911939618984
0.721282958984375	0.00049609375	151.79694961675
0.7257080078125	0.0005003662109375	152.681959614515
0.730133056640625	0.000504608154296875	153.566969612281
0.73455810546875	0.000509552001953125	154.451979610046
0.738983154296875	0.000514617919921875	155.336989607812
0.743408203125	0.00051910400390625	156.221999605577
0.747833251953125	0.0005255126953125	157.107009603343
0.75225830078125	0.00053179931640625	157.992019601108
0.756683349609375	0.000537994384765625	158.877029598874
0.7611083984375	0.000544525146484375	159.76203959664
0.765533447265625	0.000551727294921875	160.647049594405
0.76995849609375	0.00055938720703125	161.532059592171
0.774383544921875	0.000567169189453125	162.417069589936
0.77880859375	0.00057550048828125	163.302079587702
0.783233642578125	0.00058416748046875	164.187089585467
0.78765869140625	0.00059332275390625	165.072099583233
0.792083740234375	0.000603057861328125	165.957109580999
0.7965087890625	0.00061309814453125	166.842119578764
0.800933837890625	0.000623779296875	167.72712957653
0.80535888671875	0.000634765625	168.612139574295
0.809783935546875	0.00064666748046875	169.497149572061
0.814208984375	0.0006585693359375	170.382159569826
0.818634033203125	0.00067138671875	171.267169567592
0.82305908203125	0.000684814453125	172.152179565358
0.827484130859375	0.0006988525390625	173.037189563123
0.8319091796875	0.000712890625	173.922199560889
0.836334228515625	0.00072784423828125	174.807209558654
0.84075927734375	0.00074371337890625	175.69221955642
0.845184326171875	0.0007598876953125	176.577229554185
0.849609375	0.00077667236328125	177.462239551951
0.854034423828125	0.00079345703125	178.347249549716
0.85845947265625	0.0008123779296875	179.232259547482
0.862884521484375	0.00083099365234375	180.117269545248
0.8673095703125	0.000850830078125	181.002279543013
0.871734619140625	0.00087188720703125	181.887289540779
0.87615966796875	0.0008935546875	182.772299538544
0.880584716796875	0.00091583251953125	183.65730953631
0.885009765625	0.0009393310546875	184.542319534075
0.889434814453125	0.00096405029296875	185.427329531841
0.89385986328125	0.000989990234375	186.312339529607
0.898284912109375	0.00101654052734375	187.197349527372
0.9027099609375	0.0010443115234375	188.082359525138
0.907135009765625	0.00107421875	188.967369522903
0.91156005859375	0.00110504150390625	189.852379520669
0.915985107421875	0.00113800048828125	190.737389518434
0.92041015625	0.00117218017578125	191.6223995162
0.924835205078125	0.00120758056640625	192.507409513966
0.92926025390625	0.00124603271484375	193.392419511731
0.933685302734375	0.00128509521484375	194.277429509497
0.9381103515625	0.001329345703125	195.162439507262
0.942535400390625	0.00137481689453125	196.047449505028
0.94696044921875	0.0014215087890625	196.932459502793
0.951385498046875	0.00147125244140625	197.817469500559
0.955810546875	0.0015252685546875	198.702479498324
0.960235595703125	0.00158111572265625	199.58748949609
0.96466064453125	0.001640625	200.472499493856
0.969085693359375	0.00170257568359375	201.357509491621
0.9735107421875	0.00176788330078125	202.242519489387
0.977935791015625	0.0018365478515625	203.127529487152
0.98236083984375	0.001907958984375	204.012539484918
0.986785888671875	0.001983642578125	204.897549482683
0.9912109375	0.0020611572265625	205.782559480449
0.995635986328125	0.002144775390625	206.667569478215
1.00006103515625	0.0022296142578125	207.55257947598
0.995635986328125	0.001844482421875	208.437589473746
0.9912109375	0.00156646728515625	209.322599471511
0.986785888671875	0.00134490966796875	210.207609469277
0.98236083984375	0.0011578369140625	211.092619467042
0.977935791015625	0.0009967041015625	211.977629464808
0.9735107421875	0.0008563232421875	212.862639462573
0.969085693359375	0.0007305908203125	213.747649460339
0.96466064453125	0.00061859130859375	214.632659458105
0.960235595703125	0.00051910400390625	215.51766945587
0.955810546875	0.000430023193359375	216.402679453636
0.951385498046875	0.00035015869140625	217.287689451401
0.94696044921875	0.000278961181640625	218.172699449167
0.942535400390625	0.00021405029296875	219.057709446932
0.9381103515625	0.00015631103515625	219.942719444698
0.933685302734375	9.9029541015625E-05	220.827729442464
0.92926025390625	5.3680419921875E-05	221.712739440229
0.924835205078125	1.37054443359375E-05	222.597749437995
0.92041015625	-2.33642578125E-05	223.48275943576
0.915985107421875	-5.6549072265625E-05	224.367769433526
0.91156005859375	-8.7493896484375E-05	225.252779431291
0.907135009765625	-0.00011553955078125	226.137789429057
0.9027099609375	-0.000141876220703125	227.022799426823
0.898284912109375	-0.000165191650390625	227.907809424588
0.89385986328125	-0.00018658447265625	228.792819422354
0.889434814453125	-0.0002059326171875	229.677829420119
0.885009765625	-0.000224822998046875	230.562839417885
0.880584716796875	-0.0002412109375	231.44784941565
0.87615966796875	-0.000256683349609375	232.332859413416
0.871734619140625	-0.00027117919921875	233.217869411181
0.8673095703125	-0.0002840576171875	234.102879408947
0.862884521484375	-0.0002965087890625	234.987889406713
0.85845947265625	-0.000307647705078125	235.872899404478
0.854034423828125	-0.00031829833984375	236.757909402244
0.849609375	-0.000328338623046875	237.642919400009
0.845184326171875	-0.00033746337890625	238.527929397775
0.84075927734375	-0.000345672607421875	239.41293939554
0.836334228515625	-0.00035382080078125	240.297949393306
0.8319091796875	-0.000361480712890625	241.182959391072
0.827484130859375	-0.000368316650390625	242.067969388837
0.82305908203125	-0.000374908447265625	242.952979386603
0.818634033203125	-0.000380706787109375	243.837989384368
0.814208984375	-0.0003868408203125	244.722999382134
0.809783935546875	-0.000391998291015625	245.608009379899
0.80535888671875	-0.000396881103515625	246.493019377665
0.800933837890625	-0.00040167236328125	247.378029375431
0.7965087890625	-0.0004061279296875	248.263039373196
0.792083740234375	-0.00041033935546875	249.148049370962
0.78765869140625	-0.000414337158203125	250.033059368727
0.783233642578125	-0.000417755126953125	250.918069366493
0.77880859375	-0.000420867919921875	251.803079364258
0.774383544921875	-0.0004241943359375	252.688089362024
0.76995849609375	-0.000426849365234375	253.573099359789
0.765533447265625	-0.000429351806640625	254.458109357555
0.7611083984375	-0.0004322509765625	255.343119355321
0.756683349609375	-0.0004345703125	256.228129353086
0.75225830078125	-0.000436553955078125	257.113139350852
0.747833251953125	-0.000438751220703125	257.998149348617
0.743408203125	-0.000440399169921875	258.883159346383
0.738983154296875	-0.000440673828125	259.768169344148
0.73455810546875	-0.00044293212890625	260.653179341914
0.730133056640625	-0.000444732666015625	261.53818933968
0.7257080078125	-0.00044635009765625	262.423199337445
0.721282958984375	-0.0004476318359375	263.308209335211
0.71685791015625	-0.000448638916015625	264.193219332976
0.712432861328125	-0.0004498291015625	265.078229330742
0.7080078125	-0.00045123291015625	265.963239328507
0.703582763671875	-0.0004521484375	266.848249326273
0.69915771484375	-0.000452667236328125	267.733259324038
0.694732666015625	-0.000453399658203125	268.618269321804
0.6903076171875	-0.000454437255859375	269.50327931957
0.685882568359375	-0.000455322265625	270.388289317335
0.68145751953125	-0.000456207275390625	271.273299315101
0.677032470703125	-0.000456787109375	272.158309312866
0.672607421875	-0.00045721435546875	273.043319310632
0.668182373046875	-0.000458526611328125	273.928329308397
0.66375732421875	-0.00045880126953125	274.813339306163
0.659332275390625	-0.00046014404296875	275.698349303929
0.6549072265625	-0.000460784912109375	276.583359301694
0.650482177734375	-0.000461273193359375	277.46836929946
0.64605712890625	-0.00046221923828125	278.353379297225
0.641632080078125	-0.000463409423828125	279.238389294991
0.63720703125	-0.000464569091796875	280.123399292756
0.632781982421875	-0.000465057373046875	281.008409290522
0.62835693359375	-0.00046588134765625	281.893419288288
0.623931884765625	-0.0004688720703125	282.778429286053
0.6195068359375	-0.0004688720703125	283.663439283819
0.615081787109375	-0.00046942138671875	284.548449281584
0.61065673828125	-0.000470184326171875	285.43345927935
0.606231689453125	-0.00047113037109375	286.318469277115
0.601806640625	-0.0004722900390625	287.203479274881
0.597381591796875	-0.0004730224609375	288.088489272646
0.59295654296875	-0.0004744873046875	288.973499270412
0.588531494140625	-0.0004752197265625	289.858509268178
0.5841064453125	-0.00047589111328125	290.743519265943
0.579681396484375	-0.00047723388671875	291.628529263709
0.57525634765625	-0.00047845458984375	292.513539261474
0.570831298828125	-0.000480438232421875	293.39854925924
0.56640625	-0.0004814453125	294.283559257005
0.561981201171875	-0.000482513427734375	295.168569254771
0.55755615234375	-0.000484222412109375	296.053579252537
0.553131103515625	-0.000485260009765625	296.938589250302
0.5487060546875	-0.000486236572265625	297.823599248068
0.544281005859375	-0.000487457275390625	298.708609245833
0.53985595703125	-0.0004891357421875	299.593619243599
0.535430908203125	-0.000490478515625	300.478629241364
0.531005859375	-0.0004921875	301.36363923913
0.526580810546875	-0.000493988037109375	302.248649236896
0.52215576171875	-0.00049542236328125	303.133659234661
0.517730712890625	-0.000497344970703125	304.018669232427
0.5133056640625	-0.000499298095703125	304.903679230192
0.508880615234375	-0.00050067138671875	305.788689227958
0.50445556640625	-0.00050225830078125	306.673699225723
0.500030517578125	-0.000503936767578125	307.558709223489
0.49560546875	-0.000506072998046875	308.443719221254
0.491180419921875	-0.000507720947265625	309.32872921902
0.48675537109375	-0.000509368896484375	310.213739216786
0.482330322265625	-0.0005113525390625	311.098749214551
0.4779052734375	-0.0005130615234375	311.983759212317
0.473480224609375	-0.00051446533203125	312.868769210082
0.46905517578125	-0.000516357421875	313.753779207848
0.464630126953125	-0.000517669677734375	314.638789205613
0.460205078125	-0.00051959228515625	315.523799203379
0.455780029296875	-0.000521026611328125	316.408809201145
0.45135498046875	-0.00052325439453125	317.29381919891
0.446929931640625	-0.000524383544921875	318.178829196676
0.4425048828125	-0.000526580810546875	319.063839194441
0.438079833984375	-0.000528228759765625	319.948849192207
0.43365478515625	-0.00052984619140625	320.833859189972
0.429229736328125	-0.00053118896484375	321.718869187738
0.4248046875	-0.000532928466796875	322.603879185504
0.420379638671875	-0.000534210205078125	323.488889183269
0.41595458984375	-0.000535858154296875	324.373899181035
0.411529541015625	-0.000537567138671875	325.2589091788
0.4071044921875	-0.000538970947265625	326.143919176566
0.402679443359375	-0.00054052734375	327.028929174331
0.39825439453125	-0.000542144775390625	327.913939172097
