Potential applied (V)	WE(1).Current (A)	Time (s)
0.004425048828125	-0.00141387939453125	8.42532997872809
0.00885009765625	-0.00092620849609375	9.31033997649365
0.013275146484375	-0.00057952880859375	10.1953499742592
0.0177001953125	-0.00032879638671875	11.0803599720248
0.022125244140625	-0.000144989013671875	11.9653699697903
0.02655029296875	-6.6650390625E-06	12.8503799675559
0.030975341796875	9.771728515625E-05	13.7353899653215
0.035400390625	0.0001785888671875	14.620399963087
0.039825439453125	0.00024127197265625	15.5054099608526
0.04425048828125	0.000290771484375	16.3904199586182
0.048675537109375	0.000330169677734375	17.2754299563837
0.0531005859375	0.0003612060546875	18.1604399541493
0.057525634765625	0.000386688232421875	19.0454499519149
0.06195068359375	0.000407440185546875	19.9304599496804
0.066375732421875	0.000424285888671875	20.815469947446
0.07080078125	0.00043768310546875	21.7004799452116
0.075225830078125	0.00044970703125	22.5854899429771
0.07965087890625	0.000458160400390625	23.4704999407427
0.084075927734375	0.00046575927734375	24.3555099385082
0.0885009765625	0.000472076416015625	25.2405199362738
0.092926025390625	0.000477325439453125	26.1255299340394
0.09735107421875	0.000481475830078125	27.0105399318049
0.101776123046875	0.0004847412109375	27.8955499295705
0.106201171875	0.00048736572265625	28.7805599273361
0.110626220703125	0.0004888916015625	29.6655699251016
0.11505126953125	0.00048992919921875	30.5505799228672
0.119476318359375	0.000489837646484375	31.4355899206328
0.1239013671875	0.000490753173828125	32.3205999183983
0.128326416015625	0.000491241455078125	33.2056099161639
0.13275146484375	0.00049151611328125	34.0906199139295
0.137176513671875	0.000491119384765625	34.975629911695
0.1416015625	0.000490234375	35.8606399094606
0.146026611328125	0.0004898681640625	36.7456499072262
0.15045166015625	0.000489410400390625	37.6306599049917
0.154876708984375	0.00048870849609375	38.5156699027573
0.1593017578125	0.00048748779296875	39.4006799005228
0.163726806640625	0.000486419677734375	40.2856898982884
0.16815185546875	0.000485687255859375	41.170699896054
0.172576904296875	0.000484527587890625	42.0557098938195
0.177001953125	0.000483673095703125	42.9407198915851
0.181427001953125	0.000482635498046875	43.8257298893507
0.18585205078125	0.000480926513671875	44.7107398871162
0.190277099609375	0.00047991943359375	45.5957498848818
0.1947021484375	0.0004786376953125	46.4807598826474
0.199127197265625	0.000476776123046875	47.3657698804129
0.20355224609375	0.000476165771484375	48.2507798781785
0.207977294921875	0.0004749755859375	49.1357898759441
0.21240234375	0.000473541259765625	50.0207998737096
0.216827392578125	0.000472808837890625	50.9058098714752
0.22125244140625	0.00047161865234375	51.7908198692407
0.225677490234375	0.000470550537109375	52.6758298670063
0.2301025390625	0.000469329833984375	53.5608398647719
0.234527587890625	0.00046795654296875	54.4458498625374
0.23895263671875	0.000466827392578125	55.330859860303
0.243377685546875	0.00046600341796875	56.2158698580686
0.247802734375	0.00046514892578125	57.1008798558341
0.252227783203125	0.000464080810546875	57.9858898535997
0.25665283203125	0.000463623046875	58.8708998513653
0.261077880859375	0.000462432861328125	59.7559098491308
0.2655029296875	0.00046142578125	60.6409198468964
0.269927978515625	0.000460693359375	61.525929844662
0.27435302734375	0.00045947265625	62.4109398424275
0.278778076171875	0.000458648681640625	63.2959498401931
0.283203125	0.00045794677734375	64.1809598379587
0.287628173828125	0.0004576416015625	65.0659698357242
0.29205322265625	0.000456787109375	65.9509798334898
0.296478271484375	0.000455963134765625	66.8359898312553
0.3009033203125	0.00045562744140625	67.7209998290209
0.305328369140625	0.000454833984375	68.6060098267865
0.30975341796875	0.0004544677734375	69.491019824552
0.314178466796875	0.00045501708984375	70.3760298223176
0.318603515625	0.000453887939453125	71.2610398200832
0.323028564453125	0.00045294189453125	72.1460498178487
0.32745361328125	0.000452301025390625	73.0310598156143
0.331878662109375	0.000451934814453125	73.9160698133799
0.3363037109375	0.000451080322265625	74.8010798111454
0.340728759765625	0.000450164794921875	75.686089808911
0.34515380859375	0.000449859619140625	76.5710998066766
0.349578857421875	0.00044970703125	77.4561098044421
0.35400390625	0.000447906494140625	78.3411198022077
0.358428955078125	0.00044830322265625	79.2261297999733
0.36285400390625	0.00044757080078125	80.1111397977388
0.367279052734375	0.00044732666015625	80.9961497955044
0.3717041015625	0.00044671630859375	81.8811597932699
0.376129150390625	0.00044580078125	82.7661697910355
0.38055419921875	0.00044561767578125	83.6511797888011
0.384979248046875	0.00044482421875	84.5361897865666
0.389404296875	0.0004442138671875	85.4211997843322
0.393829345703125	0.000443023681640625	86.3062097820978
0.39825439453125	0.000442626953125	87.1912197798633
0.402679443359375	0.000442108154296875	88.0762297776289
0.4071044921875	0.0004412841796875	88.9612397753945
0.411529541015625	0.0004405517578125	89.84624977316
0.41595458984375	0.000439727783203125	90.7312597709256
0.420379638671875	0.00043914794921875	91.6162697686912
0.4248046875	0.000438262939453125	92.5012797664567
0.429229736328125	0.000438079833984375	93.3862897642223
0.43365478515625	0.000436859130859375	94.2712997619878
0.438079833984375	0.000436553955078125	95.1563097597534
0.4425048828125	0.000436004638671875	96.041319757519
0.446929931640625	0.000435638427734375	96.9263297552845
0.45135498046875	0.000435455322265625	97.8113397530501
0.455780029296875	0.00043487548828125	98.6963497508157
0.460205078125	0.000434173583984375	99.5813597485812
0.464630126953125	0.00043414306640625	100.466369746347
0.46905517578125	0.000433319091796875	101.351379744112
0.473480224609375	0.0004329833984375	102.236389741878
0.4779052734375	0.0004327392578125	103.121399739643
0.482330322265625	0.000432159423828125	104.006409737409
0.48675537109375	0.000431793212890625	104.891419735175
0.491180419921875	0.000431671142578125	105.77642973294
0.49560546875	0.000431396484375	106.661439730706
0.500030517578125	0.000431243896484375	107.546449728471
0.50445556640625	0.00043115234375	108.431459726237
0.508880615234375	0.00043035888671875	109.316469724002
0.5133056640625	0.000430572509765625	110.201479721768
0.517730712890625	0.000430419921875	111.086489719534
0.52215576171875	0.000430389404296875	111.971499717299
0.526580810546875	0.0004305419921875	112.856509715065
0.531005859375	0.000430511474609375	113.74151971283
0.535430908203125	0.00043072509765625	114.626529710596
0.53985595703125	0.00043060302734375	115.511539708361
0.544281005859375	0.000430450439453125	116.396549706127
0.5487060546875	0.000430450439453125	117.281559703893
0.553131103515625	0.0004310302734375	118.166569701658
0.55755615234375	0.0004312744140625	119.051579699424
0.561981201171875	0.000431488037109375	119.936589697189
0.56640625	0.00043170166015625	120.821599694955
0.570831298828125	0.0004324951171875	121.70660969272
0.57525634765625	0.0004329833984375	122.591619690486
0.579681396484375	0.000433258056640625	123.476629688251
0.5841064453125	0.000433868408203125	124.361639686017
0.588531494140625	0.000433929443359375	125.246649683783
0.59295654296875	0.000434967041015625	126.131659681548
0.597381591796875	0.000436004638671875	127.016669679314
0.601806640625	0.000437042236328125	127.901679677079
0.606231689453125	0.00043792724609375	128.786689674845
0.61065673828125	0.00043896484375	129.67169967261
0.615081787109375	0.00043994140625	130.556709670376
0.6195068359375	0.000441192626953125	131.441719668142
0.623931884765625	0.000442626953125	132.326729665907
0.62835693359375	0.0004454345703125	133.211739663673
0.632781982421875	0.000445953369140625	134.096749661438
0.63720703125	0.000446929931640625	134.981759659204
0.641632080078125	0.00044830322265625	135.866769656969
0.64605712890625	0.00044964599609375	136.751779654735
0.650482177734375	0.00045159912109375	137.636789652501
0.6549072265625	0.00045361328125	138.521799650266
0.659332275390625	0.00045526123046875	139.406809648032
0.66375732421875	0.000457122802734375	140.291819645797
0.668182373046875	0.00045941162109375	141.176829643563
0.672607421875	0.00046173095703125	142.061839641328
0.677032470703125	0.0004637451171875	142.946849639094
0.68145751953125	0.00046630859375	143.831859636859
0.685882568359375	0.0004693603515625	144.716869634625
0.6903076171875	0.000471649169921875	145.601879632391
0.694732666015625	0.000474578857421875	146.486889630156
0.69915771484375	0.000477783203125	147.371899627922
0.703582763671875	0.000480560302734375	148.256909625687
0.7080078125	0.000484039306640625	149.141919623453
0.712432861328125	0.000487640380859375	150.026929621218
0.71685791015625	0.000492095947265625	150.911939618984
0.721282958984375	0.00049609375	151.79694961675
0.7257080078125	0.0005003662109375	152.681959614515
0.730133056640625	0.000504608154296875	153.566969612281
0.73455810546875	0.000509552001953125	154.451979610046
0.738983154296875	0.000514617919921875	155.336989607812
0.743408203125	0.00051910400390625	156.221999605577
0.747833251953125	0.0005255126953125	157.107009603343
0.75225830078125	0.00053179931640625	157.992019601108
0.756683349609375	0.000537994384765625	158.877029598874
0.7611083984375	0.000544525146484375	159.76203959664
0.765533447265625	0.000551727294921875	160.647049594405
0.76995849609375	0.00055938720703125	161.532059592171
0.774383544921875	0.000567169189453125	162.417069589936
0.77880859375	0.00057550048828125	163.302079587702
0.783233642578125	0.00058416748046875	164.187089585467
0.78765869140625	0.00059332275390625	165.072099583233
0.792083740234375	0.000603057861328125	165.957109580999
0.7965087890625	0.00061309814453125	166.842119578764
0.800933837890625	0.000623779296875	167.72712957653
0.80535888671875	0.000634765625	168.612139574295
0.809783935546875	0.00064666748046875	169.497149572061
0.814208984375	0.0006585693359375	170.382159569826
0.818634033203125	0.00067138671875	171.267169567592
0.82305908203125	0.000684814453125	172.152179565358
0.827484130859375	0.0006988525390625	173.037189563123
0.8319091796875	0.000712890625	173.922199560889
0.836334228515625	0.00072784423828125	174.807209558654
0.84075927734375	0.00074371337890625	175.69221955642
0.845184326171875	0.0007598876953125	176.577229554185
0.849609375	0.00077667236328125	177.462239551951
0.854034423828125	0.00079345703125	178.347249549716
0.85845947265625	0.0008123779296875	179.232259547482
0.862884521484375	0.00083099365234375	180.117269545248
0.8673095703125	0.000850830078125	181.002279543013
0.871734619140625	0.00087188720703125	181.887289540779
0.87615966796875	0.0008935546875	182.772299538544
0.880584716796875	0.00091583251953125	183.65730953631
0.885009765625	0.0009393310546875	184.542319534075
0.889434814453125	0.00096405029296875	185.427329531841
0.89385986328125	0.000989990234375	186.312339529607
0.898284912109375	0.00101654052734375	187.197349527372
0.9027099609375	0.0010443115234375	188.082359525138
0.907135009765625	0.00107421875	188.967369522903
0.91156005859375	0.00110504150390625	189.852379520669
0.915985107421875	0.00113800048828125	190.737389518434
0.92041015625	0.00117218017578125	191.6223995162
0.924835205078125	0.00120758056640625	192.507409513966
0.92926025390625	0.00124603271484375	193.392419511731
0.933685302734375	0.00128509521484375	194.277429509497
0.9381103515625	0.001329345703125	195.162439507262
0.942535400390625	0.00137481689453125	196.047449505028
0.94696044921875	0.0014215087890625	196.932459502793
0.951385498046875	0.00147125244140625	197.817469500559
0.955810546875	0.0015252685546875	198.702479498324
0.960235595703125	0.00158111572265625	199.58748949609
0.96466064453125	0.001640625	200.472499493856
0.969085693359375	0.00170257568359375	201.357509491621
0.9735107421875	0.00176788330078125	202.242519489387
0.977935791015625	0.0018365478515625	203.127529487152
0.98236083984375	0.001907958984375	204.012539484918
0.986785888671875	0.001983642578125	204.897549482683
0.9912109375	0.0020611572265625	205.782559480449
0.995635986328125	0.002144775390625	206.667569478215
1.00006103515625	0.0022296142578125	207.55257947598
0.995635986328125	0.001844482421875	208.437589473746
0.9912109375	0.00156646728515625	209.322599471511
0.986785888671875	0.00134490966796875	210.207609469277
0.98236083984375	0.0011578369140625	211.092619467042
0.977935791015625	0.0009967041015625	211.977629464808
0.9735107421875	0.0008563232421875	212.862639462573
0.969085693359375	0.0007305908203125	213.747649460339
0.96466064453125	0.00061859130859375	214.632659458105
0.960235595703125	0.00051910400390625	215.51766945587
0.955810546875	0.000430023193359375	216.402679453636
0.951385498046875	0.00035015869140625	217.287689451401
0.94696044921875	0.000278961181640625	218.172699449167
0.942535400390625	0.00021405029296875	219.057709446932
0.9381103515625	0.00015631103515625	219.942719444698
0.933685302734375	9.9029541015625E-05	220.827729442464
0.92926025390625	5.3680419921875E-05	221.712739440229
0.924835205078125	1.37054443359375E-05	222.597749437995
0.92041015625	-2.33642578125E-05	223.48275943576
0.915985107421875	-5.6549072265625E-05	224.367769433526
0.91156005859375	-8.7493896484375E-05	225.252779431291
0.907135009765625	-0.00011553955078125	226.137789429057
0.9027099609375	-0.000141876220703125	227.022799426823
0.898284912109375	-0.000165191650390625	227.907809424588
0.89385986328125	-0.00018658447265625	228.792819422354
0.889434814453125	-0.0002059326171875	229.677829420119
0.885009765625	-0.000224822998046875	230.562839417885
0.880584716796875	-0.0002412109375	231.44784941565
0.87615966796875	-0.000256683349609375	232.332859413416
0.871734619140625	-0.00027117919921875	233.217869411181
0.8673095703125	-0.0002840576171875	234.102879408947
0.862884521484375	-0.0002965087890625	234.987889406713
0.85845947265625	-0.000307647705078125	235.872899404478
0.854034423828125	-0.00031829833984375	236.757909402244
0.849609375	-0.000328338623046875	237.642919400009
0.845184326171875	-0.00033746337890625	238.527929397775
0.84075927734375	-0.000345672607421875	239.41293939554
0.836334228515625	-0.00035382080078125	240.297949393306
0.8319091796875	-0.000361480712890625	241.182959391072
0.827484130859375	-0.000368316650390625	242.067969388837
0.82305908203125	-0.000374908447265625	242.952979386603
0.818634033203125	-0.000380706787109375	243.837989384368
0.814208984375	-0.0003868408203125	244.722999382134
0.809783935546875	-0.000391998291015625	245.608009379899
0.80535888671875	-0.000396881103515625	246.493019377665
0.800933837890625	-0.00040167236328125	247.378029375431
0.7965087890625	-0.0004061279296875	248.263039373196
0.792083740234375	-0.00041033935546875	249.148049370962
0.78765869140625	-0.000414337158203125	250.033059368727
0.783233642578125	-0.000417755126953125	250.918069366493
0.77880859375	-0.000420867919921875	251.803079364258
0.774383544921875	-0.0004241943359375	252.688089362024
0.76995849609375	-0.000426849365234375	253.573099359789
0.765533447265625	-0.000429351806640625	254.458109357555
0.7611083984375	-0.0004322509765625	255.343119355321
0.756683349609375	-0.0004345703125	256.228129353086
0.75225830078125	-0.000436553955078125	257.113139350852
0.747833251953125	-0.000438751220703125	257.998149348617
0.743408203125	-0.000440399169921875	258.883159346383
0.738983154296875	-0.000440673828125	259.768169344148
0.73455810546875	-0.00044293212890625	260.653179341914
0.730133056640625	-0.000444732666015625	261.53818933968
0.7257080078125	-0.00044635009765625	262.423199337445
0.721282958984375	-0.0004476318359375	263.308209335211
0.71685791015625	-0.000448638916015625	264.193219332976
0.712432861328125	-0.0004498291015625	265.078229330742
0.7080078125	-0.00045123291015625	265.963239328507
0.703582763671875	-0.0004521484375	266.848249326273
0.69915771484375	-0.000452667236328125	267.733259324038
0.694732666015625	-0.000453399658203125	268.618269321804
0.6903076171875	-0.000454437255859375	269.50327931957
0.685882568359375	-0.000455322265625	270.388289317335
0.68145751953125	-0.000456207275390625	271.273299315101
0.677032470703125	-0.000456787109375	272.158309312866
0.672607421875	-0.00045721435546875	273.043319310632
0.668182373046875	-0.000458526611328125	273.928329308397
0.66375732421875	-0.00045880126953125	274.813339306163
0.659332275390625	-0.00046014404296875	275.698349303929
0.6549072265625	-0.000460784912109375	276.583359301694
0.650482177734375	-0.000461273193359375	277.46836929946
0.64605712890625	-0.00046221923828125	278.353379297225
0.641632080078125	-0.000463409423828125	279.238389294991
0.63720703125	-0.000464569091796875	280.123399292756
0.632781982421875	-0.000465057373046875	281.008409290522
0.62835693359375	-0.00046588134765625	281.893419288288
0.623931884765625	-0.0004688720703125	282.778429286053
0.6195068359375	-0.0004688720703125	283.663439283819
0.615081787109375	-0.00046942138671875	284.548449281584
0.61065673828125	-0.000470184326171875	285.43345927935
0.606231689453125	-0.00047113037109375	286.318469277115
0.601806640625	-0.0004722900390625	287.203479274881
0.597381591796875	-0.0004730224609375	288.088489272646
0.59295654296875	-0.0004744873046875	288.973499270412
0.588531494140625	-0.0004752197265625	289.858509268178
0.5841064453125	-0.00047589111328125	290.743519265943
0.579681396484375	-0.00047723388671875	291.628529263709
0.57525634765625	-0.00047845458984375	292.513539261474
0.570831298828125	-0.000480438232421875	293.39854925924
0.56640625	-0.0004814453125	294.283559257005
0.561981201171875	-0.000482513427734375	295.168569254771
0.55755615234375	-0.000484222412109375	296.053579252537
0.553131103515625	-0.000485260009765625	296.938589250302
0.5487060546875	-0.000486236572265625	297.823599248068
0.544281005859375	-0.000487457275390625	298.708609245833
0.53985595703125	-0.0004891357421875	299.593619243599
0.535430908203125	-0.000490478515625	300.478629241364
0.531005859375	-0.0004921875	301.36363923913
0.526580810546875	-0.000493988037109375	302.248649236896
0.52215576171875	-0.00049542236328125	303.133659234661
0.517730712890625	-0.000497344970703125	304.018669232427
0.5133056640625	-0.000499298095703125	304.903679230192
0.508880615234375	-0.00050067138671875	305.788689227958
0.50445556640625	-0.00050225830078125	306.673699225723
0.500030517578125	-0.000503936767578125	307.558709223489
0.49560546875	-0.000506072998046875	308.443719221254
0.491180419921875	-0.000507720947265625	309.32872921902
0.48675537109375	-0.000509368896484375	310.213739216786
0.482330322265625	-0.0005113525390625	311.098749214551
0.4779052734375	-0.0005130615234375	311.983759212317
0.473480224609375	-0.00051446533203125	312.868769210082
0.46905517578125	-0.000516357421875	313.753779207848
0.464630126953125	-0.000517669677734375	314.638789205613
0.460205078125	-0.00051959228515625	315.523799203379
0.455780029296875	-0.000521026611328125	316.408809201145
0.45135498046875	-0.00052325439453125	317.29381919891
0.446929931640625	-0.000524383544921875	318.178829196676
0.4425048828125	-0.000526580810546875	319.063839194441
0.438079833984375	-0.000528228759765625	319.948849192207
0.43365478515625	-0.00052984619140625	320.833859189972
0.429229736328125	-0.00053118896484375	321.718869187738
0.4248046875	-0.000532928466796875	322.603879185504
0.420379638671875	-0.000534210205078125	323.488889183269
0.41595458984375	-0.000535858154296875	324.373899181035
0.411529541015625	-0.000537567138671875	325.2589091788
0.4071044921875	-0.000538970947265625	326.143919176566
0.402679443359375	-0.00054052734375	327.028929174331
0.39825439453125	-0.000542144775390625	327.913939172097
0.393829345703125	-0.00054400634765625	328.798949169862
0.389404296875	-0.00054522705078125	329.683959167628
0.384979248046875	-0.00054669189453125	330.568969165394
0.38055419921875	-0.00054833984375	331.453979163159
0.376129150390625	-0.000550201416015625	332.338989160925
0.3717041015625	-0.00055181884765625	333.22399915869
0.367279052734375	-0.000553436279296875	334.109009156456
0.36285400390625	-0.000555450439453125	334.994019154221
0.358428955078125	-0.00055718994140625	335.879029151987
0.35400390625	-0.0005595703125	336.764039149753
0.349578857421875	-0.000560638427734375	337.649049147518
0.34515380859375	-0.00056292724609375	338.534059145284
0.340728759765625	-0.00056463623046875	339.419069143049
0.3363037109375	-0.000566741943359375	340.304079140815
0.331878662109375	-0.000569000244140625	341.18908913858
0.32745361328125	-0.000571197509765625	342.074099136346
0.323028564453125	-0.000573516845703125	342.959109134111
0.318603515625	-0.00057562255859375	343.844119131877
0.314178466796875	-0.00057781982421875	344.729129129643
0.30975341796875	-0.000582183837890625	345.614139127408
0.305328369140625	-0.000583953857421875	346.499149125174
0.3009033203125	-0.000585845947265625	347.384159122939
0.296478271484375	-0.00058831787109375	348.269169120705
0.29205322265625	-0.000591094970703125	349.15417911847
0.287628173828125	-0.000593414306640625	350.039189116236
0.283203125	-0.00059625244140625	350.924199114002
0.278778076171875	-0.00059844970703125	351.809209111767
0.27435302734375	-0.0006011962890625	352.694219109533
0.269927978515625	-0.0006036376953125	353.579229107298
0.2655029296875	-0.00060638427734375	354.464239105064
0.261077880859375	-0.000609130859375	355.349249102829
0.25665283203125	-0.0006121826171875	356.234259100595
0.252227783203125	-0.00061492919921875	357.119269098361
0.247802734375	-0.00061767578125	358.004279096126
0.243377685546875	-0.000621337890625	358.889289093892
0.23895263671875	-0.0006243896484375	359.774299091657
0.234527587890625	-0.00062744140625	360.659309089423
0.2301025390625	-0.00063018798828125	361.544319087188
0.225677490234375	-0.00063385009765625	362.429329084954
0.22125244140625	-0.00063720703125	363.314339082719
0.216827392578125	-0.000640869140625	364.199349080485
0.21240234375	-0.0006439208984375	365.084359078251
0.207977294921875	-0.00064727783203125	365.969369076016
0.20355224609375	-0.0006512451171875	366.854379073782
0.199127197265625	-0.00065521240234375	367.739389071547
0.1947021484375	-0.0006585693359375	368.624399069313
0.190277099609375	-0.000662841796875	369.509409067078
0.18585205078125	-0.00066680908203125	370.394419064844
0.181427001953125	-0.00067138671875	371.27942906261
0.177001953125	-0.00067535400390625	372.164439060375
0.172576904296875	-0.000679931640625	373.049449058141
0.16815185546875	-0.0006842041015625	373.934459055906
0.163726806640625	-0.00068939208984375	374.819469053672
0.1593017578125	-0.0006939697265625	375.704479051437
0.154876708984375	-0.00069854736328125	376.589489049203
0.15045166015625	-0.000703125	377.474499046969
0.146026611328125	-0.0007086181640625	378.359509044734
0.1416015625	-0.00071502685546875	379.2445190425
0.137176513671875	-0.00071929931640625	380.129529040265
0.13275146484375	-0.00072479248046875	381.014539038031
0.128326416015625	-0.0007305908203125	381.899549035796
0.1239013671875	-0.00073699951171875	382.784559033562
0.119476318359375	-0.00074249267578125	383.669569031327
0.11505126953125	-0.00074737548828125	384.554579029093
0.110626220703125	-0.00075408935546875	385.439589026859
0.106201171875	-0.00076080322265625	386.324599024624
0.101776123046875	-0.00076751708984375	387.20960902239
0.09735107421875	-0.00077392578125	388.094619020155
0.092926025390625	-0.0007806396484375	388.979629017921
0.0885009765625	-0.000787353515625	389.864639015686
0.084075927734375	-0.0007940673828125	390.749649013452
0.07965087890625	-0.0008013916015625	391.634659011218
0.075225830078125	-0.00080841064453125	392.519669008983
0.07080078125	-0.00081634521484375	393.404679006749
0.066375732421875	-0.00082366943359375	394.289689004514
0.06195068359375	-0.000831298828125	395.17469900228
0.057525634765625	-0.00083953857421875	396.059709000045
0.0531005859375	-0.00084747314453125	396.944718997811
0.048675537109375	-0.0008563232421875	397.829728995576
0.04425048828125	-0.0008642578125	398.714738993342
0.039825439453125	-0.00087371826171875	399.599748991108
0.035400390625	-0.000882568359375	400.484758988873
0.030975341796875	-0.000892333984375	401.369768986639
0.02655029296875	-0.0009014892578125	402.254778984404
0.022125244140625	-0.000911865234375	403.13978898217
0.0177001953125	-0.00092193603515625	404.024798979935
0.013275146484375	-0.0009326171875	404.909808977701
0.00885009765625	-0.0009429931640625	405.794818975467
0.004425048828125	-0.00095458984375	406.679828973232
0	-0.00096588134765625	407.564838970998
0.004425048828125	-0.0005010986328125	408.449848968763
0.00885009765625	-0.0001998291015625	409.334858966529
0.013275146484375	2.7191162109375E-06	410.219868964294
0.0177001953125	0.000142730712890625	411.10487896206
0.022125244140625	0.0002418212890625	411.989888959826
0.02655029296875	0.000313446044921875	412.874898957591
0.030975341796875	0.0003662109375	413.759908955357
0.035400390625	0.000405548095703125	414.644918953122
0.039825439453125	0.000435577392578125	415.529928950888
0.04425048828125	0.00045843505859375	416.414938948653
0.048675537109375	0.00047662353515625	417.299948946419
0.0531005859375	0.000490386962890625	418.184958944184
0.057525634765625	0.000501800537109375	419.06996894195
0.06195068359375	0.0005101318359375	419.954978939716
0.066375732421875	0.000516937255859375	420.839988937481
0.07080078125	0.00052227783203125	421.724998935247
0.075225830078125	0.000526031494140625	422.610008933012
0.07965087890625	0.000528900146484375	423.495018930778
0.084075927734375	0.00053143310546875	424.380028928543
0.0885009765625	0.000532562255859375	425.265038926309
0.092926025390625	0.0005333251953125	426.150048924075
0.09735107421875	0.000533660888671875	427.03505892184
0.101776123046875	0.000533599853515625	427.920068919606
0.106201171875	0.000533416748046875	428.805078917371
0.110626220703125	0.000532562255859375	429.690088915137
0.11505126953125	0.000531982421875	430.575098912902
0.119476318359375	0.0005294189453125	431.460108910668
0.1239013671875	0.00052813720703125	432.345118908434
0.128326416015625	0.00052703857421875	433.230128906199
0.13275146484375	0.000525238037109375	434.115138903965
0.137176513671875	0.00052349853515625	435.00014890173
0.1416015625	0.00052154541015625	435.885158899496
0.146026611328125	0.00052020263671875	436.770168897261
0.15045166015625	0.00051873779296875	437.655178895027
0.154876708984375	0.00051641845703125	438.540188892792
0.1593017578125	0.000514862060546875	439.425198890558
0.163726806640625	0.0005133056640625	440.310208888324
0.16815185546875	0.000511199951171875	441.195218886089
0.172576904296875	0.000509490966796875	442.080228883855
0.177001953125	0.00050732421875	442.96523888162
0.181427001953125	0.00050579833984375	443.850248879386
0.18585205078125	0.000503692626953125	444.735258877151
0.190277099609375	0.0005023193359375	445.620268874917
0.1947021484375	0.000500274658203125	446.505278872683
0.199127197265625	0.0004984130859375	447.390288870448
0.20355224609375	0.000497100830078125	448.275298868214
0.207977294921875	0.000495574951171875	449.160308865979
0.21240234375	0.000493865966796875	450.045318863745
0.216827392578125	0.00049285888671875	450.93032886151
0.22125244140625	0.000491241455078125	451.815338859276
0.225677490234375	0.000489715576171875	452.700348857041
0.2301025390625	0.0004884033203125	453.585358854807
0.234527587890625	0.000486846923828125	454.470368852573
0.23895263671875	0.000486114501953125	455.355378850338
0.243377685546875	0.00048480224609375	456.240388848104
0.247802734375	0.000483428955078125	457.125398845869
0.252227783203125	0.000482391357421875	458.010408843635
0.25665283203125	0.000481781005859375	458.8954188414
0.261077880859375	0.000480377197265625	459.780428839166
0.2655029296875	0.000479522705078125	460.665438836932
0.269927978515625	0.0004786376953125	461.550448834697
0.27435302734375	0.00047808837890625	462.435458832463
0.278778076171875	0.00047735595703125	463.320468830228
0.283203125	0.00047625732421875	464.205478827994
0.287628173828125	0.000475433349609375	465.090488825759
0.29205322265625	0.000474884033203125	465.975498823525
0.296478271484375	0.00047393798828125	466.860508821291
0.3009033203125	0.000473785400390625	467.745518819056
0.305328369140625	0.000473114013671875	468.630528816822
0.30975341796875	0.00047247314453125	469.515538814587
0.314178466796875	0.000473175048828125	470.400548812353
0.318603515625	0.00047216796875	471.285558810118
0.323028564453125	0.00047149658203125	472.170568807884
0.32745361328125	0.00047052001953125	473.055578805649
0.331878662109375	0.00047003173828125	473.940588803415
0.3363037109375	0.000469329833984375	474.825598801181
0.340728759765625	0.00046917724609375	475.710608798946
0.34515380859375	0.00046881103515625	476.595618796712
0.349578857421875	0.000468231201171875	477.480628794477
0.35400390625	0.00046661376953125	478.365638792243
0.358428955078125	0.000466949462890625	479.250648790008
0.36285400390625	0.000467010498046875	480.135658787774
0.367279052734375	0.00046636962890625	481.02066878554
0.3717041015625	0.00046624755859375	481.905678783305
0.376129150390625	0.000465667724609375	482.790688781071
0.38055419921875	0.000464935302734375	483.675698778836
0.384979248046875	0.00046435546875	484.560708776602
0.389404296875	0.000463592529296875	485.445718774367
0.393829345703125	0.000463104248046875	486.330728772133
0.39825439453125	0.000462432861328125	487.215738769899
0.402679443359375	0.000462158203125	488.100748767664
0.4071044921875	0.000461639404296875	488.98575876543
0.411529541015625	0.00046124267578125	489.870768763195
0.41595458984375	0.00046087646484375	490.755778760961
0.420379638671875	0.000460205078125	491.640788758726
0.4248046875	0.000459808349609375	492.525798756492
0.429229736328125	0.000459381103515625	493.410808754257
0.43365478515625	0.000458984375	494.295818752023
0.438079833984375	0.000458953857421875	495.180828749789
0.4425048828125	0.000459136962890625	496.065838747554
0.446929931640625	0.00045843505859375	496.95084874532
0.45135498046875	0.000458038330078125	497.835858743085
0.455780029296875	0.00045819091796875	498.720868740851
0.460205078125	0.00045831298828125	499.605878738616
0.464630126953125	0.0004581298828125	500.490888736382
0.46905517578125	0.000457977294921875	501.375898734148
0.473480224609375	0.000457794189453125	502.260908731913
0.4779052734375	0.00045819091796875	503.145918729679
0.482330322265625	0.00045806884765625	504.030928727444
0.48675537109375	0.00045782470703125	504.91593872521
0.491180419921875	0.000458251953125	505.800948722975
0.49560546875	0.00045849609375	506.685958720741
0.500030517578125	0.000458587646484375	507.570968718506
0.50445556640625	0.000458770751953125	508.455978716272
0.508880615234375	0.000458526611328125	509.340988714038
0.5133056640625	0.000459136962890625	510.225998711803
0.517730712890625	0.000459228515625	511.111008709569
0.52215576171875	0.000459625244140625	511.996018707334
0.526580810546875	0.0004600830078125	512.8810287051
0.531005859375	0.000459716796875	513.766038702865
0.535430908203125	0.000460968017578125	514.651048700631
0.53985595703125	0.00046148681640625	515.536058698397
0.544281005859375	0.000462158203125	516.421068696162
0.5487060546875	0.00046246337890625	517.306078693928
0.553131103515625	0.00046319580078125	518.191088691693
0.55755615234375	0.000464080810546875	519.076098689459
0.561981201171875	0.000465118408203125	519.961108687224
0.56640625	0.0004661865234375	520.84611868499
0.570831298828125	0.000467376708984375	521.731128682756
0.57525634765625	0.00046832275390625	522.616138680521
0.579681396484375	0.000469940185546875	523.501148678287
0.5841064453125	0.000470458984375	524.386158676052
0.588531494140625	0.00047125244140625	525.271168673818
0.59295654296875	0.000472930908203125	526.156178671583
0.597381591796875	0.00047442626953125	527.041188669349
0.601806640625	0.000476104736328125	527.926198667114
0.606231689453125	0.000477447509765625	528.81120866488
0.61065673828125	0.00047918701171875	529.696218662646
0.615081787109375	0.0004810791015625	530.581228660411
0.6195068359375	0.000483154296875	531.466238658177
0.623931884765625	0.000485565185546875	532.351248655942
0.62835693359375	0.00048907470703125	533.236258653708
0.632781982421875	0.0004898681640625	534.121268651473
0.63720703125	0.00049224853515625	535.006278649239
0.641632080078125	0.0004942626953125	535.891288647005
0.64605712890625	0.00049615478515625	536.77629864477
0.650482177734375	0.000498870849609375	537.661308642536
0.6549072265625	0.00050152587890625	538.546318640301
0.659332275390625	0.00050445556640625	539.431328638067
0.66375732421875	0.000506866455078125	540.316338635832
0.668182373046875	0.000509613037109375	541.201348633598
0.672607421875	0.00051275634765625	542.086358631364
0.677032470703125	0.00051593017578125	542.971368629129
0.68145751953125	0.000519317626953125	543.856378626895
0.685882568359375	0.00052252197265625	544.74138862466
0.6903076171875	0.000525970458984375	545.626398622426
0.694732666015625	0.0005296630859375	546.511408620191
0.69915771484375	0.0005335693359375	547.396418617957
0.703582763671875	0.00053662109375	548.281428615722
0.7080078125	0.000540985107421875	549.166438613488
0.712432861328125	0.000545501708984375	550.051448611254
0.71685791015625	0.00055029296875	550.936458609019
0.721282958984375	0.00055474853515625	551.821468606785
0.7257080078125	0.000559906005859375	552.70647860455
0.730133056640625	0.000565155029296875	553.591488602316
0.73455810546875	0.000570220947265625	554.476498600081
0.738983154296875	0.00057550048828125	555.361508597847
0.743408203125	0.000580322265625	556.246518595613
0.747833251953125	0.000587310791015625	557.131528593378
0.75225830078125	0.00059344482421875	558.016538591144
0.756683349609375	0.0005999755859375	558.901548588909
0.7611083984375	0.000607147216796875	559.786558586675
0.765533447265625	0.0006146240234375	560.67156858444
0.76995849609375	0.00062225341796875	561.556578582206
0.774383544921875	0.0006298828125	562.441588579971
0.77880859375	0.0006378173828125	563.326598577737
0.783233642578125	0.00064666748046875	564.211608575503
0.78765869140625	0.00065582275390625	565.096618573268
0.792083740234375	0.000665283203125	565.981628571034
0.7965087890625	0.00067535400390625	566.866638568799
0.800933837890625	0.00068572998046875	567.751648566565
0.80535888671875	0.00069610595703125	568.63665856433
0.809783935546875	0.0007080078125	569.521668562096
0.814208984375	0.0007196044921875	570.406678559862
0.818634033203125	0.00073211669921875	571.291688557627
0.82305908203125	0.00074462890625	572.176698555393
0.827484130859375	0.000758056640625	573.061708553158
0.8319091796875	0.00077178955078125	573.946718550924
0.836334228515625	0.00078582763671875	574.831728548689
0.84075927734375	0.00080047607421875	575.716738546455
0.845184326171875	0.00081573486328125	576.601748544221
0.849609375	0.0008319091796875	577.486758541986
0.854034423828125	0.000848388671875	578.371768539752
0.85845947265625	0.00086517333984375	579.256778537517
0.862884521484375	0.00088226318359375	580.141788535283
0.8673095703125	0.00089996337890625	581.026798533048
0.871734619140625	0.00091888427734375	581.911808530814
0.87615966796875	0.00093780517578125	582.796818528579
0.880584716796875	0.00095733642578125	583.681828526345
0.885009765625	0.0009783935546875	584.566838524111
0.889434814453125	0.0009991455078125	585.451848521876
0.89385986328125	0.00102081298828125	586.336858519642
0.898284912109375	0.00104339599609375	587.221868517407
0.9027099609375	0.00106719970703125	588.106878515173
0.907135009765625	0.00109161376953125	588.991888512938
0.91156005859375	0.0011163330078125	589.876898510704
0.915985107421875	0.0011431884765625	590.76190850847
0.92041015625	0.0011712646484375	591.646918506235
0.924835205078125	0.00120025634765625	592.531928504001
0.92926025390625	0.00123138427734375	593.416938501766
0.933685302734375	0.0012640380859375	594.301948499532
0.9381103515625	0.00129974365234375	595.186958497297
0.942535400390625	0.001336669921875	596.071968495063
0.94696044921875	0.0013763427734375	596.956978492829
0.951385498046875	0.00141815185546875	597.841988490594
0.955810546875	0.00146331787109375	598.72699848836
0.960235595703125	0.0015118408203125	599.612008486125
0.96466064453125	0.00156341552734375	600.497018483891
0.969085693359375	0.0016180419921875	601.382028481656
0.9735107421875	0.00167694091796875	602.267038479422
0.977935791015625	0.00173797607421875	603.152048477187
0.98236083984375	0.00180450439453125	604.037058474953
0.986785888671875	0.00187530517578125	604.922068472719
0.9912109375	0.0019488525390625	605.807078470484
0.995635986328125	0.0020269775390625	606.69208846825
1.00006103515625	0.00210784912109375	607.577098466015
0.995635986328125	0.0017230224609375	608.462108463781
0.9912109375	0.0014508056640625	609.347118461546
0.986785888671875	0.001236572265625	610.232128459312
0.98236083984375	0.0010577392578125	611.117138457078
0.977935791015625	0.00090423583984375	612.002148454843
0.9735107421875	0.000771484375	612.887158452609
0.969085693359375	0.000653076171875	613.772168450374
0.96466064453125	0.0005487060546875	614.65717844814
0.960235595703125	0.0004559326171875	615.542188445905
0.955810546875	0.000372833251953125	616.427198443671
0.951385498046875	0.000298919677734375	617.312208441436
0.94696044921875	0.000232879638671875	618.197218439202
0.942535400390625	0.000173583984375	619.082228436968
0.9381103515625	0.000120391845703125	619.967238434733
0.933685302734375	7.086181640625E-05	620.852248432499
0.92926025390625	2.80731201171875E-05	621.737258430264
0.924835205078125	-1.0150146484375E-05	622.62226842803
0.92041015625	-4.52301025390625E-05	623.507278425795
0.915985107421875	-7.672119140625E-05	624.392288423561
0.91156005859375	-0.000105712890625	625.277298421327
0.907135009765625	-0.000132171630859375	626.162308419092
0.9027099609375	-0.000156158447265625	627.047318416858
0.898284912109375	-0.00017816162109375	627.932328414623
0.89385986328125	-0.0001981201171875	628.817338412389
0.889434814453125	-0.00021710205078125	629.702348410154
0.885009765625	-0.000234405517578125	630.58735840792
0.880584716796875	-0.000250244140625	631.472368405686
0.87615966796875	-0.00026495361328125	632.357378403451
0.871734619140625	-0.000278778076171875	633.242388401217
0.8673095703125	-0.00029107666015625	634.127398398982
0.862884521484375	-0.000302947998046875	635.012408396748
0.85845947265625	-0.00031378173828125	635.897418394513
0.854034423828125	-0.0003236083984375	636.782428392279
0.849609375	-0.000333465576171875	637.667438390044
0.845184326171875	-0.000342254638671875	638.55244838781
0.84075927734375	-0.00035052490234375	639.437458385576
0.836334228515625	-0.00035821533203125	640.322468383341
0.8319091796875	-0.000365631103515625	641.207478381107
0.827484130859375	-0.000371856689453125	642.092488378872
0.82305908203125	-0.000378448486328125	642.977498376638
0.818634033203125	-0.00038421630859375	643.862508374403
0.814208984375	-0.00038970947265625	644.747518372169
0.809783935546875	-0.000395263671875	645.632528369935
0.80535888671875	-0.000400115966796875	646.5175383677
0.800933837890625	-0.000404449462890625	647.402548365466
0.7965087890625	-0.000409088134765625	648.287558363231
0.792083740234375	-0.000413055419921875	649.172568360997
0.78765869140625	-0.000416900634765625	650.057578358762
0.783233642578125	-0.000420440673828125	650.942588356528
0.77880859375	-0.000423431396484375	651.827598354294
0.774383544921875	-0.0004261474609375	652.712608352059
0.76995849609375	-0.00042926025390625	653.597618349825
0.765533447265625	-0.00043182373046875	654.48262834759
0.7611083984375	-0.00043365478515625	655.367638345356
0.756683349609375	-0.000436370849609375	656.252648343121
0.75225830078125	-0.000438629150390625	657.137658340887
0.747833251953125	-0.000440338134765625	658.022668338652
0.743408203125	-0.000442108154296875	658.907678336418
0.738983154296875	-0.000443115234375	659.792688334184
0.73455810546875	-0.000445037841796875	660.677698331949
0.730133056640625	-0.000446502685546875	661.562708329715
0.7257080078125	-0.00044781494140625	662.44771832748
0.721282958984375	-0.000448699951171875	663.332728325246
0.71685791015625	-0.0004500732421875	664.217738323011
0.712432861328125	-0.000451416015625	665.102748320777
0.7080078125	-0.00045245361328125	665.987758318543
0.703582763671875	-0.00045355224609375	666.872768316308
0.69915771484375	-0.000453948974609375	667.757778314074
0.694732666015625	-0.000455352783203125	668.642788311839
0.6903076171875	-0.000455963134765625	669.527798309605
0.685882568359375	-0.000457366943359375	670.41280830737
0.68145751953125	-0.00045794677734375	671.297818305136
0.677032470703125	-0.000458648681640625	672.182828302901
0.672607421875	-0.000459625244140625	673.067838300667
0.668182373046875	-0.00046051025390625	673.952848298433
0.66375732421875	-0.0004615478515625	674.837858296198
0.659332275390625	-0.000462310791015625	675.722868293964
0.6549072265625	-0.0004632568359375	676.607878291729
0.650482177734375	-0.000464385986328125	677.492888289495
0.64605712890625	-0.000465179443359375	678.37789828726
0.641632080078125	-0.000465972900390625	679.262908285026
0.63720703125	-0.000467071533203125	680.147918282792
0.632781982421875	-0.00046783447265625	681.032928280557
0.62835693359375	-0.000468963623046875	681.917938278323
0.623931884765625	-0.000471710205078125	682.802948276088
0.6195068359375	-0.00047216796875	683.687958273854
0.615081787109375	-0.00047265625	684.572968271619
0.61065673828125	-0.000473419189453125	685.457978269385
0.606231689453125	-0.000474822998046875	686.342988267151
0.601806640625	-0.000475921630859375	687.227998264916
0.597381591796875	-0.00047711181640625	688.113008262682
0.59295654296875	-0.00047802734375	688.998018260447
0.588531494140625	-0.000479400634765625	689.883028258213
0.5841064453125	-0.00047991943359375	690.768038255978
0.579681396484375	-0.000481689453125	691.653048253744
0.57525634765625	-0.000483184814453125	692.538058251509
0.570831298828125	-0.0004844970703125	693.423068249275
0.56640625	-0.000486175537109375	694.308078247041
0.561981201171875	-0.00048724365234375	695.193088244806
0.55755615234375	-0.00048895263671875	696.078098242572
0.553131103515625	-0.000490234375	696.963108240337
0.5487060546875	-0.000491943359375	697.848118238103
0.544281005859375	-0.000493011474609375	698.733128235868
0.53985595703125	-0.000494873046875	699.618138233634
0.535430908203125	-0.00049658203125	700.5031482314
0.531005859375	-0.0004986572265625	701.388158229165
0.526580810546875	-0.000500244140625	702.273168226931
0.52215576171875	-0.000501922607421875	703.158178224696
0.517730712890625	-0.000503509521484375	704.043188222462
0.5133056640625	-0.0005050048828125	704.928198220227
0.508880615234375	-0.0005069580078125	705.813208217993
0.50445556640625	-0.00050872802734375	706.698218215759
0.500030517578125	-0.000511077880859375	707.583228213524
0.49560546875	-0.000512420654296875	708.46823821129
0.491180419921875	-0.00051385498046875	709.353248209055
0.48675537109375	-0.000515716552734375	710.238258206821
0.482330322265625	-0.00051751708984375	711.123268204586
0.4779052734375	-0.000519073486328125	712.008278202352
0.473480224609375	-0.00052081298828125	712.893288200117
0.46905517578125	-0.000522918701171875	713.778298197883
0.464630126953125	-0.000524261474609375	714.663308195649
0.460205078125	-0.00052606201171875	715.548318193414
0.455780029296875	-0.000527374267578125	716.43332819118
0.45135498046875	-0.000529205322265625	717.318338188945
0.446929931640625	-0.000530731201171875	718.203348186711
0.4425048828125	-0.000532684326171875	719.088358184476
0.438079833984375	-0.000534423828125	719.973368182242
0.43365478515625	-0.0005357666015625	720.858378180008
0.429229736328125	-0.0005372314453125	721.743388177773
0.4248046875	-0.00053900146484375	722.628398175539
0.420379638671875	-0.000540740966796875	723.513408173304
0.41595458984375	-0.000542144775390625	724.39841817107
0.411529541015625	-0.00054339599609375	725.283428168835
0.4071044921875	-0.00054547119140625	726.168438166601
0.402679443359375	-0.000546844482421875	727.053448164367
0.39825439453125	-0.00054876708984375	727.938458162132
0.393829345703125	-0.000550323486328125	728.823468159898
0.389404296875	-0.0005513916015625	729.708478157663
0.384979248046875	-0.00055291748046875	730.593488155429
0.38055419921875	-0.000554962158203125	731.478498153194
0.376129150390625	-0.000556610107421875	732.36350815096
0.3717041015625	-0.00055816650390625	733.248518148725
0.367279052734375	-0.000560089111328125	734.133528146491
0.36285400390625	-0.00056201171875	735.018538144257
0.358428955078125	-0.00056378173828125	735.903548142022
0.35400390625	-0.00056610107421875	736.788558139788
0.349578857421875	-0.000567138671875	737.673568137553
0.34515380859375	-0.000569610595703125	738.558578135319
0.340728759765625	-0.000571502685546875	739.443588133084
0.3363037109375	-0.000573822021484375	740.32859813085
0.331878662109375	-0.00057598876953125	741.213608128616
0.32745361328125	-0.000578216552734375	742.098618126381
0.323028564453125	-0.000580413818359375	742.983628124147
0.318603515625	-0.000582672119140625	743.868638121912
0.314178466796875	-0.000585235595703125	744.753648119678
0.30975341796875	-0.0005888671875	745.638658117443
0.305328369140625	-0.0005906982421875	746.523668115209
0.3009033203125	-0.000592742919921875	747.408678112974
0.296478271484375	-0.000595123291015625	748.29368811074
0.29205322265625	-0.000597503662109375	749.178698108506
0.287628173828125	-0.0006002197265625	750.063708106271
0.283203125	-0.0006024169921875	750.948718104037
0.278778076171875	-0.00060516357421875	751.833728101802
0.27435302734375	-0.00060821533203125	752.718738099568
0.269927978515625	-0.0006103515625	753.603748097333
0.2655029296875	-0.0006134033203125	754.488758095099
0.261077880859375	-0.00061614990234375	755.373768092865
0.25665283203125	-0.00061920166015625	756.25877809063
0.252227783203125	-0.00062225341796875	757.143788088396
0.247802734375	-0.0006256103515625	758.028798086161
0.243377685546875	-0.00062835693359375	758.913808083927
0.23895263671875	-0.0006317138671875	759.798818081692
0.234527587890625	-0.000634765625	760.683828079458
0.2301025390625	-0.00063751220703125	761.568838077224
0.225677490234375	-0.00064117431640625	762.453848074989
0.22125244140625	-0.00064453125	763.338858072755
0.216827392578125	-0.0006475830078125	764.22386807052
0.21240234375	-0.00065155029296875	765.108878068286
0.207977294921875	-0.00065521240234375	765.993888066051
0.20355224609375	-0.0006585693359375	766.878898063817
0.199127197265625	-0.0006622314453125	767.763908061582
0.1947021484375	-0.00066619873046875	768.648918059348
0.190277099609375	-0.000670166015625	769.533928057114
0.18585205078125	-0.0006744384765625	770.418938054879
0.181427001953125	-0.00067779541015625	771.303948052645
0.177001953125	-0.000682373046875	772.18895805041
0.172576904296875	-0.00068695068359375	773.073968048176
0.16815185546875	-0.00069091796875	773.958978045941
0.163726806640625	-0.00069580078125	774.843988043707
0.1593017578125	-0.00070037841796875	775.728998041473
0.154876708984375	-0.0007049560546875	776.614008039238
0.15045166015625	-0.0007098388671875	777.499018037004
0.146026611328125	-0.0007147216796875	778.384028034769
0.1416015625	-0.0007196044921875	779.269038032535
0.137176513671875	-0.00072479248046875	780.1540480303
0.13275146484375	-0.00073028564453125	781.039058028066
0.128326416015625	-0.00073577880859375	781.924068025832
0.1239013671875	-0.0007415771484375	782.809078023597
0.119476318359375	-0.0007476806640625	783.694088021363
0.11505126953125	-0.000751953125	784.579098019128
0.110626220703125	-0.00075836181640625	785.464108016894
0.106201171875	-0.00076446533203125	786.349118014659
0.101776123046875	-0.0007708740234375	787.234128012425
0.09735107421875	-0.0007769775390625	788.11913801019
0.092926025390625	-0.00078338623046875	789.004148007956
0.0885009765625	-0.00079010009765625	789.889158005722
0.084075927734375	-0.0007965087890625	790.774168003487
0.07965087890625	-0.00080352783203125	791.659178001253
0.075225830078125	-0.00080963134765625	792.544187999018
0.07080078125	-0.00081756591796875	793.429197996784
0.066375732421875	-0.0008245849609375	794.314207994549
0.06195068359375	-0.0008319091796875	795.199217992315
0.057525634765625	-0.00083953857421875	796.084227990081
0.0531005859375	-0.00084686279296875	796.969237987846
0.048675537109375	-0.0008551025390625	797.854247985612
0.04425048828125	-0.0008636474609375	798.739257983377
0.039825439453125	-0.00087188720703125	799.624267981143
0.035400390625	-0.000880126953125	800.509277978908
0.030975341796875	-0.0008892822265625	801.394287976674
0.02655029296875	-0.0008984375	802.279297974439
0.022125244140625	-0.000908203125	803.164307972205
0.0177001953125	-0.00091827392578125	804.049317969971
0.013275146484375	-0.0009283447265625	804.934327967736
0.00885009765625	-0.00093841552734375	805.819337965502
0.004425048828125	-0.0009490966796875	806.704347963267
0	-0.00096038818359375	807.589357961033
0.004425048828125	-0.000492523193359375	808.474367958798
0.00885009765625	-0.00019122314453125	809.359377956564
0.013275146484375	1.09375E-05	810.24438795433
0.0177001953125	0.00014971923828125	811.129397952095
0.022125244140625	0.000247955322265625	812.014407949861
0.02655029296875	0.000319183349609375	812.899417947626
0.030975341796875	0.00037091064453125	813.784427945392
0.035400390625	0.000409759521484375	814.669437943157
0.039825439453125	0.0004390869140625	815.554447940923
0.04425048828125	0.00046160888671875	816.439457938689
0.048675537109375	0.000479583740234375	817.324467936454
0.0531005859375	0.000493072509765625	818.20947793422
0.057525634765625	0.000503875732421875	819.094487931985
0.06195068359375	0.000512298583984375	819.979497929751
0.066375732421875	0.000519073486328125	820.864507927516
0.07080078125	0.0005240478515625	821.749517925282
0.075225830078125	0.00052850341796875	822.634527923047
0.07965087890625	0.00053070068359375	823.519537920813
0.084075927734375	0.00053314208984375	824.404547918579
0.0885009765625	0.000534912109375	825.289557916344
0.092926025390625	0.000535980224609375	826.17456791411
0.09735107421875	0.0005360107421875	827.059577911875
0.101776123046875	0.00053619384765625	827.944587909641
0.106201171875	0.000535980224609375	828.829597907406
0.110626220703125	0.00053521728515625	829.714607905172
0.11505126953125	0.000534515380859375	830.599617902938
0.119476318359375	0.0005322265625	831.484627900703
0.1239013671875	0.000531585693359375	832.369637898469
0.128326416015625	0.00053021240234375	833.254647896234
0.13275146484375	0.00052862548828125	834.139657894
0.137176513671875	0.000527252197265625	835.024667891765
0.1416015625	0.000525634765625	835.909677889531
0.146026611328125	0.000523834228515625	836.794687887297
0.15045166015625	0.00052166748046875	837.679697885062
0.154876708984375	0.000520263671875	838.564707882828
0.1593017578125	0.0005179443359375	839.449717880593
0.163726806640625	0.000516082763671875	840.334727878359
0.16815185546875	0.000514434814453125	841.219737876124
0.172576904296875	0.000512481689453125	842.10474787389
0.177001953125	0.0005106201171875	842.989757871655
0.181427001953125	0.000508697509765625	843.874767869421
0.18585205078125	0.000506988525390625	844.759777867187
0.190277099609375	0.00050537109375	845.644787864952
0.1947021484375	0.000503692626953125	846.529797862718
0.199127197265625	0.000502197265625	847.414807860483
0.20355224609375	0.00050067138671875	848.299817858249
0.207977294921875	0.000498992919921875	849.184827856014
0.21240234375	0.000497344970703125	850.06983785378
0.216827392578125	0.000496063232421875	850.954847851546
0.22125244140625	0.000494537353515625	851.839857849311
0.225677490234375	0.000492767333984375	852.724867847077
0.2301025390625	0.00049176025390625	853.609877844842
0.234527587890625	0.000489898681640625	854.494887842608
0.23895263671875	0.000488922119140625	855.379897840373
0.243377685546875	0.000487762451171875	856.264907838139
0.247802734375	0.00048651123046875	857.149917835904
0.252227783203125	0.000485626220703125	858.03492783367
0.25665283203125	0.000484466552734375	858.919937831436
0.261077880859375	0.000483642578125	859.804947829201
0.2655029296875	0.00048260498046875	860.689957826967
0.269927978515625	0.00048211669921875	861.574967824732
0.27435302734375	0.00048028564453125	862.459977822498
0.278778076171875	0.00047979736328125	863.344987820263
0.283203125	0.000478790283203125	864.229997818029
0.287628173828125	0.000478485107421875	865.115007815795
0.29205322265625	0.00047747802734375	866.00001781356
0.296478271484375	0.0004771728515625	866.885027811326
0.3009033203125	0.000476104736328125	867.770037809091
0.305328369140625	0.00047515869140625	868.655047806857
0.30975341796875	0.00047491455078125	869.540057804622
0.314178466796875	0.000475372314453125	870.425067802388
0.318603515625	0.000474090576171875	871.310077800154
0.323028564453125	0.00047332763671875	872.195087797919
0.32745361328125	0.000472900390625	873.080097795685
0.331878662109375	0.000472381591796875	873.96510779345
0.3363037109375	0.000471954345703125	874.850117791216
0.340728759765625	0.0004710693359375	875.735127788981
0.34515380859375	0.000470489501953125	876.620137786747
0.349578857421875	0.0004700927734375	877.505147784512
0.35400390625	0.00046844482421875	878.390157782278
0.358428955078125	0.00046868896484375	879.275167780044
0.36285400390625	0.000468536376953125	880.160177777809
0.367279052734375	0.000468414306640625	881.045187775575
0.3717041015625	0.0004677734375	881.93019777334
0.376129150390625	0.000467254638671875	882.815207771106
0.38055419921875	0.0004669189453125	883.700217768871
0.384979248046875	0.000466094970703125	884.585227766637
0.389404296875	0.00046575927734375	885.470237764403
0.393829345703125	0.0004647216796875	886.355247762168
0.39825439453125	0.00046441650390625	887.240257759934
0.402679443359375	0.000463653564453125	888.125267757699
0.4071044921875	0.000463623046875	889.010277755465
0.411529541015625	0.000463287353515625	889.89528775323
0.41595458984375	0.000462799072265625	890.780297750996
0.420379638671875	0.000462066650390625	891.665307748762
0.4248046875	0.0004617919921875	892.550317746527
0.429229736328125	0.000461639404296875	893.435327744293
0.43365478515625	0.000461334228515625	894.320337742058
0.438079833984375	0.000460693359375	895.205347739824
0.4425048828125	0.0004603271484375	896.090357737589
0.446929931640625	0.00046051025390625	896.975367735355
0.45135498046875	0.000460113525390625	897.86037773312
0.455780029296875	0.000460052490234375	898.745387730886
0.460205078125	0.000459930419921875	899.630397728652
0.464630126953125	0.000459991455078125	900.515407726417
0.46905517578125	0.00045977783203125	901.400417724183
0.473480224609375	0.000459259033203125	902.285427721948
0.4779052734375	0.00045977783203125	903.170437719714
0.482330322265625	0.00045953369140625	904.055447717479
0.48675537109375	0.000459716796875	904.940457715245
0.491180419921875	0.00046002197265625	905.825467713011
0.49560546875	0.0004599609375	906.710477710776
0.500030517578125	0.000460174560546875	907.595487708542
0.50445556640625	0.000460235595703125	908.480497706307
0.508880615234375	0.00046044921875	909.365507704073
0.5133056640625	0.000460906982421875	910.250517701838
0.517730712890625	0.000460968017578125	911.135527699604
0.52215576171875	0.000461578369140625	912.020537697369
0.526580810546875	0.000462188720703125	912.905547695135
0.531005859375	0.00046221923828125	913.790557692901
0.535430908203125	0.000462646484375	914.675567690666
0.53985595703125	0.00046337890625	915.560577688432
0.544281005859375	0.00046380615234375	916.445587686197
0.5487060546875	0.00046429443359375	917.330597683963
0.553131103515625	0.00046563720703125	918.215607681728
0.55755615234375	0.00046624755859375	919.100617679494
0.561981201171875	0.000467376708984375	919.98562767726
0.56640625	0.0004681396484375	920.870637675025
0.570831298828125	0.000469268798828125	921.755647672791
0.57525634765625	0.000470672607421875	922.640657670556
0.579681396484375	0.000471832275390625	923.525667668322
0.5841064453125	0.000472900390625	924.410677666087
0.588531494140625	0.00047381591796875	925.295687663853
0.59295654296875	0.000475494384765625	926.180697661619
0.597381591796875	0.00047723388671875	927.065707659384
0.601806640625	0.000478759765625	927.95071765715
0.606231689453125	0.0004808349609375	928.835727654915
0.61065673828125	0.000482147216796875	929.720737652681
0.615081787109375	0.0004837646484375	930.605747650446
0.6195068359375	0.000486297607421875	931.490757648212
0.623931884765625	0.00048846435546875	932.375767645977
0.62835693359375	0.000492095947265625	933.260777643743
0.632781982421875	0.00049310302734375	934.145787641509
0.63720703125	0.00049542236328125	935.030797639274
0.641632080078125	0.000497650146484375	935.91580763704
0.64605712890625	0.00049981689453125	936.800817634805
0.650482177734375	0.00050244140625	937.685827632571
0.6549072265625	0.000504425048828125	938.570837630336
0.659332275390625	0.0005074462890625	939.455847628102
0.66375732421875	0.000510528564453125	940.340857625868
0.668182373046875	0.00051318359375	941.225867623633
0.672607421875	0.000516510009765625	942.110877621399
0.677032470703125	0.00051947021484375	942.995887619164
0.68145751953125	0.000522735595703125	943.88089761693
0.685882568359375	0.00052618408203125	944.765907614695
0.6903076171875	0.00052978515625	945.650917612461
0.694732666015625	0.000533477783203125	946.535927610227
0.69915771484375	0.000537261962890625	947.420937607992
0.703582763671875	0.0005406494140625	948.305947605758
0.7080078125	0.000545013427734375	949.190957603523
0.712432861328125	0.000549591064453125	950.075967601289
0.71685791015625	0.000554168701171875	950.960977599054
0.721282958984375	0.000558685302734375	951.84598759682
0.7257080078125	0.0005635986328125	952.730997594585
0.730133056640625	0.00056866455078125	953.616007592351
0.73455810546875	0.00057415771484375	954.501017590117
0.738983154296875	0.000579742431640625	955.386027587882
0.743408203125	0.000584442138671875	956.271037585648
0.747833251953125	0.00059075927734375	957.156047583413
0.75225830078125	0.00059698486328125	958.041057581179
0.756683349609375	0.000603485107421875	958.926067578944
0.7611083984375	0.00061065673828125	959.81107757671
0.765533447265625	0.00061798095703125	960.696087574476
0.76995849609375	0.00062530517578125	961.581097572241
0.774383544921875	0.00063323974609375	962.466107570007
0.77880859375	0.00064117431640625	963.351117567772
0.783233642578125	0.0006494140625	964.236127565538
0.78765869140625	0.00065826416015625	965.121137563303
0.792083740234375	0.000667724609375	966.006147561069
0.7965087890625	0.000677490234375	966.891157558834
0.800933837890625	0.0006878662109375	967.7761675566
0.80535888671875	0.0006982421875	968.661177554366
0.809783935546875	0.00070953369140625	969.546187552131
0.814208984375	0.00072052001953125	970.431197549897
0.818634033203125	0.00073272705078125	971.316207547662
0.82305908203125	0.00074493408203125	972.201217545428
0.827484130859375	0.000758056640625	973.086227543193
0.8319091796875	0.000771484375	973.971237540959
0.836334228515625	0.00078521728515625	974.856247538725
0.84075927734375	0.0007989501953125	975.74125753649
0.845184326171875	0.00081390380859375	976.626267534256
0.849609375	0.00082977294921875	977.511277532021
0.854034423828125	0.00084564208984375	978.396287529787
0.85845947265625	0.00086151123046875	979.281297527552
0.862884521484375	0.00087799072265625	980.166307525318
0.8673095703125	0.00089569091796875	981.051317523084
0.871734619140625	0.00091339111328125	981.936327520849
0.87615966796875	0.00093231201171875	982.821337518615
0.880584716796875	0.000950927734375	983.70634751638
0.885009765625	0.00097015380859375	984.591357514146
0.889434814453125	0.00099029541015625	985.476367511911
0.89385986328125	0.00101104736328125	986.361377509677
0.898284912109375	0.00103240966796875	987.246387507442
0.9027099609375	0.00105438232421875	988.131397505208
0.907135009765625	0.00107757568359375	989.016407502974
0.91156005859375	0.00110076904296875	989.901417500739
0.915985107421875	0.00112548828125	990.786427498505
0.92041015625	0.00115142822265625	991.67143749627
0.924835205078125	0.00117919921875	992.556447494036
0.92926025390625	0.0012078857421875	993.441457491801
0.933685302734375	0.0012384033203125	994.326467489567
0.9381103515625	0.00127227783203125	995.211477487333
0.942535400390625	0.00130615234375	996.096487485098
0.94696044921875	0.00134246826171875	996.981497482864
0.951385498046875	0.0013818359375	997.866507480629
0.955810546875	0.00142364501953125	998.751517478395
0.960235595703125	0.0014691162109375	999.63652747616
0.96466064453125	0.001517333984375	1000.52153747393
0.969085693359375	0.001568603515625	1001.40654747169
0.9735107421875	0.00162322998046875	1002.29155746946
0.977935791015625	0.00168121337890625	1003.17656746722
0.98236083984375	0.00174346923828125	1004.06157746499
0.986785888671875	0.001810302734375	1004.94658746275
0.9912109375	0.0018804931640625	1005.83159746052
0.995635986328125	0.00195465087890625	1006.71660745828
1.00006103515625	0.00203277587890625	1007.60161745605
0.995635986328125	0.0016497802734375	1008.48662745382
0.9912109375	0.00138214111328125	1009.37163745158
0.986785888671875	0.0011724853515625	1010.25664744935
0.98236083984375	0.00099884033203125	1011.14165744711
0.977935791015625	0.0008502197265625	1012.02666744488
0.9735107421875	0.00072265625	1012.91167744264
0.969085693359375	0.00060882568359375	1013.79668744041
0.96466064453125	0.000509033203125	1014.68169743817
0.960235595703125	0.000420257568359375	1015.56670743594
0.955810546875	0.00034149169921875	1016.45171743371
0.951385498046875	0.00027142333984375	1017.33672743147
0.94696044921875	0.000208770751953125	1018.22173742924
0.942535400390625	0.00015264892578125	1019.106747427
0.9381103515625	0.0001019287109375	1019.99175742477
0.933685302734375	5.5633544921875E-05	1020.87676742253
0.92926025390625	1.5533447265625E-05	1021.7617774203
0.924835205078125	-2.07733154296875E-05	1022.64678741807
0.92041015625	-5.38330078125E-05	1023.53179741583
0.915985107421875	-8.404541015625E-05	1024.4168074136
0.91156005859375	-0.000111297607421875	1025.30181741136
0.907135009765625	-0.000135986328125	1026.18682740913
0.9027099609375	-0.00015863037109375	1027.07183740689
0.898284912109375	-0.000179595947265625	1027.95684740466
0.89385986328125	-0.00019891357421875	1028.84185740242
0.889434814453125	-0.000216888427734375	1029.72686740019
0.885009765625	-0.000233001708984375	1030.61187739796
0.880584716796875	-0.000248260498046875	1031.49688739572
0.87615966796875	-0.00026251220703125	1032.38189739349
0.871734619140625	-0.000275390625	1033.26690739125
0.8673095703125	-0.000287628173828125	1034.15191738902
0.862884521484375	-0.000298919677734375	1035.03692738678
0.85845947265625	-0.000309051513671875	1035.92193738455
0.854034423828125	-0.0003189697265625	1036.80694738231
0.849609375	-0.000328033447265625	1037.69195738008
0.845184326171875	-0.000336700439453125	1038.57696737785
0.84075927734375	-0.00034454345703125	1039.46197737561
0.836334228515625	-0.00035211181640625	1040.34698737338
0.8319091796875	-0.00035931396484375	1041.23199737114
0.827484130859375	-0.00036590576171875	1042.11700736891
0.82305908203125	-0.000372467041015625	1043.00201736667
0.818634033203125	-0.0003778076171875	1043.88702736444
0.814208984375	-0.000383575439453125	1044.7720373622
0.809783935546875	-0.000388427734375	1045.65704735997
0.80535888671875	-0.0003936767578125	1046.54205735774
0.800933837890625	-0.00039837646484375	1047.4270673555
0.7965087890625	-0.000402557373046875	1048.31207735327
0.792083740234375	-0.00040667724609375	1049.19708735103
0.78765869140625	-0.00041058349609375	1050.0820973488
0.783233642578125	-0.000413818359375	1050.96710734656
0.77880859375	-0.00041693115234375	1051.85211734433
0.774383544921875	-0.000420257568359375	1052.73712734209
0.76995849609375	-0.000423065185546875	1053.62213733986
0.765533447265625	-0.000425994873046875	1054.50714733763
0.7611083984375	-0.000428375244140625	1055.39215733539
0.756683349609375	-0.000430633544921875	1056.27716733316
0.75225830078125	-0.00043243408203125	1057.16217733092
0.747833251953125	-0.0004342041015625	1058.04718732869
0.743408203125	-0.00043634033203125	1058.93219732645
0.738983154296875	-0.0004373779296875	1059.81720732422
0.73455810546875	-0.00043963623046875	1060.70221732198
0.730133056640625	-0.00044085693359375	1061.58722731975
0.7257080078125	-0.000442657470703125	1062.47223731752
0.721282958984375	-0.00044415283203125	1063.35724731528
0.71685791015625	-0.00044537353515625	1064.24225731305
0.712432861328125	-0.000446563720703125	1065.12726731081
0.7080078125	-0.000447998046875	1066.01227730858
0.703582763671875	-0.000448974609375	1066.89728730634
0.69915771484375	-0.000449462890625	1067.78229730411
0.694732666015625	-0.00045062255859375	1068.66730730187
0.6903076171875	-0.000451629638671875	1069.55231729964
0.685882568359375	-0.000452880859375	1070.43732729741
0.68145751953125	-0.00045416259765625	1071.32233729517
0.677032470703125	-0.000454925537109375	1072.20734729294
0.672607421875	-0.000455810546875	1073.0923572907
0.668182373046875	-0.000456695556640625	1073.97736728847
0.66375732421875	-0.000457427978515625	1074.86237728623
0.659332275390625	-0.000458648681640625	1075.747387284
0.6549072265625	-0.0004598388671875	1076.63239728176
0.650482177734375	-0.000460693359375	1077.51740727953
0.64605712890625	-0.000461822509765625	1078.4024172773
0.641632080078125	-0.00046258544921875	1079.28742727506
0.63720703125	-0.00046380615234375	1080.17243727283
0.632781982421875	-0.00046478271484375	1081.05744727059
0.62835693359375	-0.00046563720703125	1081.94245726836
0.623931884765625	-0.000468658447265625	1082.82746726612
0.6195068359375	-0.0004688720703125	1083.71247726389
0.615081787109375	-0.0004696044921875	1084.59748726165
0.61065673828125	-0.000470367431640625	1085.48249725942
0.606231689453125	-0.00047137451171875	1086.36750725719
0.601806640625	-0.000472442626953125	1087.25251725495
0.597381591796875	-0.000473602294921875	1088.13752725272
0.59295654296875	-0.00047491455078125	1089.02253725048
0.588531494140625	-0.0004759521484375	1089.90754724825
0.5841064453125	-0.000476287841796875	1090.79255724601
0.579681396484375	-0.00047808837890625	1091.67756724378
0.57525634765625	-0.000479278564453125	1092.56257724154
0.570831298828125	-0.00048077392578125	1093.44758723931
0.56640625	-0.000482269287109375	1094.33259723708
0.561981201171875	-0.0004835205078125	1095.21760723484
0.55755615234375	-0.000485107421875	1096.10261723261
0.553131103515625	-0.0004862060546875	1096.98762723037
0.5487060546875	-0.000487548828125	1097.87263722814
0.544281005859375	-0.0004884033203125	1098.7576472259
0.53985595703125	-0.000490631103515625	1099.64265722367
0.535430908203125	-0.00049237060546875	1100.52766722143
0.531005859375	-0.000494140625	1101.4126772192
0.526580810546875	-0.00049554443359375	1102.29768721697
0.52215576171875	-0.000497161865234375	1103.18269721473
0.517730712890625	-0.00049859619140625	1104.0677072125
0.5133056640625	-0.000500213623046875	1104.95271721026
0.508880615234375	-0.000501861572265625	1105.83772720803
0.50445556640625	-0.00050360107421875	1106.72273720579
0.500030517578125	-0.000505035400390625	1107.60774720356
0.49560546875	-0.00050701904296875	1108.49275720132
0.491180419921875	-0.000508697509765625	1109.37776719909
0.48675537109375	-0.000510223388671875	1110.26277719686
0.482330322265625	-0.0005120849609375	1111.14778719462
0.4779052734375	-0.000513427734375	1112.03279719239
0.473480224609375	-0.000515045166015625	1112.91780719015
0.46905517578125	-0.0005166015625	1113.80281718792
0.464630126953125	-0.00051763916015625	1114.68782718568
0.460205078125	-0.000519256591796875	1115.57283718345
0.455780029296875	-0.00052099609375	1116.45784718121
0.45135498046875	-0.00052264404296875	1117.34285717898
0.446929931640625	-0.000523773193359375	1118.22786717675
0.4425048828125	-0.0005255126953125	1119.11287717451
0.438079833984375	-0.00052679443359375	1119.99788717228
0.43365478515625	-0.0005283203125	1120.88289717004
0.429229736328125	-0.000529510498046875	1121.76790716781
0.4248046875	-0.000531036376953125	1122.65291716557
0.420379638671875	-0.00053271484375	1123.53792716334
0.41595458984375	-0.000533782958984375	1124.4229371611
0.411529541015625	-0.000535552978515625	1125.30794715887
0.4071044921875	-0.0005367431640625	1126.19295715664
0.402679443359375	-0.0005384521484375	1127.0779671544
0.39825439453125	-0.000539459228515625	1127.96297715217
0.393829345703125	-0.00054144287109375	1128.84798714993
0.389404296875	-0.000542266845703125	1129.7329971477
0.384979248046875	-0.000543975830078125	1130.61800714546
0.38055419921875	-0.00054547119140625	1131.50301714323
0.376129150390625	-0.0005469970703125	1132.388027141
0.3717041015625	-0.00054888916015625	1133.27303713876
0.367279052734375	-0.00055059814453125	1134.15804713653
0.36285400390625	-0.000552398681640625	1135.04305713429
0.358428955078125	-0.000554290771484375	1135.92806713206
0.35400390625	-0.00055584716796875	1136.81307712982
0.349578857421875	-0.00055682373046875	1137.69808712759
0.34515380859375	-0.000559356689453125	1138.58309712535
0.340728759765625	-0.00056103515625	1139.46810712312
0.3363037109375	-0.000563232421875	1140.35311712089
0.331878662109375	-0.000565399169921875	1141.23812711865
0.32745361328125	-0.000567474365234375	1142.12313711642
0.323028564453125	-0.000569671630859375	1143.00814711418
0.318603515625	-0.000571990966796875	1143.89315711195
0.314178466796875	-0.000574005126953125	1144.77816710971
0.30975341796875	-0.00057769775390625	1145.66317710748
0.305328369140625	-0.000579559326171875	1146.54818710524
0.3009033203125	-0.000581451416015625	1147.43319710301
0.296478271484375	-0.0005838623046875	1148.31820710078
0.29205322265625	-0.000586273193359375	1149.20321709854
0.287628173828125	-0.00058856201171875	1150.08822709631
0.283203125	-0.000591217041015625	1150.97323709407
0.278778076171875	-0.000593505859375	1151.85824709184
0.27435302734375	-0.000596405029296875	1152.7432570896
0.269927978515625	-0.000598968505859375	1153.62826708737
0.2655029296875	-0.00060150146484375	1154.51327708513
0.261077880859375	-0.000604248046875	1155.3982870829
0.25665283203125	-0.00060699462890625	1156.28329708067
0.252227783203125	-0.00061004638671875	1157.16830707843
0.247802734375	-0.00061279296875	1158.0533170762
0.243377685546875	-0.00061614990234375	1158.93832707396
0.23895263671875	-0.000618896484375	1159.82333707173
0.234527587890625	-0.0006219482421875	1160.70834706949
0.2301025390625	-0.00062469482421875	1161.59335706726
0.225677490234375	-0.00062835693359375	1162.47836706502
0.22125244140625	-0.0006317138671875	1163.36337706279
0.216827392578125	-0.00063507080078125	1164.24838706056
0.21240234375	-0.00063873291015625	1165.13339705832
0.207977294921875	-0.00064208984375	1166.01840705609
0.20355224609375	-0.000645751953125	1166.90341705385
0.199127197265625	-0.00064910888671875	1167.78842705162
0.1947021484375	-0.00065338134765625	1168.67343704938
0.190277099609375	-0.00065704345703125	1169.55844704715
0.18585205078125	-0.0006610107421875	1170.44345704491
0.181427001953125	-0.0006646728515625	1171.32846704268
0.177001953125	-0.0006695556640625	1172.21347704045
0.172576904296875	-0.000673828125	1173.09848703821
0.16815185546875	-0.00067779541015625	1173.98349703598
0.163726806640625	-0.000682373046875	1174.86850703374
0.1593017578125	-0.000687255859375	1175.75351703151
0.154876708984375	-0.00069183349609375	1176.63852702927
0.15045166015625	-0.00069671630859375	1177.52353702704
0.146026611328125	-0.00070159912109375	1178.4085470248
0.1416015625	-0.000706787109375	1179.29355702257
0.137176513671875	-0.0007122802734375	1180.17856702034
0.13275146484375	-0.00071746826171875	1181.0635770181
0.128326416015625	-0.00072265625	1181.94858701587
0.1239013671875	-0.00072845458984375	1182.83359701363
0.119476318359375	-0.00073455810546875	1183.7186070114
0.11505126953125	-0.00073883056640625	1184.60361700916
0.110626220703125	-0.00074554443359375	1185.48862700693
0.106201171875	-0.000751953125	1186.37363700469
0.101776123046875	-0.000758056640625	1187.25864700246
0.09735107421875	-0.00076446533203125	1188.14365700023
0.092926025390625	-0.00077117919921875	1189.02866699799
0.0885009765625	-0.000777587890625	1189.91367699576
0.084075927734375	-0.00078399658203125	1190.79868699352
0.07965087890625	-0.00079071044921875	1191.68369699129
0.075225830078125	-0.00079681396484375	1192.56870698905
0.07080078125	-0.000804443359375	1193.45371698682
0.066375732421875	-0.000811767578125	1194.33872698458
0.06195068359375	-0.00081939697265625	1195.22373698235
0.057525634765625	-0.0008270263671875	1196.10874698012
0.0531005859375	-0.00083465576171875	1196.99375697788
0.048675537109375	-0.00084320068359375	1197.87876697565
0.04425048828125	-0.000850830078125	1198.76377697341
0.039825439453125	-0.00085906982421875	1199.64878697118
0.035400390625	-0.000867919921875	1200.53379696894
0.030975341796875	-0.00087677001953125	1201.41880696671
0.02655029296875	-0.00088623046875	1202.30381696447
0.022125244140625	-0.00089569091796875	1203.18882696224
0.0177001953125	-0.00090576171875	1204.07383696001
0.013275146484375	-0.00091583251953125	1204.95884695777
0.00885009765625	-0.000926513671875	1205.84385695554
0.004425048828125	-0.0009368896484375	1206.7288669533
0	-0.00094879150390625	1207.61387695107
0.004425048828125	-0.000482635498046875	1208.49888694883
0.00885009765625	-0.0001820068359375	1209.3838969466
0.013275146484375	1.95159912109375E-05	1210.26890694436
0.0177001953125	0.000158050537109375	1211.15391694213
0.022125244140625	0.00025634765625	1212.0389269399
0.02655029296875	0.00032623291015625	1212.92393693766
0.030975341796875	0.000378143310546875	1213.80894693543
0.035400390625	0.000416290283203125	1214.69395693319
0.039825439453125	0.000445037841796875	1215.57896693096
0.04425048828125	0.0004674072265625	1216.46397692872
0.048675537109375	0.000484710693359375	1217.34898692649
0.0531005859375	0.000497772216796875	1218.23399692425
0.057525634765625	0.00050848388671875	1219.11900692202
0.06195068359375	0.00051629638671875	1220.00401691979
0.066375732421875	0.00052276611328125	1220.88902691755
0.07080078125	0.000527130126953125	1221.77403691532
0.075225830078125	0.00053106689453125	1222.65904691308
0.07965087890625	0.000533233642578125	1223.54405691085
0.084075927734375	0.000535369873046875	1224.42906690861
0.0885009765625	0.000536529541015625	1225.31407690638
0.092926025390625	0.000537353515625	1226.19908690414
0.09735107421875	0.000537567138671875	1227.08409690191
0.101776123046875	0.00053759765625	1227.96910689968
0.106201171875	0.000536590576171875	1228.85411689744
0.110626220703125	0.0005357666015625	1229.73912689521
0.11505126953125	0.000534423828125	1230.62413689297
0.119476318359375	0.0005322265625	1231.50914689074
0.1239013671875	0.000531402587890625	1232.3941568885
0.128326416015625	0.0005296630859375	1233.27916688627
0.13275146484375	0.000527862548828125	1234.16417688403
0.137176513671875	0.0005262451171875	1235.0491868818
0.1416015625	0.00052423095703125	1235.93419687957
0.146026611328125	0.00052239990234375	1236.81920687733
0.15045166015625	0.000520660400390625	1237.7042168751
0.154876708984375	0.000518707275390625	1238.58922687286
0.1593017578125	0.00051611328125	1239.47423687063
0.163726806640625	0.00051434326171875	1240.35924686839
0.16815185546875	0.000512725830078125	1241.24425686616
0.172576904296875	0.000510498046875	1242.12926686393
0.177001953125	0.000508819580078125	1243.01427686169
0.181427001953125	0.0005069580078125	1243.89928685946
0.18585205078125	0.00050543212890625	1244.78429685722
0.190277099609375	0.00050323486328125	1245.66930685499
0.1947021484375	0.00050189208984375	1246.55431685275
0.199127197265625	0.00049993896484375	1247.43932685052
0.20355224609375	0.0004984130859375	1248.32433684828
0.207977294921875	0.00049652099609375	1249.20934684605
0.21240234375	0.000494903564453125	1250.09435684382
0.216827392578125	0.0004931640625	1250.97936684158
0.22125244140625	0.0004915771484375	1251.86437683935
0.225677490234375	0.0004901123046875	1252.74938683711
0.2301025390625	0.0004892578125	1253.63439683488
0.234527587890625	0.000486785888671875	1254.51940683264
0.23895263671875	0.0004862060546875	1255.40441683041
0.243377685546875	0.000485137939453125	1256.28942682817
0.247802734375	0.000484039306640625	1257.17443682594
0.252227783203125	0.000482635498046875	1258.05944682371
0.25665283203125	0.0004815673828125	1258.94445682147
0.261077880859375	0.000480743408203125	1259.82946681924
0.2655029296875	0.00047930908203125	1260.714476817
0.269927978515625	0.00047833251953125	1261.59948681477
0.27435302734375	0.00047735595703125	1262.48449681253
0.278778076171875	0.000476531982421875	1263.3695068103
0.283203125	0.0004755859375	1264.25451680806
0.287628173828125	0.000475067138671875	1265.13952680583
0.29205322265625	0.000474822998046875	1266.0245368036
0.296478271484375	0.000473785400390625	1266.90954680136
0.3009033203125	0.000473052978515625	1267.79455679913
0.305328369140625	0.000472198486328125	1268.67956679689
0.30975341796875	0.00047161865234375	1269.56457679466
0.314178466796875	0.000472259521484375	1270.44958679242
0.318603515625	0.000471282958984375	1271.33459679019
0.323028564453125	0.000470123291015625	1272.21960678795
0.32745361328125	0.00046942138671875	1273.10461678572
0.331878662109375	0.000469024658203125	1273.98962678349
0.3363037109375	0.000468170166015625	1274.87463678125
0.340728759765625	0.000468017578125	1275.75964677902
0.34515380859375	0.000467132568359375	1276.64465677678
0.349578857421875	0.00046685791015625	1277.52966677455
0.35400390625	0.000465576171875	1278.41467677231
0.358428955078125	0.000465362548828125	1279.29968677008
0.36285400390625	0.000464996337890625	1280.18469676784
0.367279052734375	0.00046453857421875	1281.06970676561
0.3717041015625	0.000464263916015625	1281.95471676338
0.376129150390625	0.000464019775390625	1282.83972676114
0.38055419921875	0.0004635009765625	1283.72473675891
0.384979248046875	0.000463104248046875	1284.60974675667
0.389404296875	0.00046258544921875	1285.49475675444
0.393829345703125	0.000461639404296875	1286.3797667522
0.39825439453125	0.0004613037109375	1287.26477674997
0.402679443359375	0.000461090087890625	1288.14978674773
0.4071044921875	0.0004608154296875	1289.0347967455
0.411529541015625	0.0004600830078125	1289.91980674327
0.41595458984375	0.000459808349609375	1290.80481674103
0.420379638671875	0.0004593505859375	1291.6898267388
0.4248046875	0.000458709716796875	1292.57483673656
0.429229736328125	0.00045831298828125	1293.45984673433
0.43365478515625	0.0004581298828125	1294.34485673209
0.438079833984375	0.000457855224609375	1295.22986672986
0.4425048828125	0.000457672119140625	1296.11487672762
0.446929931640625	0.000457366943359375	1296.99988672539
0.45135498046875	0.000457244873046875	1297.88489672316
0.455780029296875	0.0004571533203125	1298.76990672092
0.460205078125	0.00045709228515625	1299.65491671869
0.464630126953125	0.000456939697265625	1300.53992671645
0.46905517578125	0.0004561767578125	1301.42493671422
0.473480224609375	0.000456634521484375	1302.30994671198
0.4779052734375	0.00045648193359375	1303.19495670975
0.482330322265625	0.000456695556640625	1304.07996670751
0.48675537109375	0.000456787109375	1304.96497670528
0.491180419921875	0.000456512451171875	1305.84998670305
0.49560546875	0.000456634521484375	1306.73499670081
0.500030517578125	0.0004566650390625	1307.62000669858
0.50445556640625	0.000457000732421875	1308.50501669634
0.508880615234375	0.000457000732421875	1309.39002669411
0.5133056640625	0.000457427978515625	1310.27503669187
0.517730712890625	0.00045745849609375	1311.16004668964
0.52215576171875	0.00045782470703125	1312.0450566874
0.526580810546875	0.000458404541015625	1312.93006668517
0.531005859375	0.00045867919921875	1313.81507668294
0.535430908203125	0.000459075927734375	1314.7000866807
0.53985595703125	0.000459869384765625	1315.58509667847
0.544281005859375	0.000460235595703125	1316.47010667623
0.5487060546875	0.000460540771484375	1317.355116674
0.553131103515625	0.000461517333984375	1318.24012667176
0.55755615234375	0.000462249755859375	1319.12513666953
0.561981201171875	0.000463134765625	1320.01014666729
0.56640625	0.000464263916015625	1320.89515666506
0.570831298828125	0.00046514892578125	1321.78016666283
0.57525634765625	0.00046636962890625	1322.66517666059
0.579681396484375	0.000467498779296875	1323.55018665836
0.5841064453125	0.00046875	1324.43519665612
0.588531494140625	0.000469146728515625	1325.32020665389
0.59295654296875	0.00047076416015625	1326.20521665165
0.597381591796875	0.00047235107421875	1327.09022664942
0.601806640625	0.00047406005859375	1327.97523664718
0.606231689453125	0.000475921630859375	1328.86024664495
0.61065673828125	0.00047772216796875	1329.74525664272
0.615081787109375	0.0004794921875	1330.63026664048
0.6195068359375	0.000481048583984375	1331.51527663825
0.623931884765625	0.000482940673828125	1332.40028663601
0.62835693359375	0.000486724853515625	1333.28529663378
0.632781982421875	0.000488037109375	1334.17030663154
0.63720703125	0.000490142822265625	1335.05531662931
0.641632080078125	0.0004918212890625	1335.94032662707
0.64605712890625	0.000494354248046875	1336.82533662484
0.650482177734375	0.00049713134765625	1337.71034662261
0.6549072265625	0.000499298095703125	1338.59535662037
0.659332275390625	0.000501861572265625	1339.48036661814
0.66375732421875	0.000504669189453125	1340.3653766159
0.668182373046875	0.00050775146484375	1341.25038661367
0.672607421875	0.000510650634765625	1342.13539661143
0.677032470703125	0.00051373291015625	1343.0204066092
0.68145751953125	0.00051715087890625	1343.90541660696
0.685882568359375	0.000520538330078125	1344.79042660473
0.6903076171875	0.000523956298828125	1345.6754366025
0.694732666015625	0.00052777099609375	1346.56044660026
0.69915771484375	0.000531219482421875	1347.44545659803
0.703582763671875	0.00053472900390625	1348.33046659579
0.7080078125	0.00053887939453125	1349.21547659356
0.712432861328125	0.000543060302734375	1350.10048659132
0.71685791015625	0.000547821044921875	1350.98549658909
0.721282958984375	0.0005523681640625	1351.87050658686
0.7257080078125	0.000557647705078125	1352.75551658462
0.730133056640625	0.000562347412109375	1353.64052658239
0.73455810546875	0.000567169189453125	1354.52553658015
0.738983154296875	0.00057269287109375	1355.41054657792
0.743408203125	0.0005775146484375	1356.29555657568
0.747833251953125	0.000583770751953125	1357.18056657345
0.75225830078125	0.0005902099609375	1358.06557657121
0.756683349609375	0.000596343994140625	1358.95058656898
0.7611083984375	0.000603240966796875	1359.83559656675
0.765533447265625	0.00061065673828125	1360.72060656451
0.76995849609375	0.00061798095703125	1361.60561656228
0.774383544921875	0.00062530517578125	1362.49062656004
0.77880859375	0.00063323974609375	1363.37563655781
0.783233642578125	0.0006414794921875	1364.26064655557
0.78765869140625	0.000650634765625	1365.14565655334
0.792083740234375	0.0006591796875	1366.0306665511
0.7965087890625	0.0006689453125	1366.91567654887
0.800933837890625	0.0006787109375	1367.80068654664
0.80535888671875	0.0006890869140625	1368.6856965444
0.809783935546875	0.0007000732421875	1369.57070654217
0.814208984375	0.00071075439453125	1370.45571653993
0.818634033203125	0.00072235107421875	1371.3407265377
0.82305908203125	0.0007342529296875	1372.22573653546
0.827484130859375	0.0007470703125	1373.11074653323
0.8319091796875	0.0007598876953125	1373.99575653099
0.836334228515625	0.00077362060546875	1374.88076652876
0.84075927734375	0.00078704833984375	1375.76577652653
0.845184326171875	0.00080169677734375	1376.65078652429
0.849609375	0.00081634521484375	1377.53579652206
0.854034423828125	0.00083160400390625	1378.42080651982
0.85845947265625	0.00084808349609375	1379.30581651759
0.862884521484375	0.0008636474609375	1380.19082651535
0.8673095703125	0.00088043212890625	1381.07583651312
0.871734619140625	0.0008978271484375	1381.96084651088
0.87615966796875	0.00091583251953125	1382.84585650865
0.880584716796875	0.0009344482421875	1383.73086650642
0.885009765625	0.00095306396484375	1384.61587650418
0.889434814453125	0.00097259521484375	1385.50088650195
0.89385986328125	0.000992431640625	1386.38589649971
0.898284912109375	0.00101318359375	1387.27090649748
0.9027099609375	0.0010345458984375	1388.15591649524
0.907135009765625	0.0010565185546875	1389.04092649301
0.91156005859375	0.0010797119140625	1389.92593649077
0.915985107421875	0.0011029052734375	1390.81094648854
0.92041015625	0.0011273193359375	1391.69595648631
0.924835205078125	0.00115386962890625	1392.58096648407
0.92926025390625	0.00118072509765625	1393.46597648184
0.933685302734375	0.00121063232421875	1394.3509864796
0.9381103515625	0.00124298095703125	1395.23599647737
0.942535400390625	0.00127532958984375	1396.12100647513
0.94696044921875	0.00131011962890625	1397.0060164729
0.951385498046875	0.00134765625	1397.89102647066
0.955810546875	0.00138763427734375	1398.77603646843
0.960235595703125	0.00143035888671875	1399.6610464662
0.96466064453125	0.00147674560546875	1400.54605646396
0.969085693359375	0.00152618408203125	1401.43106646173
0.9735107421875	0.00157867431640625	1402.31607645949
0.977935791015625	0.0016339111328125	1403.20108645726
0.98236083984375	0.00169403076171875	1404.08609645502
0.986785888671875	0.0017572021484375	1404.97110645279
0.9912109375	0.00182525634765625	1405.85611645055
