Potential applied (V)	WE(1).Current (A)	Time (s)
0.004425048828125	-0.078790283203125	2460.98691378661
0.00885009765625	-0.070208740234375	2461.07541478638
0.013275146484375	-0.0632965087890625	2461.16391578616
0.0177001953125	-0.0575103759765625	2461.25241678594
0.022125244140625	-0.0525421142578125	2461.34091778571
0.02655029296875	-0.04818115234375	2461.42941878549
0.030975341796875	-0.0443145751953125	2461.51791978526
0.035400390625	-0.04085693359375	2461.60642078504
0.039825439453125	-0.037725830078125	2461.69492178482
0.04425048828125	-0.034881591796875	2461.78342278459
0.048675537109375	-0.032293701171875	2461.87192378437
0.0531005859375	-0.0299224853515625	2461.96042478415
0.057525634765625	-0.02774658203125	2462.04892578392
0.06195068359375	-0.0257354736328125	2462.1374267837
0.066375732421875	-0.023876953125	2462.22592778348
0.07080078125	-0.0221527099609375	2462.31442878325
0.075225830078125	-0.020550537109375	2462.40292978303
0.07965087890625	-0.0190643310546875	2462.49143078281
0.084075927734375	-0.0176788330078125	2462.57993178258
0.0885009765625	-0.016387939453125	2462.66843278236
0.092926025390625	-0.0151763916015625	2462.75693378214
0.09735107421875	-0.014044189453125	2462.84543478191
0.101776123046875	-0.01297607421875	2462.93393578169
0.106201171875	-0.0119720458984375	2463.02243678147
0.110626220703125	-0.0110321044921875	2463.11093778124
0.11505126953125	-0.0101470947265625	2463.19943878102
0.119476318359375	-0.00931396484375	2463.2879397808
0.1239013671875	-0.008526611328125	2463.37644078057
0.128326416015625	-0.0077850341796875	2463.46494178035
0.13275146484375	-0.007080078125	2463.55344278013
0.137176513671875	-0.006414794921875	2463.6419437799
0.1416015625	-0.0057861328125	2463.73044477968
0.146026611328125	-0.00518798828125	2463.81894577946
0.15045166015625	-0.00462677001953125	2463.90744677923
0.154876708984375	-0.00409210205078125	2463.99594777901
0.1593017578125	-0.00358612060546875	2464.08444877878
0.163726806640625	-0.00310577392578125	2464.17294977856
0.16815185546875	-0.002650146484375	2464.26145077834
0.172576904296875	-0.00222625732421875	2464.34995177811
0.177001953125	-0.00181488037109375	2464.43845277789
0.181427001953125	-0.00142425537109375	2464.52695377767
0.18585205078125	-0.0010540771484375	2464.61545477744
0.190277099609375	-0.00070220947265625	2464.70395577722
0.1947021484375	-0.00036810302734375	2464.792456777
0.199127197265625	-5.0689697265625E-05	2464.88095777677
0.20355224609375	0.00025054931640625	2464.96945877655
0.207977294921875	0.0005364990234375	2465.05795977633
0.21240234375	0.00080841064453125	2465.1464607761
0.216827392578125	0.00106658935546875	2465.23496177588
0.22125244140625	0.00131103515625	2465.32346277566
0.225677490234375	0.00154296875	2465.41196377543
0.2301025390625	0.00176361083984375	2465.50046477521
0.234527587890625	0.00197113037109375	2465.58896577499
0.23895263671875	0.00216888427734375	2465.67746677476
0.243377685546875	0.00235595703125	2465.76596777454
0.247802734375	0.00253326416015625	2465.85446877432
0.252227783203125	0.002701416015625	2465.94296977409
0.25665283203125	0.0028607177734375	2466.03147077387
0.261077880859375	0.00301025390625	2466.11997177365
0.2655029296875	0.00315216064453125	2466.20847277342
0.269927978515625	0.00328704833984375	2466.2969737732
0.27435302734375	0.00341339111328125	2466.38547477298
0.278778076171875	0.00353240966796875	2466.47397577275
0.283203125	0.0036444091796875	2466.56247677253
0.287628173828125	0.00375244140625	2466.6509777723
0.29205322265625	0.0038531494140625	2466.73947877208
0.296478271484375	0.00394744873046875	2466.82797977186
0.3009033203125	0.00403717041015625	2466.91648077163
0.305328369140625	0.00411956787109375	2467.00498177141
0.30975341796875	0.00419769287109375	2467.09348277119
0.314178466796875	0.00427337646484375	2467.18198377096
0.318603515625	0.0043426513671875	2467.27048477074
0.323028564453125	0.00440643310546875	2467.35898577052
0.32745361328125	0.0044683837890625	2467.44748677029
0.331878662109375	0.00452484130859375	2467.53598777007
0.3363037109375	0.00457733154296875	2467.62448876985
0.340728759765625	0.0046270751953125	2467.71298976962
0.34515380859375	0.00467376708984375	2467.8014907694
0.349578857421875	0.004716796875	2467.88999176918
0.35400390625	0.00475341796875	2467.97849276895
0.358428955078125	0.0047918701171875	2468.06699376873
0.36285400390625	0.0048260498046875	2468.15549476851
0.367279052734375	0.004857177734375	2468.24399576828
0.3717041015625	0.00488616943359375	2468.33249676806
0.376129150390625	0.0049139404296875	2468.42099776784
0.38055419921875	0.00493804931640625	2468.50949876761
0.384979248046875	0.00496063232421875	2468.59799976739
0.389404296875	0.004981689453125	2468.68650076717
0.393829345703125	0.0049993896484375	2468.77500176694
0.39825439453125	0.00501800537109375	2468.86350276672
0.402679443359375	0.0050347900390625	2468.9520037665
0.4071044921875	0.00504852294921875	2469.04050476627
0.411529541015625	0.00506195068359375	2469.12900576605
0.41595458984375	0.00507354736328125	2469.21750676582
0.420379638671875	0.00508544921875	2469.3060077656
0.4248046875	0.00509521484375	2469.39450876538
0.429229736328125	0.00510284423828125	2469.48300976515
0.43365478515625	0.00510955810546875	2469.57151076493
0.438079833984375	0.00511444091796875	2469.66001176471
0.4425048828125	0.00511962890625	2469.74851276448
0.446929931640625	0.0051239013671875	2469.83701376426
0.45135498046875	0.00512725830078125	2469.92551476404
0.455780029296875	0.00512969970703125	2470.01401576381
0.460205078125	0.0051318359375	2470.10251676359
0.464630126953125	0.0051324462890625	2470.19101776337
0.46905517578125	0.005133056640625	2470.27951876314
0.473480224609375	0.00513427734375	2470.36801976292
0.4779052734375	0.00513397216796875	2470.4565207627
0.482330322265625	0.0051336669921875	2470.54502176247
0.48675537109375	0.00513214111328125	2470.63352276225
0.491180419921875	0.005130615234375	2470.72202376203
0.49560546875	0.00512908935546875	2470.8105247618
0.500030517578125	0.00512725830078125	2470.89902576158
0.50445556640625	0.00512420654296875	2470.98752676136
0.508880615234375	0.005120849609375	2471.07602776113
0.5133056640625	0.00511810302734375	2471.16452876091
0.517730712890625	0.0051141357421875	2471.25302976069
0.52215576171875	0.00511077880859375	2471.34153076046
0.526580810546875	0.00510589599609375	2471.43003176024
0.531005859375	0.00510223388671875	2471.51853276002
0.535430908203125	0.00509918212890625	2471.60703375979
0.53985595703125	0.005093994140625	2471.69553475957
0.544281005859375	0.00508941650390625	2471.78403575934
0.5487060546875	0.005084228515625	2471.87253675912
0.553131103515625	0.0050799560546875	2471.9610377589
0.55755615234375	0.00507568359375	2472.04953875867
0.561981201171875	0.00507110595703125	2472.13803975845
0.56640625	0.0050653076171875	2472.22654075823
0.570831298828125	0.005059814453125	2472.315041758
0.57525634765625	0.00505462646484375	2472.40354275778
0.579681396484375	0.005048828125	2472.49204375756
0.5841064453125	0.00504302978515625	2472.58054475733
0.588531494140625	0.00503662109375	2472.66904575711
0.59295654296875	0.00503204345703125	2472.75754675689
0.597381591796875	0.00502593994140625	2472.84604775666
0.601806640625	0.005020751953125	2472.93454875644
0.606231689453125	0.00501495361328125	2473.02304975622
0.61065673828125	0.00500946044921875	2473.11155075599
0.615081787109375	0.005003662109375	2473.20005175577
0.6195068359375	0.00499908447265625	2473.28855275555
0.623931884765625	0.00499359130859375	2473.37705375532
0.62835693359375	0.0049920654296875	2473.4655547551
0.632781982421875	0.0049871826171875	2473.55405575488
0.63720703125	0.004981689453125	2473.64255675465
0.641632080078125	0.00497711181640625	2473.73105775443
0.64605712890625	0.004971923828125	2473.81955875421
0.650482177734375	0.00496734619140625	2473.90805975398
0.6549072265625	0.0049615478515625	2473.99656075376
0.659332275390625	0.0049578857421875	2474.08506175354
0.66375732421875	0.00495361328125	2474.17356275331
0.668182373046875	0.004949951171875	2474.26206375309
0.672607421875	0.00494598388671875	2474.35056475287
0.677032470703125	0.0049420166015625	2474.43906575264
0.68145751953125	0.00493865966796875	2474.52756675242
0.685882568359375	0.0049359130859375	2474.61606775219
0.6903076171875	0.0049322509765625	2474.70456875197
0.694732666015625	0.004930419921875	2474.79306975175
0.69915771484375	0.00492706298828125	2474.88157075152
0.703582763671875	0.00492431640625	2474.9700717513
0.7080078125	0.00492279052734375	2475.05857275108
0.712432861328125	0.0049212646484375	2475.14707375085
0.71685791015625	0.00492095947265625	2475.23557475063
0.721282958984375	0.00491943359375	2475.32407575041
0.7257080078125	0.00491943359375	2475.41257675018
0.730133056640625	0.00491943359375	2475.50107774996
0.73455810546875	0.0049200439453125	2475.58957874974
0.738983154296875	0.00492095947265625	2475.67807974951
0.743408203125	0.00491973876953125	2475.76658074929
0.747833251953125	0.0049212646484375	2475.85508174907
0.75225830078125	0.00492340087890625	2475.94358274884
0.756683349609375	0.00492645263671875	2476.03208374862
0.7611083984375	0.0049298095703125	2476.1205847484
0.765533447265625	0.0049334716796875	2476.20908574817
0.76995849609375	0.0049365234375	2476.29758674795
0.774383544921875	0.00494171142578125	2476.38608774773
0.77880859375	0.00494598388671875	2476.4745887475
0.783233642578125	0.0049517822265625	2476.56308974728
0.78765869140625	0.00495758056640625	2476.65159074706
0.792083740234375	0.0049639892578125	2476.74009174683
0.7965087890625	0.00497100830078125	2476.82859274661
0.800933837890625	0.00497955322265625	2476.91709374639
0.80535888671875	0.00498870849609375	2477.00559474616
0.809783935546875	0.00499725341796875	2477.09409574594
0.814208984375	0.0050067138671875	2477.18259674572
0.818634033203125	0.00501678466796875	2477.27109774549
0.82305908203125	0.005028076171875	2477.35959874527
0.827484130859375	0.005040283203125	2477.44809974504
0.8319091796875	0.0050531005859375	2477.53660074482
0.836334228515625	0.00506683349609375	2477.6251017446
0.84075927734375	0.00508026123046875	2477.71360274437
0.845184326171875	0.005096435546875	2477.80210374415
0.849609375	0.00511199951171875	2477.89060474393
0.854034423828125	0.0051287841796875	2477.9791057437
0.85845947265625	0.00514678955078125	2478.06760674348
0.862884521484375	0.00516387939453125	2478.15610774326
0.8673095703125	0.0051849365234375	2478.24460874303
0.871734619140625	0.005205078125	2478.33310974281
0.87615966796875	0.00522796630859375	2478.42161074259
0.880584716796875	0.00525054931640625	2478.51011174236
0.885009765625	0.0052740478515625	2478.59861274214
0.889434814453125	0.005299072265625	2478.68711374192
0.89385986328125	0.00532501220703125	2478.77561474169
0.898284912109375	0.005352783203125	2478.86411574147
0.9027099609375	0.00538177490234375	2478.95261674125
0.907135009765625	0.00541168212890625	2479.04111774102
0.91156005859375	0.005443115234375	2479.1296187408
0.915985107421875	0.00547454833984375	2479.21811974058
0.92041015625	0.00550811767578125	2479.30662074035
0.924835205078125	0.0055426025390625	2479.39512174013
0.92926025390625	0.00558074951171875	2479.48362273991
0.933685302734375	0.0056182861328125	2479.57212373968
0.9381103515625	0.0056585693359375	2479.66062473946
0.942535400390625	0.0056988525390625	2479.74912573924
0.94696044921875	0.00574127197265625	2479.83762673901
0.951385498046875	0.00578369140625	2479.92612773879
0.955810546875	0.0058282470703125	2480.01462873857
0.960235595703125	0.00587371826171875	2480.10312973834
0.96466064453125	0.00592041015625	2480.19163073812
0.969085693359375	0.00596923828125	2480.28013173789
0.9735107421875	0.00601959228515625	2480.36863273767
0.977935791015625	0.006060791015625	2480.45713373745
0.98236083984375	0.0061126708984375	2480.54563473722
0.986785888671875	0.0061676025390625	2480.634135737
0.9912109375	0.0062225341796875	2480.72263673678
0.995635986328125	0.0062774658203125	2480.81113773655
1.00006103515625	0.0063385009765625	2480.89963873633
0.995635986328125	0.005670166015625	2480.98813973611
0.9912109375	0.005059814453125	2481.07664073588
0.986785888671875	0.0044989013671875	2481.16514173566
0.98236083984375	0.0039764404296875	2481.25364273544
0.977935791015625	0.00348907470703125	2481.34214373521
0.9735107421875	0.00303375244140625	2481.43064473499
0.969085693359375	0.0026055908203125	2481.51914573477
0.96466064453125	0.0022027587890625	2481.60764673454
0.960235595703125	0.0018218994140625	2481.69614773432
0.955810546875	0.00146270751953125	2481.7846487341
0.951385498046875	0.00112274169921875	2481.87314973387
0.94696044921875	0.00080169677734375	2481.96165073365
0.942535400390625	0.00049774169921875	2482.05015173343
0.9381103515625	0.000209808349609375	2482.1386527332
0.933685302734375	-6.5521240234375E-05	2482.22715373298
0.92926025390625	-0.00032366943359375	2482.31565473276
0.924835205078125	-0.0005682373046875	2482.40415573253
0.92041015625	-0.00079986572265625	2482.49265673231
0.915985107421875	-0.0010198974609375	2482.58115773209
0.91156005859375	-0.0012274169921875	2482.66965873186
0.907135009765625	-0.00142425537109375	2482.75815973164
0.9027099609375	-0.0016107177734375	2482.84666073141
0.898284912109375	-0.00178680419921875	2482.93516173119
0.89385986328125	-0.00195281982421875	2483.02366273097
0.889434814453125	-0.00211029052734375	2483.11216373074
0.885009765625	-0.00225860595703125	2483.20066473052
0.880584716796875	-0.0023980712890625	2483.2891657303
0.87615966796875	-0.002530517578125	2483.37766673007
0.871734619140625	-0.00265533447265625	2483.46616772985
0.8673095703125	-0.002772216796875	2483.55466872963
0.862884521484375	-0.00288299560546875	2483.6431697294
0.85845947265625	-0.00298583984375	2483.73167072918
0.854034423828125	-0.00308319091796875	2483.82017172896
0.849609375	-0.0031756591796875	2483.90867272873
0.845184326171875	-0.00326141357421875	2483.99717372851
0.84075927734375	-0.0033428955078125	2484.08567472829
0.836334228515625	-0.0034185791015625	2484.17417572806
0.8319091796875	-0.00348968505859375	2484.26267672784
0.827484130859375	-0.00355743408203125	2484.35117772762
0.82305908203125	-0.0036199951171875	2484.43967872739
0.818634033203125	-0.00367919921875	2484.52817972717
0.814208984375	-0.00373504638671875	2484.61668072695
0.809783935546875	-0.00378753662109375	2484.70518172672
0.80535888671875	-0.00383697509765625	2484.7936827265
0.800933837890625	-0.0038836669921875	2484.88218372628
0.7965087890625	-0.003927001953125	2484.97068472605
0.792083740234375	-0.00396820068359375	2485.05918572583
0.78765869140625	-0.00400634765625	2485.14768672561
0.783233642578125	-0.00404266357421875	2485.23618772538
0.77880859375	-0.004075927734375	2485.32468872516
0.774383544921875	-0.00410736083984375	2485.41318972493
0.76995849609375	-0.00413787841796875	2485.50169072471
0.765533447265625	-0.00416748046875	2485.59019172449
0.7611083984375	-0.00419525146484375	2485.67869272426
0.756683349609375	-0.00422088623046875	2485.76719372404
0.75225830078125	-0.0042449951171875	2485.85569472382
0.747833251953125	-0.0042681884765625	2485.94419572359
0.743408203125	-0.0042901611328125	2486.03269672337
0.738983154296875	-0.0043096923828125	2486.12119772315
0.73455810546875	-0.0043304443359375	2486.20969872292
0.730133056640625	-0.00435028076171875	2486.2981997227
0.7257080078125	-0.00436920166015625	2486.38670072248
0.721282958984375	-0.00438751220703125	2486.47520172225
0.71685791015625	-0.0044049072265625	2486.56370272203
0.712432861328125	-0.0044219970703125	2486.65220372181
0.7080078125	-0.0044390869140625	2486.74070472158
0.703582763671875	-0.004454345703125	2486.82920572136
0.69915771484375	-0.00446868896484375	2486.91770672114
0.694732666015625	-0.0044842529296875	2487.00620772091
0.6903076171875	-0.004498291015625	2487.09470872069
0.685882568359375	-0.00451263427734375	2487.18320972047
0.68145751953125	-0.004527587890625	2487.27171072024
0.677032470703125	-0.00454071044921875	2487.36021172002
0.672607421875	-0.0045538330078125	2487.4487127198
0.668182373046875	-0.00456695556640625	2487.53721371957
0.66375732421875	-0.004580078125	2487.62571471935
0.659332275390625	-0.00459259033203125	2487.71421571913
0.6549072265625	-0.00460479736328125	2487.8027167189
0.650482177734375	-0.0046173095703125	2487.89121771868
0.64605712890625	-0.004630126953125	2487.97971871845
0.641632080078125	-0.004642333984375	2488.06821971823
0.63720703125	-0.00465484619140625	2488.15672071801
0.632781982421875	-0.004666748046875	2488.24522171778
0.62835693359375	-0.0046783447265625	2488.33372271756
0.623931884765625	-0.00469329833984375	2488.42222371734
0.6195068359375	-0.00470458984375	2488.51072471711
0.615081787109375	-0.00471649169921875	2488.59922571689
0.61065673828125	-0.00472747802734375	2488.68772671667
0.606231689453125	-0.0047393798828125	2488.77622771644
0.601806640625	-0.0047515869140625	2488.86472871622
0.597381591796875	-0.00476287841796875	2488.953229716
0.59295654296875	-0.00477447509765625	2489.04173071577
0.588531494140625	-0.00478668212890625	2489.13023171555
0.5841064453125	-0.0047967529296875	2489.21873271533
0.579681396484375	-0.004808349609375	2489.3072337151
0.57525634765625	-0.0048199462890625	2489.39573471488
0.570831298828125	-0.00483154296875	2489.48423571466
0.56640625	-0.00484283447265625	2489.57273671443
0.561981201171875	-0.00485443115234375	2489.66123771421
0.55755615234375	-0.004866943359375	2489.74973871399
0.553131103515625	-0.00487884521484375	2489.83823971376
0.5487060546875	-0.00489105224609375	2489.92674071354
0.544281005859375	-0.0049017333984375	2490.01524171332
0.53985595703125	-0.0049139404296875	2490.10374271309
0.535430908203125	-0.0049261474609375	2490.19224371287
0.531005859375	-0.00493865966796875	2490.28074471265
0.526580810546875	-0.004952392578125	2490.36924571242
0.52215576171875	-0.00496551513671875	2490.4577467122
0.517730712890625	-0.00497833251953125	2490.54624771198
0.5133056640625	-0.004991455078125	2490.63474871175
0.508880615234375	-0.00500457763671875	2490.72324971153
0.50445556640625	-0.00501739501953125	2490.8117507113
0.500030517578125	-0.0050311279296875	2490.90025171108
0.49560546875	-0.00504425048828125	2490.98875271086
0.491180419921875	-0.00505889892578125	2491.07725371063
0.48675537109375	-0.0050726318359375	2491.16575471041
0.482330322265625	-0.00508575439453125	2491.25425571019
0.4779052734375	-0.00510040283203125	2491.34275670996
0.473480224609375	-0.00511383056640625	2491.43125770974
0.46905517578125	-0.005128173828125	2491.51975870952
0.464630126953125	-0.0051416015625	2491.60825970929
0.460205078125	-0.00515655517578125	2491.69676070907
0.455780029296875	-0.0051708984375	2491.78526170885
0.45135498046875	-0.00518524169921875	2491.87376270862
0.446929931640625	-0.0052001953125	2491.9622637084
0.4425048828125	-0.0052154541015625	2492.05076470818
0.438079833984375	-0.005230712890625	2492.13926570795
0.43365478515625	-0.00524688720703125	2492.22776670773
0.429229736328125	-0.0052618408203125	2492.31626770751
0.4248046875	-0.0052783203125	2492.40476870728
0.420379638671875	-0.005294189453125	2492.49326970706
0.41595458984375	-0.0053094482421875	2492.58177070684
0.411529541015625	-0.00532745361328125	2492.67027170661
0.4071044921875	-0.0053436279296875	2492.75877270639
0.402679443359375	-0.00535980224609375	2492.84727370617
0.39825439453125	-0.00537628173828125	2492.93577470594
0.393829345703125	-0.00539276123046875	2493.02427570572
0.389404296875	-0.00540863037109375	2493.1127767055
0.384979248046875	-0.0054254150390625	2493.20127770527
0.38055419921875	-0.00544189453125	2493.28977870505
0.376129150390625	-0.005458984375	2493.37827970483
0.3717041015625	-0.0054766845703125	2493.4667807046
0.367279052734375	-0.00549468994140625	2493.55528170438
0.36285400390625	-0.00551055908203125	2493.64378270415
0.358428955078125	-0.00552825927734375	2493.73228370393
0.35400390625	-0.00554534912109375	2493.82078470371
0.349578857421875	-0.00556121826171875	2493.90928570348
0.34515380859375	-0.00557891845703125	2493.99778670326
0.340728759765625	-0.00559600830078125	2494.08628770304
0.3363037109375	-0.00561370849609375	2494.17478870281
0.331878662109375	-0.0056304931640625	2494.26328970259
0.32745361328125	-0.0056488037109375	2494.35179070237
0.323028564453125	-0.00566619873046875	2494.44029170214
0.318603515625	-0.00568389892578125	2494.52879270192
0.314178466796875	-0.00570159912109375	2494.6172937017
0.30975341796875	-0.00572265625	2494.70579470147
0.305328369140625	-0.0057403564453125	2494.79429570125
0.3009033203125	-0.0057568359375	2494.88279670103
0.296478271484375	-0.00577545166015625	2494.9712977008
0.29205322265625	-0.005792236328125	2495.05979870058
0.287628173828125	-0.005810546875	2495.14829970036
0.283203125	-0.00582855224609375	2495.23680070013
0.278778076171875	-0.0058465576171875	2495.32530169991
0.27435302734375	-0.005865478515625	2495.41380269969
0.269927978515625	-0.0058837890625	2495.50230369946
0.2655029296875	-0.00590301513671875	2495.59080469924
0.261077880859375	-0.00592193603515625	2495.67930569902
0.25665283203125	-0.00594024658203125	2495.76780669879
0.252227783203125	-0.0059588623046875	2495.85630769857
0.247802734375	-0.00597747802734375	2495.94480869835
0.243377685546875	-0.00599578857421875	2496.03330969812
0.23895263671875	-0.0060150146484375	2496.1218106979
0.234527587890625	-0.006011962890625	2496.21031169768
0.2301025390625	-0.0060333251953125	2496.29881269745
0.225677490234375	-0.0060516357421875	2496.38731369723
0.22125244140625	-0.0060699462890625	2496.475814697
0.216827392578125	-0.00609130859375	2496.56431569678
0.21240234375	-0.0061126708984375	2496.65281669656
0.207977294921875	-0.006134033203125	2496.74131769633
0.20355224609375	-0.0061553955078125	2496.82981869611
0.199127197265625	-0.0061737060546875	2496.91831969589
0.1947021484375	-0.0061981201171875	2497.00682069566
0.190277099609375	-0.0062164306640625	2497.09532169544
0.18585205078125	-0.0062408447265625	2497.18382269522
0.181427001953125	-0.00626220703125	2497.27232369499
0.177001953125	-0.0062835693359375	2497.36082469477
0.172576904296875	-0.006304931640625	2497.44932569455
0.16815185546875	-0.006329345703125	2497.53782669432
0.163726806640625	-0.0063507080078125	2497.6263276941
0.1593017578125	-0.0063751220703125	2497.71482869388
0.154876708984375	-0.0063995361328125	2497.80332969365
0.15045166015625	-0.0064239501953125	2497.89183069343
0.146026611328125	-0.0064483642578125	2497.98033169321
0.1416015625	-0.0064727783203125	2498.06883269298
0.137176513671875	-0.0064971923828125	2498.15733369276
0.13275146484375	-0.006524658203125	2498.24583469254
0.128326416015625	-0.0065521240234375	2498.33433569231
0.1239013671875	-0.00657958984375	2498.42283669209
0.119476318359375	-0.0066070556640625	2498.51133769187
0.11505126953125	-0.0066314697265625	2498.59983869164
0.110626220703125	-0.0066619873046875	2498.68833969142
0.106201171875	-0.006689453125	2498.7768406912
0.101776123046875	-0.0067169189453125	2498.86534169097
0.09735107421875	-0.0067474365234375	2498.95384269075
0.092926025390625	-0.0067779541015625	2499.04234369052
0.0885009765625	-0.0068115234375	2499.1308446903
0.084075927734375	-0.006842041015625	2499.21934569008
0.07965087890625	-0.0068756103515625	2499.30784668985
0.075225830078125	-0.0069061279296875	2499.39634768963
0.07080078125	-0.006939697265625	2499.48484868941
0.066375732421875	-0.0069732666015625	2499.57334968918
0.06195068359375	-0.0070068359375	2499.66185068896
0.057525634765625	-0.0070404052734375	2499.75035168874
0.0531005859375	-0.0070770263671875	2499.83885268851
0.048675537109375	-0.007110595703125	2499.92735368829
0.04425048828125	-0.007147216796875	2500.01585468807
0.039825439453125	-0.007183837890625	2500.10435568784
0.035400390625	-0.007220458984375	2500.19285668762
0.030975341796875	-0.0072601318359375	2500.2813576874
0.02655029296875	-0.0072967529296875	2500.36985868717
0.022125244140625	-0.00733642578125	2500.45835968695
0.0177001953125	-0.0073760986328125	2500.54686068673
0.013275146484375	-0.007415771484375	2500.6353616865
0.00885009765625	-0.0074554443359375	2500.72386268628
0.004425048828125	-0.0074951171875	2500.81236368606
0	-0.007537841796875	2500.90086468583
0.004425048828125	-0.0068328857421875	2500.98936568561
0.00885009765625	-0.0061767578125	2501.07786668539
0.013275146484375	-0.0055572509765625	2501.16636768516
0.0177001953125	-0.00497314453125	2501.25486868494
0.022125244140625	-0.0044195556640625	2501.34336968472
0.02655029296875	-0.00389373779296875	2501.43187068449
0.030975341796875	-0.00339447021484375	2501.52037168427
0.035400390625	-0.0029193115234375	2501.60887268404
0.039825439453125	-0.0024774169921875	2501.69737368382
0.04425048828125	-0.0020458984375	2501.7858746836
0.048675537109375	-0.00163421630859375	2501.87437568337
0.0531005859375	-0.00124176025390625	2501.96287668315
0.057525634765625	-0.00086700439453125	2502.05137768293
0.06195068359375	-0.00050933837890625	2502.1398786827
0.066375732421875	-0.000168243408203125	2502.22837968248
0.07080078125	0.00015753173828125	2502.31688068226
0.075225830078125	0.000469207763671875	2502.40538168203
0.07965087890625	0.0007659912109375	2502.49388268181
0.084075927734375	0.0010504150390625	2502.58238368159
0.0885009765625	0.0013214111328125	2502.67088468136
0.092926025390625	0.00158050537109375	2502.75938568114
0.09735107421875	0.00182891845703125	2502.84788668092
0.101776123046875	0.00206573486328125	2502.93638768069
0.106201171875	0.002291259765625	2503.02488868047
0.110626220703125	0.002506103515625	2503.11338968025
0.11505126953125	0.0027105712890625	2503.20189068002
0.119476318359375	0.002904052734375	2503.2903916798
0.1239013671875	0.0030902099609375	2503.37889267958
0.128326416015625	0.00326751708984375	2503.46739367935
0.13275146484375	0.00343536376953125	2503.55589467913
0.137176513671875	0.00359527587890625	2503.64439567891
0.1416015625	0.00374786376953125	2503.73289667868
0.146026611328125	0.00389251708984375	2503.82139767846
0.15045166015625	0.00403045654296875	2503.90989867824
0.154876708984375	0.0041619873046875	2503.99839967801
0.1593017578125	0.004285888671875	2504.08690067779
0.163726806640625	0.0044024658203125	2504.17540167756
0.16815185546875	0.0045135498046875	2504.26390267734
0.172576904296875	0.00461761474609375	2504.35240367712
0.177001953125	0.00471649169921875	2504.44090467689
0.181427001953125	0.00481048583984375	2504.52940567667
0.18585205078125	0.0048968505859375	2504.61790667645
0.190277099609375	0.00497955322265625	2504.70640767622
0.1947021484375	0.00505615234375	2504.794908676
0.199127197265625	0.0051287841796875	2504.88340967578
0.20355224609375	0.00519744873046875	2504.97191067555
0.207977294921875	0.005260009765625	2505.06041167533
0.21240234375	0.005318603515625	2505.14891267511
0.216827392578125	0.005372314453125	2505.23741367488
0.22125244140625	0.005423583984375	2505.32591467466
0.225677490234375	0.00547119140625	2505.41441567444
0.2301025390625	0.00551422119140625	2505.50291667421
0.234527587890625	0.00555328369140625	2505.59141767399
0.23895263671875	0.00559051513671875	2505.67991867377
0.243377685546875	0.00562652587890625	2505.76841967354
0.247802734375	0.0056573486328125	2505.85692067332
0.252227783203125	0.00568634033203125	2505.9454216731
0.25665283203125	0.00571197509765625	2506.03392267287
0.261077880859375	0.0057354736328125	2506.12242367265
0.2655029296875	0.005755615234375	2506.21092467243
0.269927978515625	0.00577423095703125	2506.2994256722
0.27435302734375	0.00578857421875	2506.38792667198
0.278778076171875	0.00580169677734375	2506.47642767176
0.283203125	0.00581298828125	2506.56492867153
0.287628173828125	0.00582489013671875	2506.65342967131
0.29205322265625	0.00583282470703125	2506.74193067108
0.296478271484375	0.00583892822265625	2506.83043167086
0.3009033203125	0.00584381103515625	2506.91893267064
0.305328369140625	0.0058477783203125	2507.00743367041
0.30975341796875	0.00584991455078125	2507.09593467019
0.314178466796875	0.0058544921875	2507.18443566997
0.318603515625	0.0058551025390625	2507.27293666974
0.323028564453125	0.00585418701171875	2507.36143766952
0.32745361328125	0.00585296630859375	2507.4499386693
0.331878662109375	0.005849609375	2507.53843966907
0.3363037109375	0.00584564208984375	2507.62694066885
0.340728759765625	0.00584014892578125	2507.71544166863
0.34515380859375	0.00583465576171875	2507.8039426684
0.349578857421875	0.00582855224609375	2507.89244366818
0.35400390625	0.0058209228515625	2507.98094466796
0.358428955078125	0.00581390380859375	2508.06944566773
0.36285400390625	0.005806884765625	2508.15794666751
0.367279052734375	0.005799560546875	2508.24644766729
0.3717041015625	0.005791015625	2508.33494866706
0.376129150390625	0.005782470703125	2508.42344966684
0.38055419921875	0.00577362060546875	2508.51195066662
0.384979248046875	0.00576416015625	2508.60045166639
0.389404296875	0.00575408935546875	2508.68895266617
0.393829345703125	0.0057440185546875	2508.77745366595
0.39825439453125	0.00573272705078125	2508.86595466572
0.402679443359375	0.00572296142578125	2508.9544556655
0.4071044921875	0.005712890625	2509.04295666528
0.411529541015625	0.0057025146484375	2509.13145766505
0.41595458984375	0.00569183349609375	2509.21995866483
0.420379638671875	0.0056805419921875	2509.3084596646
0.4248046875	0.00566986083984375	2509.39696066438
0.429229736328125	0.0056585693359375	2509.48546166416
0.43365478515625	0.0056475830078125	2509.57396266393
0.438079833984375	0.00563720703125	2509.66246366371
0.4425048828125	0.00562591552734375	2509.75096466349
0.446929931640625	0.00561431884765625	2509.83946566326
0.45135498046875	0.0056036376953125	2509.92796666304
0.455780029296875	0.00559326171875	2510.01646766282
0.460205078125	0.00558135986328125	2510.10496866259
0.464630126953125	0.005570068359375	2510.19346966237
0.46905517578125	0.0055584716796875	2510.28197066215
0.473480224609375	0.00554718017578125	2510.37047166192
0.4779052734375	0.00553680419921875	2510.4589726617
0.482330322265625	0.00552581787109375	2510.54747366148
0.48675537109375	0.00551513671875	2510.63597466125
0.491180419921875	0.00550445556640625	2510.72447566103
0.49560546875	0.0054931640625	2510.81297666081
0.500030517578125	0.0054833984375	2510.90147766058
0.50445556640625	0.00547210693359375	2510.98997866036
0.508880615234375	0.00546142578125	2511.07847966014
0.5133056640625	0.00545135498046875	2511.16698065991
0.517730712890625	0.00544158935546875	2511.25548165969
0.52215576171875	0.0054315185546875	2511.34398265947
0.526580810546875	0.00542205810546875	2511.43248365924
0.531005859375	0.005411376953125	2511.52098465902
0.535430908203125	0.005401611328125	2511.6094856588
0.53985595703125	0.005391845703125	2511.69798665857
0.544281005859375	0.005382080078125	2511.78648765835
0.5487060546875	0.00537139892578125	2511.87498865813
0.553131103515625	0.0053619384765625	2511.9634896579
0.55755615234375	0.00535125732421875	2512.05199065768
0.561981201171875	0.005343017578125	2512.14049165745
0.56640625	0.00533294677734375	2512.22899265723
0.570831298828125	0.00532501220703125	2512.31749365701
0.57525634765625	0.00531494140625	2512.40599465678
0.579681396484375	0.0053057861328125	2512.49449565656
0.5841064453125	0.0052972412109375	2512.58299665634
0.588531494140625	0.005286865234375	2512.67149765611
0.59295654296875	0.00527862548828125	2512.75999865589
0.597381591796875	0.00527069091796875	2512.84849965567
0.601806640625	0.0052618408203125	2512.93700065544
0.606231689453125	0.00525360107421875	2513.02550165522
0.61065673828125	0.0052459716796875	2513.114002655
0.615081787109375	0.0052386474609375	2513.20250365477
0.6195068359375	0.005230712890625	2513.29100465455
0.623931884765625	0.00522369384765625	2513.37950565433
0.62835693359375	0.00522064208984375	2513.4680066541
0.632781982421875	0.00521331787109375	2513.55650765388
0.63720703125	0.00520538330078125	2513.64500865366
0.641632080078125	0.00519989013671875	2513.73350965343
0.64605712890625	0.0051934814453125	2513.82201065321
0.650482177734375	0.00518829345703125	2513.91051165299
0.6549072265625	0.0051824951171875	2513.99901265276
0.659332275390625	0.005177001953125	2514.08751365254
0.66375732421875	0.005172119140625	2514.17601465232
0.668182373046875	0.005167236328125	2514.26451565209
0.672607421875	0.00516265869140625	2514.35301665187
0.677032470703125	0.00515869140625	2514.44151765165
0.68145751953125	0.00515411376953125	2514.53001865142
0.685882568359375	0.00515167236328125	2514.6185196512
0.6903076171875	0.0051483154296875	2514.70702065098
0.694732666015625	0.00514556884765625	2514.79552165075
0.69915771484375	0.0051434326171875	2514.88402265053
0.703582763671875	0.005140380859375	2514.9725236503
0.7080078125	0.00513916015625	2515.06102465008
0.712432861328125	0.00513824462890625	2515.14952564986
0.71685791015625	0.00513702392578125	2515.23802664963
0.721282958984375	0.0051361083984375	2515.32652764941
0.7257080078125	0.00513641357421875	2515.41502864919
0.730133056640625	0.0051373291015625	2515.50352964896
0.73455810546875	0.0051385498046875	2515.59203064874
0.738983154296875	0.00513946533203125	2515.68053164852
0.743408203125	0.005140380859375	2515.76903264829
0.747833251953125	0.0051416015625	2515.85753364807
0.75225830078125	0.00514373779296875	2515.94603464785
0.756683349609375	0.0051470947265625	2516.03453564762
0.7611083984375	0.0051513671875	2516.1230366474
0.765533447265625	0.0051556396484375	2516.21153764718
0.76995849609375	0.005159912109375	2516.30003864695
0.774383544921875	0.005164794921875	2516.38853964673
0.77880859375	0.00517120361328125	2516.47704064651
0.783233642578125	0.005177001953125	2516.56554164628
0.78765869140625	0.00518402099609375	2516.65404264606
0.792083740234375	0.005191650390625	2516.74254364584
0.7965087890625	0.00519927978515625	2516.83104464561
0.800933837890625	0.0052081298828125	2516.91954564539
0.80535888671875	0.005218505859375	2517.00804664517
0.809783935546875	0.00522705078125	2517.09654764494
0.814208984375	0.00523773193359375	2517.18504864472
0.818634033203125	0.005250244140625	2517.2735496445
0.82305908203125	0.005262451171875	2517.36205064427
0.827484130859375	0.00527435302734375	2517.45055164405
0.8319091796875	0.0052880859375	2517.53905264383
0.836334228515625	0.0053021240234375	2517.6275536436
0.84075927734375	0.0053179931640625	2517.71605464338
0.845184326171875	0.00533294677734375	2517.80455564315
0.849609375	0.0053497314453125	2517.89305664293
0.854034423828125	0.0053662109375	2517.98155764271
0.85845947265625	0.00538482666015625	2518.07005864248
0.862884521484375	0.0054034423828125	2518.15855964226
0.8673095703125	0.005423583984375	2518.24706064204
0.871734619140625	0.0054449462890625	2518.33556164181
0.87615966796875	0.00546661376953125	2518.42406264159
0.880584716796875	0.00548919677734375	2518.51256364137
0.885009765625	0.00551422119140625	2518.60106464114
0.889434814453125	0.00553955078125	2518.68956564092
0.89385986328125	0.00556549072265625	2518.7780666407
0.898284912109375	0.0055926513671875	2518.86656764047
0.9027099609375	0.00562103271484375	2518.95506864025
0.907135009765625	0.00565155029296875	2519.04356964003
0.91156005859375	0.0056829833984375	2519.1320706398
0.915985107421875	0.00571502685546875	2519.22057163958
0.92041015625	0.00574798583984375	2519.30907263936
0.924835205078125	0.00578277587890625	2519.39757363913
0.92926025390625	0.0058184814453125	2519.48607463891
0.933685302734375	0.00585601806640625	2519.57457563869
0.9381103515625	0.005897216796875	2519.66307663846
0.942535400390625	0.0059375	2519.75157763824
0.94696044921875	0.00597869873046875	2519.84007863802
0.951385498046875	0.0060211181640625	2519.92857963779
0.955810546875	0.0060546875	2520.01708063757
0.960235595703125	0.0061004638671875	2520.10558163735
0.96466064453125	0.006146240234375	2520.19408263712
0.969085693359375	0.0061920166015625	2520.2825836369
0.9735107421875	0.0062408447265625	2520.37108463667
0.977935791015625	0.0062896728515625	2520.45958563645
0.98236083984375	0.006341552734375	2520.54808663623
0.986785888671875	0.006396484375	2520.636587636
0.9912109375	0.006451416015625	2520.72508863578
0.995635986328125	0.00650634765625	2520.81358963556
1.00006103515625	0.0065673828125	2520.90209063533
0.995635986328125	0.0058990478515625	2520.99059163511
0.9912109375	0.00528564453125	2521.07909263489
0.986785888671875	0.0047216796875	2521.16759363466
0.98236083984375	0.00419647216796875	2521.25609463444
0.977935791015625	0.003704833984375	2521.34459563422
0.9735107421875	0.0032464599609375	2521.43309663399
0.969085693359375	0.00281341552734375	2521.52159763377
0.96466064453125	0.002406005859375	2521.61009863355
0.960235595703125	0.00202056884765625	2521.69859963332
0.955810546875	0.0016558837890625	2521.7871006331
0.951385498046875	0.00131134033203125	2521.87560163288
0.94696044921875	0.0009844970703125	2521.96410263265
0.942535400390625	0.000675048828125	2522.05260363243
0.9381103515625	0.000381561279296875	2522.14110463221
0.933685302734375	0.00010089111328125	2522.22960563198
0.92926025390625	-0.000162506103515625	2522.31810663176
0.924835205078125	-0.00041259765625	2522.40660763154
0.92041015625	-0.0006500244140625	2522.49510863131
0.915985107421875	-0.0008746337890625	2522.58360963109
0.91156005859375	-0.00108795166015625	2522.67211063087
0.907135009765625	-0.0012896728515625	2522.76061163064
0.9027099609375	-0.00148101806640625	2522.84911263042
0.898284912109375	-0.00166229248046875	2522.93761363019
0.89385986328125	-0.00183380126953125	2523.02611462997
0.889434814453125	-0.00199615478515625	2523.11461562975
0.885009765625	-0.00214935302734375	2523.20311662952
0.880584716796875	-0.00229400634765625	2523.2916176293
0.87615966796875	-0.00243011474609375	2523.38011862908
0.871734619140625	-0.00255950927734375	2523.46861962885
0.8673095703125	-0.00268035888671875	2523.55712062863
0.862884521484375	-0.00279510498046875	2523.64562162841
0.85845947265625	-0.00290191650390625	2523.73412262818
0.854034423828125	-0.00300323486328125	2523.82262362796
0.849609375	-0.00309906005859375	2523.91112462774
0.845184326171875	-0.0031884765625	2523.99962562751
0.84075927734375	-0.00327362060546875	2524.08812662729
0.836334228515625	-0.003353271484375	2524.17662762707
0.8319091796875	-0.00342742919921875	2524.26512862684
0.827484130859375	-0.003497314453125	2524.35362962662
0.82305908203125	-0.003563232421875	2524.4421306264
0.818634033203125	-0.0036248779296875	2524.53063162617
0.814208984375	-0.003682861328125	2524.61913262595
0.809783935546875	-0.0037371826171875	2524.70763362573
0.80535888671875	-0.00378875732421875	2524.7961346255
0.800933837890625	-0.00383697509765625	2524.88463562528
0.7965087890625	-0.0038824462890625	2524.97313662506
0.792083740234375	-0.003924560546875	2525.06163762483
0.78765869140625	-0.00396392822265625	2525.15013862461
0.783233642578125	-0.004002685546875	2525.23863962439
0.77880859375	-0.00403778076171875	2525.32714062416
0.774383544921875	-0.004071044921875	2525.41564162394
0.76995849609375	-0.004102783203125	2525.50414262371
0.765533447265625	-0.0041326904296875	2525.59264362349
0.7611083984375	-0.00416046142578125	2525.68114462327
0.756683349609375	-0.00418731689453125	2525.76964562304
0.75225830078125	-0.004212646484375	2525.85814662282
0.747833251953125	-0.004237060546875	2525.9466476226
0.743408203125	-0.00425994873046875	2526.03514862237
0.738983154296875	-0.00428070068359375	2526.12364962215
0.73455810546875	-0.00430145263671875	2526.21215062193
0.730133056640625	-0.004322509765625	2526.3006516217
0.7257080078125	-0.00434173583984375	2526.38915262148
0.721282958984375	-0.0043603515625	2526.47765362126
0.71685791015625	-0.00437835693359375	2526.56615462103
0.712432861328125	-0.0043963623046875	2526.65465562081
0.7080078125	-0.00441375732421875	2526.74315662059
0.703582763671875	-0.0044305419921875	2526.83165762036
0.69915771484375	-0.0044451904296875	2526.92015862014
0.694732666015625	-0.00446044921875	2527.00865961992
0.6903076171875	-0.00447509765625	2527.09716061969
0.685882568359375	-0.0044891357421875	2527.18566161947
0.68145751953125	-0.0045037841796875	2527.27416261925
0.677032470703125	-0.004517822265625	2527.36266361902
0.672607421875	-0.00453033447265625	2527.4511646188
0.668182373046875	-0.0045440673828125	2527.53966561858
0.66375732421875	-0.00455657958984375	2527.62816661835
0.659332275390625	-0.0045703125	2527.71666761813
0.6549072265625	-0.00458251953125	2527.80516861791
0.650482177734375	-0.00459564208984375	2527.89366961768
0.64605712890625	-0.004608154296875	2527.98217061746
0.641632080078125	-0.004620361328125	2528.07067161724
0.63720703125	-0.00463287353515625	2528.15917261701
0.632781982421875	-0.00464508056640625	2528.24767361679
0.62835693359375	-0.00465606689453125	2528.33617461656
0.623931884765625	-0.0046710205078125	2528.42467561634
0.6195068359375	-0.0046832275390625	2528.51317661612
0.615081787109375	-0.00469512939453125	2528.60167761589
0.61065673828125	-0.00470611572265625	2528.69017861567
0.606231689453125	-0.00471771240234375	2528.77867961545
0.601806640625	-0.00472930908203125	2528.86718061522
0.597381591796875	-0.0047406005859375	2528.955681615
0.59295654296875	-0.00475250244140625	2529.04418261478
0.588531494140625	-0.00476409912109375	2529.13268361455
0.5841064453125	-0.0047735595703125	2529.22118461433
0.579681396484375	-0.00478607177734375	2529.30968561411
0.57525634765625	-0.004798583984375	2529.39818661388
0.570831298828125	-0.0048095703125	2529.48668761366
0.56640625	-0.00482086181640625	2529.57518861344
0.561981201171875	-0.00483245849609375	2529.66368961321
0.55755615234375	-0.00484375	2529.75219061299
0.553131103515625	-0.00485595703125	2529.84069161277
0.5487060546875	-0.00486907958984375	2529.92919261254
0.544281005859375	-0.004879150390625	2530.01769361232
0.53985595703125	-0.00489166259765625	2530.1061946121
0.535430908203125	-0.0049041748046875	2530.19469561187
0.531005859375	-0.0049169921875	2530.28319661165
0.526580810546875	-0.004930419921875	2530.37169761143
0.52215576171875	-0.00494232177734375	2530.4601986112
0.517730712890625	-0.0049560546875	2530.54869961098
0.5133056640625	-0.0049688720703125	2530.63720061076
0.508880615234375	-0.00498138427734375	2530.72570161053
0.50445556640625	-0.00499481201171875	2530.81420261031
0.500030517578125	-0.0050079345703125	2530.90270361009
0.49560546875	-0.0050213623046875	2530.99120460986
0.491180419921875	-0.00503509521484375	2531.07970560964
0.48675537109375	-0.005048828125	2531.16820660941
0.482330322265625	-0.0050628662109375	2531.25670760919
0.4779052734375	-0.00507659912109375	2531.34520860897
0.473480224609375	-0.00509063720703125	2531.43370960874
0.46905517578125	-0.00510528564453125	2531.52221060852
0.464630126953125	-0.0051190185546875	2531.6107116083
0.460205078125	-0.00513397216796875	2531.69921260807
0.455780029296875	-0.00514892578125	2531.78771360785
0.45135498046875	-0.00516326904296875	2531.87621460763
0.446929931640625	-0.00517822265625	2531.9647156074
0.4425048828125	-0.0051934814453125	2532.05321660718
0.438079833984375	-0.005208740234375	2532.14171760696
0.43365478515625	-0.0052239990234375	2532.23021860673
0.429229736328125	-0.00523895263671875	2532.31871960651
0.4248046875	-0.0052557373046875	2532.40722060629
0.420379638671875	-0.00527130126953125	2532.49572160606
0.41595458984375	-0.00528717041015625	2532.58422260584
0.411529541015625	-0.0053033447265625	2532.67272360562
0.4071044921875	-0.0053192138671875	2532.76122460539
0.402679443359375	-0.005335693359375	2532.84972560517
0.39825439453125	-0.00535308837890625	2532.93822660495
0.393829345703125	-0.00536865234375	2533.02672760472
0.389404296875	-0.00538482666015625	2533.1152286045
0.384979248046875	-0.00540252685546875	2533.20372960428
0.38055419921875	-0.00541839599609375	2533.29223060405
0.376129150390625	-0.0054351806640625	2533.38073160383
0.3717041015625	-0.00545166015625	2533.46923260361
0.367279052734375	-0.00546905517578125	2533.55773360338
0.36285400390625	-0.00548583984375	2533.64623460316
0.358428955078125	-0.0055029296875	2533.73473560293
0.35400390625	-0.00552001953125	2533.82323660271
0.349578857421875	-0.00553558349609375	2533.91173760249
0.34515380859375	-0.005552978515625	2534.00023860226
0.340728759765625	-0.005570068359375	2534.08873960204
0.3363037109375	-0.00558807373046875	2534.17724060182
0.331878662109375	-0.00560546875	2534.26574160159
0.32745361328125	-0.00562347412109375	2534.35424260137
0.323028564453125	-0.005640869140625	2534.44274360115
0.318603515625	-0.005657958984375	2534.53124460092
0.314178466796875	-0.0056756591796875	2534.6197456007
0.30975341796875	-0.00569488525390625	2534.70824660048
0.305328369140625	-0.00571258544921875	2534.79674760025
0.3009033203125	-0.00572967529296875	2534.88524860003
0.296478271484375	-0.005748291015625	2534.97374959981
0.29205322265625	-0.00576568603515625	2535.06225059958
0.287628173828125	-0.00578369140625	2535.15075159936
0.283203125	-0.00580230712890625	2535.23925259914
0.278778076171875	-0.00581878662109375	2535.32775359891
0.27435302734375	-0.00583709716796875	2535.41625459869
0.269927978515625	-0.00585418701171875	2535.50475559847
0.2655029296875	-0.005872802734375	2535.59325659824
0.261077880859375	-0.0058905029296875	2535.68175759802
0.25665283203125	-0.00590911865234375	2535.7702585978
0.252227783203125	-0.005927734375	2535.85875959757
0.247802734375	-0.005947265625	2535.94726059735
0.243377685546875	-0.0059649658203125	2536.03576159713
0.23895263671875	-0.00598358154296875	2536.1242625969
0.234527587890625	-0.0060028076171875	2536.21276359668
0.2301025390625	-0.005999755859375	2536.30126459645
0.225677490234375	-0.0060211181640625	2536.38976559623
0.22125244140625	-0.0060394287109375	2536.47826659601
0.216827392578125	-0.006060791015625	2536.56676759578
0.21240234375	-0.0060821533203125	2536.65526859556
0.207977294921875	-0.0061004638671875	2536.74376959534
0.20355224609375	-0.006121826171875	2536.83227059511
0.199127197265625	-0.0061431884765625	2536.92077159489
0.1947021484375	-0.00616455078125	2537.00927259467
0.190277099609375	-0.006182861328125	2537.09777359444
0.18585205078125	-0.0062042236328125	2537.18627459422
0.181427001953125	-0.0062255859375	2537.274775594
0.177001953125	-0.0062469482421875	2537.36327659377
0.172576904296875	-0.0062713623046875	2537.45177759355
0.16815185546875	-0.006292724609375	2537.54027859333
0.163726806640625	-0.0063140869140625	2537.6287795931
0.1593017578125	-0.0063385009765625	2537.71728059288
0.154876708984375	-0.00635986328125	2537.80578159266
0.15045166015625	-0.00638427734375	2537.89428259243
0.146026611328125	-0.00640869140625	2537.98278359221
0.1416015625	-0.00643310546875	2538.07128459199
0.137176513671875	-0.00645751953125	2538.15978559176
0.13275146484375	-0.0064849853515625	2538.24828659154
0.128326416015625	-0.0065093994140625	2538.33678759132
0.1239013671875	-0.0065338134765625	2538.42528859109
0.119476318359375	-0.006561279296875	2538.51378959087
0.11505126953125	-0.006585693359375	2538.60229059065
0.110626220703125	-0.0066131591796875	2538.69079159042
0.106201171875	-0.006640625	2538.7792925902
0.101776123046875	-0.006671142578125	2538.86779358998
0.09735107421875	-0.0066986083984375	2538.95629458975
0.092926025390625	-0.0067291259765625	2539.04479558953
0.0885009765625	-0.006756591796875	2539.1332965893
0.084075927734375	-0.006787109375	2539.22179758908
0.07965087890625	-0.006817626953125	2539.31029858886
0.075225830078125	-0.00684814453125	2539.39879958863
0.07080078125	-0.0068817138671875	2539.48730058841
0.066375732421875	-0.0069122314453125	2539.57580158819
0.06195068359375	-0.0069427490234375	2539.66430258796
0.057525634765625	-0.006976318359375	2539.75280358774
0.0531005859375	-0.0070098876953125	2539.84130458752
0.048675537109375	-0.00704345703125	2539.92980558729
0.04425048828125	-0.0070770263671875	2540.01830658707
0.039825439453125	-0.007110595703125	2540.10680758685
0.035400390625	-0.007147216796875	2540.19530858662
0.030975341796875	-0.007183837890625	2540.2838095864
0.02655029296875	-0.007220458984375	2540.37231058618
0.022125244140625	-0.007257080078125	2540.46081158595
0.0177001953125	-0.0072967529296875	2540.54931258573
0.013275146484375	-0.0073333740234375	2540.63781358551
0.00885009765625	-0.007373046875	2540.72631458528
0.004425048828125	-0.0074127197265625	2540.81481558506
0	-0.007452392578125	2540.90331658484
0.004425048828125	-0.00675048828125	2540.99181758461
0.00885009765625	-0.00609130859375	2541.08031858439
0.013275146484375	-0.0054718017578125	2541.16881958417
0.0177001953125	-0.00489105224609375	2541.25732058394
0.022125244140625	-0.00433746337890625	2541.34582158372
0.02655029296875	-0.003812255859375	2541.4343225835
0.030975341796875	-0.00331390380859375	2541.52282358327
0.035400390625	-0.00284027099609375	2541.61132458305
0.039825439453125	-0.00239898681640625	2541.69982558282
0.04425048828125	-0.00196868896484375	2541.7883265826
0.048675537109375	-0.0015582275390625	2541.87682758238
0.0531005859375	-0.00116729736328125	2541.96532858215
0.057525634765625	-0.0007940673828125	2542.05382958193
0.06195068359375	-0.000438446044921875	2542.14233058171
0.066375732421875	-9.869384765625E-05	2542.23083158148
0.07080078125	0.0002257080078125	2542.31933258126
0.075225830078125	0.00053558349609375	2542.40783358104
0.07965087890625	0.00083099365234375	2542.49633458081
0.084075927734375	0.00111328125	2542.58483558059
0.0885009765625	0.00138336181640625	2542.67333658037
0.092926025390625	0.0016412353515625	2542.76183758014
0.09735107421875	0.00188812255859375	2542.85033857992
0.101776123046875	0.002122802734375	2542.9388395797
0.106201171875	0.00234649658203125	2543.02734057947
0.110626220703125	0.00255950927734375	2543.11584157925
0.11505126953125	0.0027630615234375	2543.20434257903
0.119476318359375	0.00295562744140625	2543.2928435788
0.1239013671875	0.00313995361328125	2543.38134457858
0.128326416015625	0.00331573486328125	2543.46984557836
0.13275146484375	0.0034832763671875	2543.55834657813
0.137176513671875	0.003641357421875	2543.64684757791
0.1416015625	0.003792724609375	2543.73534857769
0.146026611328125	0.0039361572265625	2543.82384957746
0.15045166015625	0.00407257080078125	2543.91235057724
0.154876708984375	0.004202880859375	2544.00085157702
0.1593017578125	0.00432464599609375	2544.08935257679
0.163726806640625	0.00444000244140625	2544.17785357657
0.16815185546875	0.00454986572265625	2544.26635457634
0.172576904296875	0.00465301513671875	2544.35485557612
0.177001953125	0.00475067138671875	2544.4433565759
0.181427001953125	0.004842529296875	2544.53185757567
0.18585205078125	0.00492889404296875	2544.62035857545
0.190277099609375	0.005009765625	2544.70885957523
0.1947021484375	0.00508514404296875	2544.797360575
0.199127197265625	0.00515625	2544.88586157478
0.20355224609375	0.00522369384765625	2544.97436257456
0.207977294921875	0.00528564453125	2545.06286357433
0.21240234375	0.00534210205078125	2545.15136457411
0.216827392578125	0.00539642333984375	2545.23986557389
0.22125244140625	0.0054461669921875	2545.32836657366
0.225677490234375	0.0054913330078125	2545.41686757344
0.2301025390625	0.00553466796875	2545.50536857322
0.234527587890625	0.005572509765625	2545.59386957299
0.23895263671875	0.0056097412109375	2545.68237057277
0.243377685546875	0.00564422607421875	2545.77087157255
0.247802734375	0.005675048828125	2545.85937257232
0.252227783203125	0.00570281982421875	2545.9478735721
0.25665283203125	0.0057275390625	2546.03637457188
0.261077880859375	0.0057501220703125	2546.12487557165
0.2655029296875	0.00576904296875	2546.21337657143
0.269927978515625	0.00578643798828125	2546.30187757121
0.27435302734375	0.00580047607421875	2546.39037857098
0.278778076171875	0.00581329345703125	2546.47887957076
0.283203125	0.0058245849609375	2546.56738057054
0.287628173828125	0.00583526611328125	2546.65588157031
0.29205322265625	0.0058416748046875	2546.74438257009
0.296478271484375	0.00584808349609375	2546.83288356986
0.3009033203125	0.00585235595703125	2546.92138456964
0.305328369140625	0.00585540771484375	2547.00988556942
0.30975341796875	0.00585723876953125	2547.09838656919
0.314178466796875	0.00586212158203125	2547.18688756897
0.318603515625	0.00586151123046875	2547.27538856875
0.323028564453125	0.005859375	2547.36388956852
0.32745361328125	0.00585693359375	2547.4523905683
0.331878662109375	0.00585357666015625	2547.54089156808
0.3363037109375	0.005849609375	2547.62939256785
0.340728759765625	0.00584503173828125	2547.71789356763
0.34515380859375	0.0058380126953125	2547.80639456741
0.349578857421875	0.00583099365234375	2547.89489556718
0.35400390625	0.00582244873046875	2547.98339656696
0.358428955078125	0.0058154296875	2548.07189756674
0.36285400390625	0.00580902099609375	2548.16039856651
0.367279052734375	0.0058001708984375	2548.24889956629
0.3717041015625	0.0057916259765625	2548.33740056607
0.376129150390625	0.0057830810546875	2548.42590156584
0.38055419921875	0.00577362060546875	2548.51440256562
0.384979248046875	0.00576385498046875	2548.6029035654
0.389404296875	0.0057537841796875	2548.69140456517
0.393829345703125	0.00574249267578125	2548.77990556495
0.39825439453125	0.00573150634765625	2548.86840656473
0.402679443359375	0.00572021484375	2548.9569075645
0.4071044921875	0.00571014404296875	2549.04540856428
0.411529541015625	0.00569976806640625	2549.13390956406
0.41595458984375	0.00568878173828125	2549.22241056383
0.420379638671875	0.0056781005859375	2549.31091156361
0.4248046875	0.0056671142578125	2549.39941256339
0.429229736328125	0.00565521240234375	2549.48791356316
0.43365478515625	0.00564422607421875	2549.57641456294
0.438079833984375	0.00563323974609375	2549.66491556271
0.4425048828125	0.00562255859375	2549.75341656249
0.446929931640625	0.00561126708984375	2549.84191756227
0.45135498046875	0.00560089111328125	2549.93041856204
0.455780029296875	0.00559051513671875	2550.01891956182
0.460205078125	0.00557891845703125	2550.1074205616
0.464630126953125	0.005567626953125	2550.19592156137
0.46905517578125	0.0055560302734375	2550.28442256115
0.473480224609375	0.00554443359375	2550.37292356093
0.4779052734375	0.00553253173828125	2550.4614245607
0.482330322265625	0.00552154541015625	2550.54992556048
0.48675537109375	0.0055108642578125	2550.63842656026
0.491180419921875	0.00549957275390625	2550.72692756003
0.49560546875	0.00548858642578125	2550.81542855981
0.500030517578125	0.0054779052734375	2550.90392955959
0.50445556640625	0.00546722412109375	2550.99243055936
0.508880615234375	0.0054559326171875	2551.08093155914
0.5133056640625	0.0054461669921875	2551.16943255892
0.517730712890625	0.00543609619140625	2551.25793355869
0.52215576171875	0.0054254150390625	2551.34643455847
0.526580810546875	0.0054144287109375	2551.43493555825
0.531005859375	0.005404052734375	2551.52343655802
0.535430908203125	0.005394287109375	2551.6119375578
0.53985595703125	0.0053839111328125	2551.70043855758
0.544281005859375	0.0053729248046875	2551.78893955735
0.5487060546875	0.00536407470703125	2551.87744055713
0.553131103515625	0.00535369873046875	2551.96594155691
0.55755615234375	0.0053436279296875	2552.05444255668
0.561981201171875	0.00533477783203125	2552.14294355646
0.56640625	0.0053253173828125	2552.23144455624
0.570831298828125	0.00531646728515625	2552.31994555601
0.57525634765625	0.00530731201171875	2552.40844655579
0.579681396484375	0.0052978515625	2552.49694755556
0.5841064453125	0.00528900146484375	2552.58544855534
0.588531494140625	0.0052783203125	2552.67394955512
0.59295654296875	0.0052703857421875	2552.76245055489
0.597381591796875	0.00526153564453125	2552.85095155467
0.601806640625	0.0052545166015625	2552.93945255445
0.606231689453125	0.00524658203125	2553.02795355422
0.61065673828125	0.005238037109375	2553.116454554
0.615081787109375	0.0052301025390625	2553.20495555378
0.6195068359375	0.005223388671875	2553.29345655355
0.623931884765625	0.00521484375	2553.38195755333
0.62835693359375	0.00521240234375	2553.47045855311
0.632781982421875	0.0052044677734375	2553.55895955288
0.63720703125	0.00519683837890625	2553.64746055266
0.641632080078125	0.00519073486328125	2553.73596155244
0.64605712890625	0.0051837158203125	2553.82446255221
0.650482177734375	0.00517730712890625	2553.91296355199
0.6549072265625	0.0051708984375	2554.00146455177
0.659332275390625	0.00516571044921875	2554.08996555154
0.66375732421875	0.0051605224609375	2554.17846655132
0.668182373046875	0.00515594482421875	2554.2669675511
0.672607421875	0.0051507568359375	2554.35546855087
0.677032470703125	0.0051470947265625	2554.44396955065
0.68145751953125	0.0051422119140625	2554.53247055043
0.685882568359375	0.00513946533203125	2554.6209715502
0.6903076171875	0.00513580322265625	2554.70947254998
0.694732666015625	0.00513336181640625	2554.79797354976
0.69915771484375	0.00512969970703125	2554.88647454953
0.703582763671875	0.005126953125	2554.97497554931
0.7080078125	0.00512481689453125	2555.06347654908
0.712432861328125	0.00512298583984375	2555.15197754886
0.71685791015625	0.0051226806640625	2555.24047854864
0.721282958984375	0.00512237548828125	2555.32897954841
0.7257080078125	0.0051220703125	2555.41748054819
0.730133056640625	0.0051226806640625	2555.50598154797
0.73455810546875	0.00512359619140625	2555.59448254774
0.738983154296875	0.005125732421875	2555.68298354752
0.743408203125	0.00512451171875	2555.7714845473
0.747833251953125	0.00512664794921875	2555.85998554707
0.75225830078125	0.00512969970703125	2555.94848654685
0.756683349609375	0.00513275146484375	2556.03698754663
0.7611083984375	0.00513641357421875	2556.1254885464
0.765533447265625	0.005140380859375	2556.21398954618
0.76995849609375	0.0051446533203125	2556.30249054596
0.774383544921875	0.00514984130859375	2556.39099154573
0.77880859375	0.00515625	2556.47949254551
0.783233642578125	0.0051617431640625	2556.56799354529
0.78765869140625	0.0051678466796875	2556.65649454506
0.792083740234375	0.00517486572265625	2556.74499554484
0.7965087890625	0.00518310546875	2556.83349654462
0.800933837890625	0.005191650390625	2556.92199754439
0.80535888671875	0.0052020263671875	2557.01049854417
0.809783935546875	0.00521148681640625	2557.09899954395
0.814208984375	0.00522125244140625	2557.18750054372
0.818634033203125	0.0052337646484375	2557.2760015435
0.82305908203125	0.005244140625	2557.36450254328
0.827484130859375	0.0052569580078125	2557.45300354305
0.8319091796875	0.00527008056640625	2557.54150454283
0.836334228515625	0.00528411865234375	2557.6300055426
0.84075927734375	0.005299072265625	2557.71850654238
0.845184326171875	0.0053143310546875	2557.80700754216
0.849609375	0.005330810546875	2557.89550854193
0.854034423828125	0.00534759521484375	2557.98400954171
0.85845947265625	0.0053668212890625	2558.07251054149
0.862884521484375	0.00538360595703125	2558.16101154126
0.8673095703125	0.005404052734375	2558.24951254104
0.871734619140625	0.00542449951171875	2558.33801354082
0.87615966796875	0.00544647216796875	2558.42651454059
0.880584716796875	0.00546966552734375	2558.51501554037
0.885009765625	0.00549285888671875	2558.60351654015
0.889434814453125	0.005518798828125	2558.69201753992
0.89385986328125	0.005545654296875	2558.7805185397
0.898284912109375	0.00557220458984375	2558.86901953948
0.9027099609375	0.00560089111328125	2558.95752053925
0.907135009765625	0.005631103515625	2559.04602153903
0.91156005859375	0.00566162109375	2559.13452253881
0.915985107421875	0.0056939697265625	2559.22302353858
0.92041015625	0.0057275390625	2559.31152453836
0.924835205078125	0.005762939453125	2559.40002553814
0.92926025390625	0.00579864501953125	2559.48852653791
0.933685302734375	0.0058349609375	2559.57702753769
0.9381103515625	0.00587646484375	2559.66552853747
0.942535400390625	0.00591644287109375	2559.75402953724
0.94696044921875	0.00595733642578125	2559.84253053702
0.951385498046875	0.00599945068359375	2559.9310315368
0.955810546875	0.00604339599609375	2560.01953253657
0.960235595703125	0.0060821533203125	2560.10803353635
0.96466064453125	0.0061279296875	2560.19653453613
0.969085693359375	0.0061737060546875	2560.2850355359
0.9735107421875	0.0062225341796875	2560.37353653568
0.977935791015625	0.0062713623046875	2560.46203753545
0.98236083984375	0.0063201904296875	2560.55053853523
0.986785888671875	0.0063751220703125	2560.63903953501
0.9912109375	0.0064300537109375	2560.72754053478
0.995635986328125	0.006488037109375	2560.81604153456
1.00006103515625	0.006549072265625	2560.90454253434
0.995635986328125	0.0058807373046875	2560.99304353411
0.9912109375	0.0052703857421875	2561.08154453389
0.986785888671875	0.004705810546875	2561.17004553367
0.98236083984375	0.00418121337890625	2561.25854653344
0.977935791015625	0.0036907958984375	2561.34704753322
0.9735107421875	0.00323333740234375	2561.435548533
0.969085693359375	0.00280120849609375	2561.52404953277
0.96466064453125	0.0023956298828125	2561.61255053255
0.960235595703125	0.00201080322265625	2561.70105153233
0.955810546875	0.00164703369140625	2561.7895525321
0.951385498046875	0.00130279541015625	2561.87805353188
0.94696044921875	0.0009765625	2561.96655453166
0.942535400390625	0.000667724609375	2562.05505553143
0.9381103515625	0.000375213623046875	2562.14355653121
0.933685302734375	9.50927734375E-05	2562.23205753099
0.92926025390625	-0.000168243408203125	2562.32055853076
0.924835205078125	-0.000417449951171875	2562.40905953054
0.92041015625	-0.00065460205078125	2562.49756053032
0.915985107421875	-0.00087860107421875	2562.58606153009
0.91156005859375	-0.0010919189453125	2562.67456252987
0.907135009765625	-0.0012933349609375	2562.76306352965
0.9027099609375	-0.001484375	2562.85156452942
0.898284912109375	-0.0016644287109375	2562.9400655292
0.89385986328125	-0.0018359375	2563.02856652897
0.889434814453125	-0.00199737548828125	2563.11706752875
0.885009765625	-0.0021502685546875	2563.20556852853
0.880584716796875	-0.002294921875	2563.2940695283
0.87615966796875	-0.00243072509765625	2563.38257052808
0.871734619140625	-0.00255950927734375	2563.47107152786
0.8673095703125	-0.00268096923828125	2563.55957252763
0.862884521484375	-0.00279541015625	2563.64807352741
0.85845947265625	-0.002901611328125	2563.73657452719
0.854034423828125	-0.0030029296875	2563.82507552696
0.849609375	-0.00309783935546875	2563.91357652674
0.845184326171875	-0.003187255859375	2564.00207752652
0.84075927734375	-0.003271484375	2564.09057852629
0.836334228515625	-0.00335052490234375	2564.17907952607
0.8319091796875	-0.0034246826171875	2564.26758052585
0.827484130859375	-0.003494873046875	2564.35608152562
0.82305908203125	-0.00355987548828125	2564.4445825254
0.818634033203125	-0.00362030029296875	2564.53308352518
0.814208984375	-0.003677978515625	2564.62158452495
0.809783935546875	-0.00373199462890625	2564.71008552473
0.80535888671875	-0.003782958984375	2564.79858652451
0.800933837890625	-0.0038311767578125	2564.88708752428
0.7965087890625	-0.00387542724609375	2564.97558852406
0.792083740234375	-0.00391754150390625	2565.06408952384
0.78765869140625	-0.0039569091796875	2565.15259052361
0.783233642578125	-0.0039947509765625	2565.24109152339
0.77880859375	-0.00402984619140625	2565.32959252317
0.774383544921875	-0.00406341552734375	2565.41809352294
0.76995849609375	-0.00409454345703125	2565.50659452272
0.765533447265625	-0.004124755859375	2565.5950955225
0.7611083984375	-0.00415252685546875	2565.68359652227
0.756683349609375	-0.0041796875	2565.77209752205
0.75225830078125	-0.00420440673828125	2565.86059852182
0.747833251953125	-0.00422821044921875	2565.9490995216
0.743408203125	-0.00425140380859375	2566.03760052138
0.738983154296875	-0.00427093505859375	2566.12610152115
0.73455810546875	-0.0042926025390625	2566.21460252093
0.730133056640625	-0.00431121826171875	2566.30310352071
0.7257080078125	-0.0043316650390625	2566.39160452048
0.721282958984375	-0.00434967041015625	2566.48010552026
0.71685791015625	-0.00436767578125	2566.56860652004
0.712432861328125	-0.00438507080078125	2566.65710751981
0.7080078125	-0.00440155029296875	2566.74560851959
0.703582763671875	-0.00441802978515625	2566.83410951937
0.69915771484375	-0.0044329833984375	2566.92261051914
0.694732666015625	-0.00444793701171875	2567.01111151892
0.6903076171875	-0.00446197509765625	2567.0996125187
0.685882568359375	-0.0044769287109375	2567.18811351847
0.68145751953125	-0.004490966796875	2567.27661451825
0.677032470703125	-0.00450469970703125	2567.36511551803
0.672607421875	-0.00451873779296875	2567.4536165178
0.668182373046875	-0.00453155517578125	2567.54211751758
0.66375732421875	-0.00454345703125	2567.63061851736
0.659332275390625	-0.00455657958984375	2567.71911951713
0.6549072265625	-0.00456939697265625	2567.80762051691
0.650482177734375	-0.0045819091796875	2567.89612151669
0.64605712890625	-0.00459381103515625	2567.98462251646
0.641632080078125	-0.0046063232421875	2568.07312351624
0.63720703125	-0.00461822509765625	2568.16162451602
0.632781982421875	-0.00463104248046875	2568.25012551579
0.62835693359375	-0.004642333984375	2568.33862651557
0.623931884765625	-0.00465728759765625	2568.42712751535
0.6195068359375	-0.0046697998046875	2568.51562851512
0.615081787109375	-0.00468017578125	2568.6041295149
0.61065673828125	-0.0046917724609375	2568.69263051467
0.606231689453125	-0.00470367431640625	2568.78113151445
0.601806640625	-0.004715576171875	2568.86963251423
0.597381591796875	-0.0047271728515625	2568.958133514
0.59295654296875	-0.00473907470703125	2569.04663451378
0.588531494140625	-0.00475006103515625	2569.13513551356
0.5841064453125	-0.00475921630859375	2569.22363651333
0.579681396484375	-0.004771728515625	2569.31213751311
0.57525634765625	-0.00478240966796875	2569.40063851289
0.570831298828125	-0.0047943115234375	2569.48913951266
0.56640625	-0.004805908203125	2569.57764051244
0.561981201171875	-0.0048175048828125	2569.66614151222
0.55755615234375	-0.00483001708984375	2569.75464251199
0.553131103515625	-0.00484130859375	2569.84314351177
0.5487060546875	-0.00485382080078125	2569.93164451155
0.544281005859375	-0.0048651123046875	2570.02014551132
0.53985595703125	-0.00487701416015625	2570.1086465111
0.535430908203125	-0.004888916015625	2570.19714751088
0.531005859375	-0.00490264892578125	2570.28564851065
0.526580810546875	-0.00491485595703125	2570.37414951043
0.52215576171875	-0.0049267578125	2570.46265051021
0.517730712890625	-0.0049395751953125	2570.55115150998
0.5133056640625	-0.00495269775390625	2570.63965250976
0.508880615234375	-0.00496551513671875	2570.72815350954
0.50445556640625	-0.00497772216796875	2570.81665450931
0.500030517578125	-0.00499114990234375	2570.90515550909
0.49560546875	-0.0050042724609375	2570.99365650887
0.491180419921875	-0.00501800537109375	2571.08215750864
0.48675537109375	-0.0050323486328125	2571.17065850842
0.482330322265625	-0.00504547119140625	2571.25915950819
0.4779052734375	-0.00506011962890625	2571.34766050797
0.473480224609375	-0.00507354736328125	2571.43616150775
0.46905517578125	-0.00508819580078125	2571.52466250752
0.464630126953125	-0.00510162353515625	2571.6131635073
0.460205078125	-0.00511688232421875	2571.70166450708
0.455780029296875	-0.0051318359375	2571.79016550685
0.45135498046875	-0.00514617919921875	2571.87866650663
0.446929931640625	-0.0051617431640625	2571.96716750641
0.4425048828125	-0.00517730712890625	2572.05566850618
0.438079833984375	-0.0051922607421875	2572.14416950596
0.43365478515625	-0.00520782470703125	2572.23267050574
0.429229736328125	-0.005223388671875	2572.32117150551
0.4248046875	-0.00524017333984375	2572.40967250529
0.420379638671875	-0.00525482177734375	2572.49817350507
0.41595458984375	-0.0052703857421875	2572.58667450484
0.411529541015625	-0.005286865234375	2572.67517550462
0.4071044921875	-0.00530426025390625	2572.7636765044
0.402679443359375	-0.00532012939453125	2572.85217750417
0.39825439453125	-0.00533660888671875	2572.94067850395
0.393829345703125	-0.00535400390625	2573.02917950373
0.389404296875	-0.005369873046875	2573.1176805035
0.384979248046875	-0.0053857421875	2573.20618150328
0.38055419921875	-0.00540283203125	2573.29468250306
0.376129150390625	-0.005419921875	2573.38318350283
0.3717041015625	-0.00543609619140625	2573.47168450261
0.367279052734375	-0.00545257568359375	2573.56018550239
0.36285400390625	-0.005469970703125	2573.64868650216
0.358428955078125	-0.0054864501953125	2573.73718750194
0.35400390625	-0.005504150390625	2573.82568850171
0.349578857421875	-0.00552001953125	2573.91418950149
0.34515380859375	-0.005537109375	2574.00269050127
0.340728759765625	-0.00555328369140625	2574.09119150104
0.3363037109375	-0.00557098388671875	2574.17969250082
0.331878662109375	-0.0055877685546875	2574.2681935006
0.32745361328125	-0.0056060791015625	2574.35669450037
0.323028564453125	-0.005623779296875	2574.44519550015
0.318603515625	-0.0056414794921875	2574.53369649993
0.314178466796875	-0.0056585693359375	2574.6221974997
0.30975341796875	-0.0056781005859375	2574.71069849948
0.305328369140625	-0.00569580078125	2574.79919949926
0.3009033203125	-0.005712890625	2574.88770049903
0.296478271484375	-0.00573028564453125	2574.97620149881
0.29205322265625	-0.0057470703125	2575.06470249859
0.287628173828125	-0.00576507568359375	2575.15320349836
0.283203125	-0.00578338623046875	2575.24170449814
0.278778076171875	-0.00580169677734375	2575.33020549792
0.27435302734375	-0.00581878662109375	2575.41870649769
0.269927978515625	-0.005836181640625	2575.50720749747
0.2655029296875	-0.0058544921875	2575.59570849725
0.261077880859375	-0.0058734130859375	2575.68420949702
0.25665283203125	-0.0058917236328125	2575.7727104968
0.252227783203125	-0.00590911865234375	2575.86121149658
0.247802734375	-0.00592803955078125	2575.94971249635
0.243377685546875	-0.00594696044921875	2576.03821349613
0.23895263671875	-0.00596649169921875	2576.12671449591
0.234527587890625	-0.0059844970703125	2576.21521549568
0.2301025390625	-0.0060028076171875	2576.30371649546
0.225677490234375	-0.0060028076171875	2576.39221749523
0.22125244140625	-0.0060211181640625	2576.48071849501
0.216827392578125	-0.00604248046875	2576.56921949479
0.21240234375	-0.006060791015625	2576.65772049456
0.207977294921875	-0.0060821533203125	2576.74622149434
0.20355224609375	-0.006103515625	2576.83472249412
0.199127197265625	-0.0061248779296875	2576.92322349389
0.1947021484375	-0.0061431884765625	2577.01172449367
0.190277099609375	-0.00616455078125	2577.10022549345
0.18585205078125	-0.00618896484375	2577.18872649322
0.181427001953125	-0.0062103271484375	2577.277227493
0.177001953125	-0.0062286376953125	2577.36572849278
0.172576904296875	-0.0062530517578125	2577.45422949255
0.16815185546875	-0.0062744140625	2577.54273049233
0.163726806640625	-0.0062957763671875	2577.63123149211
0.1593017578125	-0.006317138671875	2577.71973249188
0.154876708984375	-0.006341552734375	2577.80823349166
0.15045166015625	-0.006365966796875	2577.89673449144
0.146026611328125	-0.006390380859375	2577.98523549121
0.1416015625	-0.006414794921875	2578.07373649099
0.137176513671875	-0.006439208984375	2578.16223749077
0.13275146484375	-0.006463623046875	2578.25073849054
0.128326416015625	-0.0064910888671875	2578.33923949032
0.1239013671875	-0.0065155029296875	2578.4277404901
0.119476318359375	-0.00654296875	2578.51624148987
0.11505126953125	-0.0065643310546875	2578.60474248965
0.110626220703125	-0.006591796875	2578.69324348943
0.106201171875	-0.006622314453125	2578.7817444892
0.101776123046875	-0.0066497802734375	2578.87024548898
0.09735107421875	-0.00667724609375	2578.95874648875
0.092926025390625	-0.0067047119140625	2579.04724748853
0.0885009765625	-0.00673828125	2579.13574848831
0.084075927734375	-0.0067657470703125	2579.22424948808
0.07965087890625	-0.0067962646484375	2579.31275048786
0.075225830078125	-0.0068267822265625	2579.40125148764
0.07080078125	-0.0068572998046875	2579.48975248741
0.066375732421875	-0.006890869140625	2579.57825348719
0.06195068359375	-0.0069244384765625	2579.66675448697
0.057525634765625	-0.0069549560546875	2579.75525548674
0.0531005859375	-0.006988525390625	2579.84375648652
0.048675537109375	-0.0070220947265625	2579.9322574863
0.04425048828125	-0.0070556640625	2580.02075848607
0.039825439453125	-0.0070892333984375	2580.10925948585
0.035400390625	-0.0071258544921875	2580.19776048563
0.030975341796875	-0.0071624755859375	2580.2862614854
0.02655029296875	-0.0071990966796875	2580.37476248518
0.022125244140625	-0.0072357177734375	2580.46326348496
0.0177001953125	-0.0072723388671875	2580.55176448473
0.013275146484375	-0.00731201171875	2580.64026548451
0.00885009765625	-0.0073516845703125	2580.72876648429
0.004425048828125	-0.007391357421875	2580.81726748406
0	-0.0074310302734375	2580.90576848384
0.004425048828125	-0.00672607421875	2580.99426948362
0.00885009765625	-0.0060699462890625	2581.08277048339
0.013275146484375	-0.005450439453125	2581.17127148317
0.0177001953125	-0.00486724853515625	2581.25977248295
0.022125244140625	-0.00431365966796875	2581.34827348272
0.02655029296875	-0.00378936767578125	2581.4367744825
0.030975341796875	-0.0032916259765625	2581.52527548227
0.035400390625	-0.0028173828125	2581.61377648205
0.039825439453125	-0.0023773193359375	2581.70227748183
0.04425048828125	-0.00194671630859375	2581.7907784816
0.048675537109375	-0.00153594970703125	2581.87927948138
0.0531005859375	-0.00114501953125	2581.96778048116
0.057525634765625	-0.00077239990234375	2582.05628148093
0.06195068359375	-0.000416015625	2582.14478248071
0.066375732421875	-7.6416015625E-05	2582.23328348049
0.07080078125	0.000247528076171875	2582.32178448026
0.075225830078125	0.0005572509765625	2582.41028548004
0.07965087890625	0.00085205078125	2582.49878647982
0.084075927734375	0.0011346435546875	2582.58728747959
0.0885009765625	0.00140380859375	2582.67578847937
0.092926025390625	0.00166168212890625	2582.76428947915
0.09735107421875	0.00190826416015625	2582.85279047892
0.101776123046875	0.0021429443359375	2582.9412914787
0.106201171875	0.00236602783203125	2583.02979247848
0.110626220703125	0.002579345703125	2583.11829347825
0.11505126953125	0.002781982421875	2583.20679447803
0.119476318359375	0.0029736328125	2583.29529547781
0.1239013671875	0.003157958984375	2583.38379647758
0.128326416015625	0.00333343505859375	2583.47229747736
0.13275146484375	0.003499755859375	2583.56079847714
0.137176513671875	0.003658447265625	2583.64929947691
0.1416015625	0.0038092041015625	2583.73780047669
0.146026611328125	0.00395172119140625	2583.82630147647
0.15045166015625	0.0040875244140625	2583.91480247624
0.154876708984375	0.00421722412109375	2584.00330347602
0.1593017578125	0.00433868408203125	2584.0918044758
0.163726806640625	0.00445404052734375	2584.18030547557
0.16815185546875	0.0045623779296875	2584.26880647535
0.172576904296875	0.00466552734375	2584.35730747512
0.177001953125	0.0047625732421875	2584.4458084749
0.181427001953125	0.0048541259765625	2584.53430947468
0.18585205078125	0.00494049072265625	2584.62281047445
0.190277099609375	0.005020751953125	2584.71131147423
0.1947021484375	0.0050958251953125	2584.79981247401
0.199127197265625	0.005166015625	2584.88831347378
0.20355224609375	0.00523223876953125	2584.97681447356
0.207977294921875	0.005294189453125	2585.06531547334
0.21240234375	0.0053509521484375	2585.15381647311
0.216827392578125	0.00540435791015625	2585.24231747289
0.22125244140625	0.00545379638671875	2585.33081847267
0.225677490234375	0.0054998779296875	2585.41931947244
0.2301025390625	0.00554168701171875	2585.50782047222
0.234527587890625	0.00557891845703125	2585.596321472
0.23895263671875	0.005615234375	2585.68482247177
0.243377685546875	0.00564971923828125	2585.77332347155
0.247802734375	0.005679931640625	2585.86182447133
0.252227783203125	0.005706787109375	2585.9503254711
0.25665283203125	0.0057305908203125	2586.03882647088
0.261077880859375	0.00575347900390625	2586.12732747066
0.2655029296875	0.0057720947265625	2586.21582847043
0.269927978515625	0.00578948974609375	2586.30432947021
0.27435302734375	0.0058026123046875	2586.39283046999
0.278778076171875	0.0058148193359375	2586.48133146976
0.283203125	0.00582672119140625	2586.56983246954
0.287628173828125	0.0058355712890625	2586.65833346932
0.29205322265625	0.00584228515625	2586.74683446909
0.296478271484375	0.00584747314453125	2586.83533546887
0.3009033203125	0.00585113525390625	2586.92383646865
0.305328369140625	0.0058538818359375	2587.01233746842
0.30975341796875	0.0058563232421875	2587.1008384682
0.314178466796875	0.0058599853515625	2587.18933946797
0.318603515625	0.00585906982421875	2587.27784046775
0.323028564453125	0.00585723876953125	2587.36634146753
0.32745361328125	0.0058538818359375	2587.4548424673
0.331878662109375	0.0058502197265625	2587.54334346708
0.3363037109375	0.00584564208984375	2587.63184446686
0.340728759765625	0.00584136962890625	2587.72034546663
0.34515380859375	0.0058343505859375	2587.80884646641
0.349578857421875	0.0058282470703125	2587.89734746619
0.35400390625	0.00582000732421875	2587.98584846596
0.358428955078125	0.00581268310546875	2588.07434946574
0.36285400390625	0.0058038330078125	2588.16285046552
0.367279052734375	0.00579559326171875	2588.25135146529
0.3717041015625	0.0057861328125	2588.33985246507
0.376129150390625	0.00577667236328125	2588.42835346485
0.38055419921875	0.00576812744140625	2588.51685446462
0.384979248046875	0.0057574462890625	2588.6053554644
0.389404296875	0.0057476806640625	2588.69385646418
0.393829345703125	0.00573577880859375	2588.78235746395
0.39825439453125	0.0057257080078125	2588.87085846373
0.402679443359375	0.00571502685546875	2588.95935946351
0.4071044921875	0.00570404052734375	2589.04786046328
0.411529541015625	0.00569305419921875	2589.13636146306
0.41595458984375	0.00568206787109375	2589.22486246284
0.420379638671875	0.00567047119140625	2589.31336346261
0.4248046875	0.0056591796875	2589.40186446239
0.429229736328125	0.00564727783203125	2589.49036546217
0.43365478515625	0.00563690185546875	2589.57886646194
0.438079833984375	0.00562469482421875	2589.66736746172
0.4425048828125	0.00561370849609375	2589.7558684615
0.446929931640625	0.00560302734375	2589.84436946127
0.45135498046875	0.00559173583984375	2589.93287046105
0.455780029296875	0.00558013916015625	2590.02137146082
0.460205078125	0.0055682373046875	2590.1098724606
0.464630126953125	0.005556640625	2590.19837346038
0.46905517578125	0.00554534912109375	2590.28687446015
0.473480224609375	0.00553314208984375	2590.37537545993
0.4779052734375	0.00552276611328125	2590.46387645971
0.482330322265625	0.00551055908203125	2590.55237745948
0.48675537109375	0.00550048828125	2590.64087845926
0.491180419921875	0.00548919677734375	2590.72937945904
0.49560546875	0.00547760009765625	2590.81788045881
0.500030517578125	0.00546722412109375	2590.90638145859
0.50445556640625	0.00545654296875	2590.99488245837
0.508880615234375	0.00544586181640625	2591.08338345814
0.5133056640625	0.00543487548828125	2591.17188445792
0.517730712890625	0.00542449951171875	2591.2603854577
0.52215576171875	0.005413818359375	2591.34888645747
0.526580810546875	0.00540283203125	2591.43738745725
0.531005859375	0.00539276123046875	2591.52588845703
0.535430908203125	0.00538330078125	2591.6143894568
0.53985595703125	0.00537261962890625	2591.70289045658
0.544281005859375	0.00536285400390625	2591.79139145636
0.5487060546875	0.0053521728515625	2591.87989245613
0.553131103515625	0.0053424072265625	2591.96839345591
0.55755615234375	0.0053326416015625	2592.05689445569
0.561981201171875	0.00532379150390625	2592.14539545546
0.56640625	0.0053131103515625	2592.23389645524
0.570831298828125	0.0053045654296875	2592.32239745502
0.57525634765625	0.00529541015625	2592.41089845479
0.579681396484375	0.00528594970703125	2592.49939945457
0.5841064453125	0.005277099609375	2592.58790045434
0.588531494140625	0.0052667236328125	2592.67640145412
0.59295654296875	0.0052587890625	2592.7649024539
0.597381591796875	0.0052496337890625	2592.85340345367
0.601806640625	0.00524139404296875	2592.94190445345
0.606231689453125	0.00523345947265625	2593.03040545323
0.61065673828125	0.0052252197265625	2593.118906453
0.615081787109375	0.00521759033203125	2593.20740745278
0.6195068359375	0.005208740234375	2593.29590845256
0.623931884765625	0.0052020263671875	2593.38440945233
0.62835693359375	0.0051983642578125	2593.47291045211
0.632781982421875	0.00519134521484375	2593.56141145189
0.63720703125	0.0051824951171875	2593.64991245166
0.641632080078125	0.0051763916015625	2593.73841345144
0.64605712890625	0.005169677734375	2593.82691445122
0.650482177734375	0.0051629638671875	2593.91541545099
0.6549072265625	0.00515716552734375	2594.00391645077
0.659332275390625	0.00515167236328125	2594.09241745055
0.66375732421875	0.00514739990234375	2594.18091845032
0.668182373046875	0.0051422119140625	2594.2694194501
0.672607421875	0.00513671875	2594.35792044988
0.677032470703125	0.00513214111328125	2594.44642144965
0.68145751953125	0.00512847900390625	2594.53492244943
0.685882568359375	0.00512451171875	2594.62342344921
0.6903076171875	0.005120849609375	2594.71192444898
0.694732666015625	0.0051177978515625	2594.80042544876
0.69915771484375	0.00511505126953125	2594.88892644854
0.703582763671875	0.00511199951171875	2594.97742744831
0.7080078125	0.00510955810546875	2595.06592844809
0.712432861328125	0.00510894775390625	2595.15442944786
0.71685791015625	0.0051068115234375	2595.24293044764
0.721282958984375	0.00510589599609375	2595.33143144742
0.7257080078125	0.00510528564453125	2595.41993244719
0.730133056640625	0.00510650634765625	2595.50843344697
0.73455810546875	0.00510650634765625	2595.59693444675
0.738983154296875	0.00510894775390625	2595.68543544652
0.743408203125	0.0051080322265625	2595.7739364463
0.747833251953125	0.00511077880859375	2595.86243744608
0.75225830078125	0.00511322021484375	2595.95093844585
0.756683349609375	0.005115966796875	2596.03943944563
0.7611083984375	0.00511962890625	2596.12794044541
0.765533447265625	0.00512298583984375	2596.21644144518
0.76995849609375	0.00512786865234375	2596.30494244496
0.774383544921875	0.00513275146484375	2596.39344344474
0.77880859375	0.00513885498046875	2596.48194444451
0.783233642578125	0.00514434814453125	2596.57044544429
0.78765869140625	0.0051507568359375	2596.65894644407
0.792083740234375	0.0051580810546875	2596.74744744384
0.7965087890625	0.00516571044921875	2596.83594844362
0.800933837890625	0.00517364501953125	2596.9244494434
0.80535888671875	0.00518218994140625	2597.01295044317
0.809783935546875	0.00519134521484375	2597.10145144295
0.814208984375	0.005201416015625	2597.18995244273
0.818634033203125	0.0052130126953125	2597.2784534425
0.82305908203125	0.0052239990234375	2597.36695444228
0.827484130859375	0.00523651123046875	2597.45545544206
0.8319091796875	0.00524932861328125	2597.54395644183
0.836334228515625	0.00526336669921875	2597.63245744161
0.84075927734375	0.00527740478515625	2597.72095844138
0.845184326171875	0.0052923583984375	2597.80945944116
0.849609375	0.005308837890625	2597.89796044094
0.854034423828125	0.00532623291015625	2597.98646144071
0.85845947265625	0.0053436279296875	2598.07496244049
0.862884521484375	0.005361328125	2598.16346344027
0.8673095703125	0.005380859375	2598.25196444004
0.871734619140625	0.0054010009765625	2598.34046543982
0.87615966796875	0.00542266845703125	2598.4289664396
0.880584716796875	0.00544647216796875	2598.51746743937
0.885009765625	0.005469970703125	2598.60596843915
0.889434814453125	0.00549468994140625	2598.69446943893
0.89385986328125	0.00552032470703125	2598.7829704387
0.898284912109375	0.005546875	2598.87147143848
0.9027099609375	0.00557525634765625	2598.95997243826
0.907135009765625	0.005604248046875	2599.04847343803
0.91156005859375	0.00563690185546875	2599.13697443781
0.915985107421875	0.00566864013671875	2599.22547543759
0.92041015625	0.00570159912109375	2599.31397643736
0.924835205078125	0.00573699951171875	2599.40247743714
0.92926025390625	0.00577239990234375	2599.49097843692
0.933685302734375	0.00580841064453125	2599.57947943669
0.9381103515625	0.005850830078125	2599.66798043647
0.942535400390625	0.00589019775390625	2599.75648143625
0.94696044921875	0.005931396484375	2599.84498243602
0.951385498046875	0.0059735107421875	2599.9334834358
0.955810546875	0.006016845703125	2600.02198443558
0.960235595703125	0.0060546875	2600.11048543535
0.96466064453125	0.0061004638671875	2600.19898643513
0.969085693359375	0.006146240234375	2600.28748743491
0.9735107421875	0.006195068359375	2600.37598843468
0.977935791015625	0.006243896484375	2600.46448943446
0.98236083984375	0.006292724609375	2600.55299043423
0.986785888671875	0.00634765625	2600.64149143401
0.9912109375	0.006402587890625	2600.72999243379
