Potential applied (V)	WE(1).Current (A)	Time (s)
0.004425048828125	-0.0509765625	1408.55381144374
0.00885009765625	-0.0362030029296875	1408.99631644263
0.013275146484375	-0.0267425537109375	1409.43882144151
0.0177001953125	-0.020257568359375	1409.88132644039
0.022125244140625	-0.01558837890625	1410.32383143927
0.02655029296875	-0.0121429443359375	1410.76633643816
0.030975341796875	-0.009527587890625	1411.20884143704
0.035400390625	-0.0075286865234375	1411.65134643592
0.039825439453125	-0.0059600830078125	1412.09385143481
0.04425048828125	-0.0047119140625	1412.53635643369
0.048675537109375	-0.0037127685546875	1412.97886143257
0.0531005859375	-0.0029046630859375	1413.42136643145
0.057525634765625	-0.00224761962890625	1413.86387143034
0.06195068359375	-0.0017083740234375	1414.30637642922
0.066375732421875	-0.00127166748046875	1414.7488814281
0.07080078125	-0.000904541015625	1415.19138642699
0.075225830078125	-0.00059844970703125	1415.63389142587
0.07965087890625	-0.000344207763671875	1416.07639642475
0.084075927734375	-0.000130340576171875	1416.51890142363
0.0885009765625	4.84619140625E-05	1416.96140642252
0.092926025390625	0.00019921875	1417.4039114214
0.09735107421875	0.000326019287109375	1417.84641642028
0.101776123046875	0.0004337158203125	1418.28892141916
0.106201171875	0.00052496337890625	1418.73142641805
0.110626220703125	0.000601318359375	1419.17393141693
0.11505126953125	0.00066650390625	1419.61643641581
0.119476318359375	0.0007208251953125	1420.0589414147
0.1239013671875	0.00076873779296875	1420.50144641358
0.128326416015625	0.0008087158203125	1420.94395141246
0.13275146484375	0.00084259033203125	1421.38645641134
0.137176513671875	0.0008721923828125	1421.82896141023
0.1416015625	0.0008978271484375	1422.27146640911
0.146026611328125	0.000919189453125	1422.71397140799
0.15045166015625	0.0009375	1423.15647640688
0.154876708984375	0.00095306396484375	1423.59898140576
0.1593017578125	0.00096588134765625	1424.04148640464
0.163726806640625	0.0009771728515625	1424.48399140352
0.16815185546875	0.000986328125	1424.92649640241
0.172576904296875	0.00099456787109375	1425.36900140129
0.177001953125	0.0010015869140625	1425.81150640017
0.181427001953125	0.0010076904296875	1426.25401139905
0.18585205078125	0.00101226806640625	1426.69651639794
0.190277099609375	0.0010162353515625	1427.13902139682
0.1947021484375	0.0010198974609375	1427.5815263957
0.199127197265625	0.00102264404296875	1428.02403139459
0.20355224609375	0.00102386474609375	1428.46653639347
0.207977294921875	0.001025390625	1428.90904139235
0.21240234375	0.00102630615234375	1429.35154639123
0.216827392578125	0.00102691650390625	1429.79405139012
0.22125244140625	0.0010272216796875	1430.236556389
0.225677490234375	0.0010272216796875	1430.67906138788
0.2301025390625	0.001026611328125	1431.12156638677
0.234527587890625	0.00102569580078125	1431.56407138565
0.23895263671875	0.00102508544921875	1432.00657638453
0.243377685546875	0.00102447509765625	1432.44908138341
0.247802734375	0.0010235595703125	1432.8915863823
0.252227783203125	0.00102264404296875	1433.33409138118
0.25665283203125	0.001021728515625	1433.77659638006
0.261077880859375	0.0010205078125	1434.21910137894
0.2655029296875	0.00101898193359375	1434.66160637783
0.269927978515625	0.00101837158203125	1435.10411137671
0.27435302734375	0.00101654052734375	1435.54661637559
0.278778076171875	0.0010150146484375	1435.98912137448
0.283203125	0.0010137939453125	1436.43162637336
0.287628173828125	0.00101226806640625	1436.87413137224
0.29205322265625	0.0010107421875	1437.31663637112
0.296478271484375	0.0010089111328125	1437.75914137001
0.3009033203125	0.0010076904296875	1438.20164636889
0.305328369140625	0.001005859375	1438.64415136777
0.30975341796875	0.0010052490234375	1439.08665636666
0.314178466796875	0.001005859375	1439.52916136554
0.318603515625	0.00100372314453125	1439.97166636442
0.323028564453125	0.00100189208984375	1440.4141713633
0.32745361328125	0.00100006103515625	1440.85667636219
0.331878662109375	0.00099884033203125	1441.29918136107
0.3363037109375	0.00099761962890625	1441.74168635995
0.340728759765625	0.00099609375	1442.18419135884
0.34515380859375	0.00099517822265625	1442.62669635772
0.349578857421875	0.00099365234375	1443.0692013566
0.35400390625	0.0009912109375	1443.51170635548
0.358428955078125	0.00099029541015625	1443.95421135437
0.36285400390625	0.0009893798828125	1444.39671635325
0.367279052734375	0.00098846435546875	1444.83922135213
0.3717041015625	0.000987548828125	1445.28172635101
0.376129150390625	0.00098602294921875	1445.7242313499
0.38055419921875	0.00098541259765625	1446.16673634878
0.384979248046875	0.00098419189453125	1446.60924134766
0.389404296875	0.000982666015625	1447.05174634655
0.393829345703125	0.00098114013671875	1447.49425134543
0.39825439453125	0.000980224609375	1447.93675634431
0.402679443359375	0.00097930908203125	1448.37926134319
0.4071044921875	0.0009783935546875	1448.82176634208
0.411529541015625	0.00097686767578125	1449.26427134096
0.41595458984375	0.00097625732421875	1449.70677633984
0.420379638671875	0.00097503662109375	1450.14928133872
0.4248046875	0.00097381591796875	1450.59178633761
0.429229736328125	0.000972900390625	1451.03429133649
0.43365478515625	0.00097198486328125	1451.47679633537
0.438079833984375	0.00097076416015625	1451.91930133426
0.4425048828125	0.0009698486328125	1452.36180633314
0.446929931640625	0.0009686279296875	1452.80431133202
0.45135498046875	0.00096832275390625	1453.2468163309
0.455780029296875	0.0009674072265625	1453.68932132979
0.460205078125	0.00096649169921875	1454.13182632867
0.464630126953125	0.00096649169921875	1454.57433132755
0.46905517578125	0.00096527099609375	1455.01683632644
0.473480224609375	0.00096466064453125	1455.45934132532
0.4779052734375	0.00096435546875	1455.9018463242
0.482330322265625	0.00096405029296875	1456.34435132308
0.48675537109375	0.0009637451171875	1456.78685632197
0.491180419921875	0.00096282958984375	1457.22936132085
0.49560546875	0.00096221923828125	1457.67186631973
0.500030517578125	0.0009613037109375	1458.11437131862
0.50445556640625	0.0009613037109375	1458.5568763175
0.508880615234375	0.00096038818359375	1458.99938131638
0.5133056640625	0.000960693359375	1459.44188631526
0.517730712890625	0.00096038818359375	1459.88439131415
0.52215576171875	0.00096038818359375	1460.32689631303
0.526580810546875	0.000960693359375	1460.76940131191
0.531005859375	0.00096038818359375	1461.21190631079
0.535430908203125	0.000960693359375	1461.65441130968
0.53985595703125	0.000960693359375	1462.09691630856
0.544281005859375	0.00096099853515625	1462.53942130744
0.5487060546875	0.0009600830078125	1462.98192630633
0.553131103515625	0.000960693359375	1463.42443130521
0.55755615234375	0.00096099853515625	1463.86693630409
0.561981201171875	0.0009619140625	1464.30944130297
0.56640625	0.0009619140625	1464.75194630186
0.570831298828125	0.00096282958984375	1465.19445130074
0.57525634765625	0.00096405029296875	1465.63695629962
0.579681396484375	0.00096405029296875	1466.07946129851
0.5841064453125	0.00096588134765625	1466.52196629739
0.588531494140625	0.000965576171875	1466.96447129627
0.59295654296875	0.00096710205078125	1467.40697629515
0.597381591796875	0.0009686279296875	1467.84948129404
0.601806640625	0.000970458984375	1468.29198629292
0.606231689453125	0.00097198486328125	1468.7344912918
0.61065673828125	0.0009735107421875	1469.17699629068
0.615081787109375	0.000975341796875	1469.61950128957
0.6195068359375	0.0009771728515625	1470.06200628845
0.623931884765625	0.00097900390625	1470.50451128733
0.62835693359375	0.0009832763671875	1470.94701628622
0.632781982421875	0.000985107421875	1471.3895212851
0.63720703125	0.00098663330078125	1471.83202628398
0.641632080078125	0.00098876953125	1472.27453128286
0.64605712890625	0.0009912109375	1472.71703628175
0.650482177734375	0.00099334716796875	1473.15954128063
0.6549072265625	0.00099639892578125	1473.60204627951
0.659332275390625	0.00099884033203125	1474.0445512784
0.66375732421875	0.001002197265625	1474.48705627728
0.668182373046875	0.0010052490234375	1474.92956127616
0.672607421875	0.00100830078125	1475.37206627504
0.677032470703125	0.001011962890625	1475.81457127393
0.68145751953125	0.001015625	1476.25707627281
0.685882568359375	0.00101959228515625	1476.69958127169
0.6903076171875	0.00102386474609375	1477.14208627057
0.694732666015625	0.0010272216796875	1477.58459126946
0.69915771484375	0.00103179931640625	1478.02709626834
0.703582763671875	0.00103515625	1478.46960126722
0.7080078125	0.0010400390625	1478.91210626611
0.712432861328125	0.0010455322265625	1479.35461126499
0.71685791015625	0.00105010986328125	1479.79711626387
0.721282958984375	0.00105560302734375	1480.23962126275
0.7257080078125	0.00106109619140625	1480.68212626164
0.730133056640625	0.00106689453125	1481.12463126052
0.73455810546875	0.00107269287109375	1481.5671362594
0.738983154296875	0.0010791015625	1482.00964125829
0.743408203125	0.00108428955078125	1482.45214625717
0.747833251953125	0.00109161376953125	1482.89465125605
0.75225830078125	0.0010980224609375	1483.33715625493
0.756683349609375	0.00110595703125	1483.77966125382
0.7611083984375	0.00111358642578125	1484.2221662527
0.765533447265625	0.0011212158203125	1484.66467125158
0.76995849609375	0.00113006591796875	1485.10717625046
0.774383544921875	0.00113922119140625	1485.54968124935
0.77880859375	0.00114837646484375	1485.99218624823
0.783233642578125	0.0011572265625	1486.43469124711
0.78765869140625	0.00116729736328125	1486.877196246
0.792083740234375	0.00117706298828125	1487.31970124488
0.7965087890625	0.0011883544921875	1487.76220624376
0.800933837890625	0.0011993408203125	1488.20471124264
0.80535888671875	0.0012109375	1488.64721624153
0.809783935546875	0.00122344970703125	1489.08972124041
0.814208984375	0.00123626708984375	1489.53222623929
0.818634033203125	0.0012493896484375	1489.97473123818
0.82305908203125	0.0012628173828125	1490.41723623706
0.827484130859375	0.0012774658203125	1490.85974123594
0.8319091796875	0.00129241943359375	1491.30224623482
0.836334228515625	0.00130859375	1491.74475123371
0.84075927734375	0.00132476806640625	1492.18725623259
0.845184326171875	0.001341552734375	1492.62976123147
0.849609375	0.001358642578125	1493.07226623035
0.854034423828125	0.00137725830078125	1493.51477122924
0.85845947265625	0.001396484375	1493.95727622812
0.862884521484375	0.00141510009765625	1494.399781227
0.8673095703125	0.001435546875	1494.84228622589
0.871734619140625	0.00145660400390625	1495.28479122477
0.87615966796875	0.00147735595703125	1495.72729622365
0.880584716796875	0.00149993896484375	1496.16980122253
0.885009765625	0.00152191162109375	1496.61230622142
0.889434814453125	0.00154510498046875	1497.0548112203
0.89385986328125	0.0015692138671875	1497.49731621918
0.898284912109375	0.0015936279296875	1497.93982121807
0.9027099609375	0.00161865234375	1498.38232621695
0.907135009765625	0.00164398193359375	1498.82483121583
0.91156005859375	0.0016705322265625	1499.26733621471
0.915985107421875	0.001697998046875	1499.7098412136
0.92041015625	0.0017254638671875	1500.15234621248
0.924835205078125	0.00175445556640625	1500.59485121136
0.92926025390625	0.00178375244140625	1501.03735621024
0.933685302734375	0.001815185546875	1501.47986120913
0.9381103515625	0.0018499755859375	1501.92236620801
0.942535400390625	0.0018829345703125	1502.36487120689
0.94696044921875	0.0019183349609375	1502.80737620578
0.951385498046875	0.00195587158203125	1503.24988120466
0.955810546875	0.0019964599609375	1503.69238620354
0.960235595703125	0.00203857421875	1504.13489120242
0.96466064453125	0.00208465576171875	1504.57739620131
0.969085693359375	0.00213348388671875	1505.01990120019
0.9735107421875	0.00218597412109375	1505.46240619907
0.977935791015625	0.00224029541015625	1505.90491119796
0.98236083984375	0.00230072021484375	1506.34741619684
0.986785888671875	0.00236480712890625	1506.78992119572
0.9912109375	0.00243377685546875	1507.2324261946
0.995635986328125	0.0025067138671875	1507.67493119349
1.00006103515625	0.00258392333984375	1508.11743619237
0.995635986328125	0.0020916748046875	1508.55994119125
0.9912109375	0.0017144775390625	1509.00244619014
0.986785888671875	0.00140869140625	1509.44495118902
0.98236083984375	0.0011529541015625	1509.8874561879
0.977935791015625	0.00093414306640625	1510.32996118678
0.9735107421875	0.00074432373046875	1510.77246618567
0.969085693359375	0.000576171875	1511.21497118455
0.96466064453125	0.000427337646484375	1511.65747618343
0.960235595703125	0.0002955322265625	1512.09998118231
0.955810546875	0.00017803955078125	1512.5424861812
0.951385498046875	7.2479248046875E-05	1512.98499118008
0.94696044921875	-2.14996337890625E-05	1513.42749617896
0.942535400390625	-0.00010577392578125	1513.87000117785
0.9381103515625	-0.0001815185546875	1514.31250617673
0.933685302734375	-0.0002508544921875	1514.75501117561
0.92926025390625	-0.000311065673828125	1515.19751617449
0.924835205078125	-0.0003653564453125	1515.64002117338
0.92041015625	-0.000413970947265625	1516.08252617226
0.915985107421875	-0.000457763671875	1516.52503117114
0.91156005859375	-0.00049786376953125	1516.96753617003
0.907135009765625	-0.000533203125	1517.41004116891
0.9027099609375	-0.000565887451171875	1517.85254616779
0.898284912109375	-0.000594940185546875	1518.29505116667
0.89385986328125	-0.00062188720703125	1518.73755616556
0.889434814453125	-0.0006463623046875	1519.18006116444
0.885009765625	-0.0006689453125	1519.62256616332
0.880584716796875	-0.0006890869140625	1520.0650711622
0.87615966796875	-0.00070770263671875	1520.50757616109
0.871734619140625	-0.00072509765625	1520.95008115997
0.8673095703125	-0.00074127197265625	1521.39258615885
0.862884521484375	-0.00075592041015625	1521.83509115774
0.85845947265625	-0.00076934814453125	1522.27759615662
0.854034423828125	-0.00078216552734375	1522.7201011555
0.849609375	-0.00079437255859375	1523.16260615438
0.845184326171875	-0.00080535888671875	1523.60511115327
0.84075927734375	-0.00081573486328125	1524.04761615215
0.836334228515625	-0.00082550048828125	1524.49012115103
0.8319091796875	-0.0008349609375	1524.93262614992
0.827484130859375	-0.00084320068359375	1525.3751311488
0.82305908203125	-0.00085113525390625	1525.81763614768
0.818634033203125	-0.00085845947265625	1526.26014114656
0.814208984375	-0.00086578369140625	1526.70264614545
0.809783935546875	-0.00087249755859375	1527.14515114433
0.80535888671875	-0.00087860107421875	1527.58765614321
0.800933837890625	-0.0008843994140625	1528.03016114209
0.7965087890625	-0.00089019775390625	1528.47266614098
0.792083740234375	-0.00089569091796875	1528.91517113986
0.78765869140625	-0.00090057373046875	1529.35767613874
0.783233642578125	-0.00090545654296875	1529.80018113763
0.77880859375	-0.000909423828125	1530.24268613651
0.774383544921875	-0.00091400146484375	1530.68519113539
0.76995849609375	-0.00091796875	1531.12769613427
0.765533447265625	-0.000921630859375	1531.57020113316
0.7611083984375	-0.00092498779296875	1532.01270613204
0.756683349609375	-0.00092864990234375	1532.45521113092
0.75225830078125	-0.0009320068359375	1532.89771612981
0.747833251953125	-0.00093475341796875	1533.34022112869
0.743408203125	-0.00093780517578125	1533.78272612757
0.738983154296875	-0.00093902587890625	1534.22523112645
0.73455810546875	-0.0009417724609375	1534.66773612534
0.730133056640625	-0.00094451904296875	1535.11024112422
0.7257080078125	-0.00094696044921875	1535.5527461231
0.721282958984375	-0.0009490966796875	1535.99525112198
0.71685791015625	-0.00095123291015625	1536.43775612087
0.712432861328125	-0.000953369140625	1536.88026111975
0.7080078125	-0.000955810546875	1537.32276611863
0.703582763671875	-0.0009576416015625	1537.76527111752
0.69915771484375	-0.00095855712890625	1538.2077761164
0.694732666015625	-0.0009613037109375	1538.65028111528
0.6903076171875	-0.000963134765625	1539.09278611416
0.685882568359375	-0.0009649658203125	1539.53529111305
0.68145751953125	-0.00096710205078125	1539.97779611193
0.677032470703125	-0.0009686279296875	1540.42030111081
0.672607421875	-0.000970458984375	1540.8628061097
0.668182373046875	-0.0009722900390625	1541.30531110858
0.66375732421875	-0.00097412109375	1541.74781610746
0.659332275390625	-0.00097564697265625	1542.19032110634
0.6549072265625	-0.00097808837890625	1542.63282610523
0.650482177734375	-0.00097991943359375	1543.07533110411
0.64605712890625	-0.00098175048828125	1543.51783610299
0.641632080078125	-0.00098388671875	1543.96034110187
0.63720703125	-0.00098602294921875	1544.40284610076
0.632781982421875	-0.0009881591796875	1544.84535109964
0.62835693359375	-0.00099029541015625	1545.28785609852
0.623931884765625	-0.00099517822265625	1545.73036109741
0.6195068359375	-0.0009967041015625	1546.17286609629
0.615081787109375	-0.00099822998046875	1546.61537109517
0.61065673828125	-0.0010003662109375	1547.05787609405
0.606231689453125	-0.00100250244140625	1547.50038109294
0.601806640625	-0.00100494384765625	1547.94288609182
0.597381591796875	-0.001007080078125	1548.3853910907
0.59295654296875	-0.001009521484375	1548.82789608959
0.588531494140625	-0.001011962890625	1549.27040108847
0.5841064453125	-0.0010137939453125	1549.71290608735
0.579681396484375	-0.00101654052734375	1550.15541108623
0.57525634765625	-0.00101959228515625	1550.59791608512
0.570831298828125	-0.0010223388671875	1551.040421084
0.56640625	-0.00102569580078125	1551.48292608288
0.561981201171875	-0.00102813720703125	1551.92543108177
0.55755615234375	-0.00103118896484375	1552.36793608065
0.553131103515625	-0.00103424072265625	1552.81044107953
0.5487060546875	-0.00103729248046875	1553.25294607841
0.544281005859375	-0.0010400390625	1553.6954510773
0.53985595703125	-0.0010430908203125	1554.13795607618
0.535430908203125	-0.001046142578125	1554.58046107506
0.531005859375	-0.0010498046875	1555.02296607394
0.526580810546875	-0.0010528564453125	1555.46547107283
0.52215576171875	-0.0010565185546875	1555.90797607171
0.517730712890625	-0.00105987548828125	1556.35048107059
0.5133056640625	-0.00106353759765625	1556.79298606948
0.508880615234375	-0.00106719970703125	1557.23549106836
0.50445556640625	-0.0010711669921875	1557.67799606724
0.500030517578125	-0.00107452392578125	1558.12050106612
0.49560546875	-0.0010784912109375	1558.56300606501
0.491180419921875	-0.00108184814453125	1559.00551106389
0.48675537109375	-0.00108551025390625	1559.44801606277
0.482330322265625	-0.0010888671875	1559.89052106165
0.4779052734375	-0.00109222412109375	1560.33302606054
0.473480224609375	-0.00109588623046875	1560.77553105942
0.46905517578125	-0.001099853515625	1561.2180360583
0.464630126953125	-0.0011029052734375	1561.66054105719
0.460205078125	-0.00110687255859375	1562.10304605607
0.455780029296875	-0.0011102294921875	1562.54555105495
0.45135498046875	-0.00111419677734375	1562.98805605383
0.446929931640625	-0.00111846923828125	1563.43056105272
0.4425048828125	-0.00112213134765625	1563.8730660516
0.438079833984375	-0.00112548828125	1564.31557105048
0.43365478515625	-0.001129150390625	1564.75807604937
0.429229736328125	-0.0011328125	1565.20058104825
0.4248046875	-0.001136474609375	1565.64308604713
0.420379638671875	-0.00114013671875	1566.08559104601
0.41595458984375	-0.00114349365234375	1566.5280960449
0.411529541015625	-0.00114776611328125	1566.97060104378
0.4071044921875	-0.001151123046875	1567.41310604266
0.402679443359375	-0.0011541748046875	1567.85561104155
0.39825439453125	-0.0011578369140625	1568.29811604043
0.393829345703125	-0.001162109375	1568.74062103931
0.389404296875	-0.0011639404296875	1569.18312603819
0.384979248046875	-0.00116851806640625	1569.62563103708
0.38055419921875	-0.001171875	1570.06813603596
0.376129150390625	-0.00117523193359375	1570.51064103484
0.3717041015625	-0.0011785888671875	1570.95314603372
0.367279052734375	-0.00118255615234375	1571.39565103261
0.36285400390625	-0.0011859130859375	1571.83815603149
0.358428955078125	-0.0011895751953125	1572.28066103037
0.35400390625	-0.00119354248046875	1572.72316602926
0.349578857421875	-0.0011956787109375	1573.16567102814
0.34515380859375	-0.00120025634765625	1573.60817602702
0.340728759765625	-0.00120391845703125	1574.0506810259
0.3363037109375	-0.00120819091796875	1574.49318602479
0.331878662109375	-0.001212158203125	1574.93569102367
0.32745361328125	-0.0012164306640625	1575.37819602255
0.323028564453125	-0.00122039794921875	1575.82070102144
0.318603515625	-0.001224365234375	1576.26320602032
0.314178466796875	-0.001229248046875	1576.7057110192
0.30975341796875	-0.0012353515625	1577.14821601808
0.305328369140625	-0.001239013671875	1577.59072101697
0.3009033203125	-0.0012432861328125	1578.03322601585
0.296478271484375	-0.00124755859375	1578.47573101473
0.29205322265625	-0.00125152587890625	1578.91823601361
0.287628173828125	-0.00125640869140625	1579.3607410125
0.283203125	-0.00126068115234375	1579.80324601138
0.278778076171875	-0.00126556396484375	1580.24575101026
0.27435302734375	-0.0012701416015625	1580.68825600915
0.269927978515625	-0.0012750244140625	1581.13076100803
0.2655029296875	-0.00128021240234375	1581.57326600691
0.261077880859375	-0.001285400390625	1582.01577100579
0.25665283203125	-0.00129058837890625	1582.45827600468
0.252227783203125	-0.0012957763671875	1582.90078100356
0.247802734375	-0.00130157470703125	1583.34328600244
0.243377685546875	-0.00130706787109375	1583.78579100133
0.23895263671875	-0.00131256103515625	1584.22829600021
0.234527587890625	-0.00131805419921875	1584.67080099909
0.2301025390625	-0.0013232421875	1585.11330599797
0.225677490234375	-0.001329345703125	1585.55581099686
0.22125244140625	-0.00133544921875	1585.99831599574
0.216827392578125	-0.00134185791015625	1586.44082099462
0.21240234375	-0.00134796142578125	1586.8833259935
0.207977294921875	-0.0013543701171875	1587.32583099239
0.20355224609375	-0.001361083984375	1587.76833599127
0.199127197265625	-0.00136749267578125	1588.21084099015
0.1947021484375	-0.00137451171875	1588.65334598904
0.190277099609375	-0.00138092041015625	1589.09585098792
0.18585205078125	-0.0013885498046875	1589.5383559868
0.181427001953125	-0.00139556884765625	1589.98086098568
0.177001953125	-0.001402587890625	1590.42336598457
0.172576904296875	-0.001409912109375	1590.86587098345
0.16815185546875	-0.00141754150390625	1591.30837598233
0.163726806640625	-0.00142547607421875	1591.75088098122
0.1593017578125	-0.0014337158203125	1592.1933859801
0.154876708984375	-0.001441650390625	1592.63589097898
0.15045166015625	-0.00144989013671875	1593.07839597786
0.146026611328125	-0.00145843505859375	1593.52090097675
0.1416015625	-0.00146759033203125	1593.96340597563
0.137176513671875	-0.0014764404296875	1594.40591097451
0.13275146484375	-0.001485595703125	1594.84841597339
0.128326416015625	-0.0014947509765625	1595.29092097228
0.1239013671875	-0.0015045166015625	1595.73342597116
0.119476318359375	-0.00151458740234375	1596.17593097004
0.11505126953125	-0.00152374267578125	1596.61843596893
0.110626220703125	-0.00153472900390625	1597.06094096781
0.106201171875	-0.00154510498046875	1597.50344596669
0.101776123046875	-0.001556396484375	1597.94595096557
0.09735107421875	-0.00156707763671875	1598.38845596446
0.092926025390625	-0.001578369140625	1598.83096096334
0.0885009765625	-0.001590576171875	1599.27346596222
0.084075927734375	-0.00160247802734375	1599.71597096111
0.07965087890625	-0.0016143798828125	1600.15847595999
0.075225830078125	-0.00162567138671875	1600.60098095887
0.07080078125	-0.00163848876953125	1601.04348595775
0.066375732421875	-0.00165130615234375	1601.48599095664
0.06195068359375	-0.00166412353515625	1601.92849595552
0.057525634765625	-0.0016778564453125	1602.3710009544
0.0531005859375	-0.0016912841796875	1602.81350595328
0.048675537109375	-0.001705322265625	1603.25601095217
0.04425048828125	-0.0017193603515625	1603.69851595105
0.039825439453125	-0.00173370361328125	1604.14102094993
0.035400390625	-0.001748046875	1604.58352594882
0.030975341796875	-0.00176300048828125	1605.0260309477
0.02655029296875	-0.00177825927734375	1605.46853594658
0.022125244140625	-0.00179412841796875	1605.91104094546
0.0177001953125	-0.00180999755859375	1606.35354594435
0.013275146484375	-0.001826171875	1606.79605094323
0.00885009765625	-0.00184295654296875	1607.23855594211
0.004425048828125	-0.00186004638671875	1607.681060941
0	-0.00187744140625	1608.12356593988
0.004425048828125	-0.00129180908203125	1608.56607093876
0.00885009765625	-0.00082977294921875	1609.00857593764
0.013275146484375	-0.00045953369140625	1609.45108093653
0.0177001953125	-0.000159698486328125	1609.89358593541
0.022125244140625	8.55712890625E-05	1610.33609093429
0.02655029296875	0.000286834716796875	1610.77859593317
0.030975341796875	0.000452850341796875	1611.22110093206
0.035400390625	0.000590728759765625	1611.66360593094
0.039825439453125	0.000704986572265625	1612.10611092982
0.04425048828125	0.000799560546875	1612.54861592871
0.048675537109375	0.0008782958984375	1612.99112092759
0.0531005859375	0.00094329833984375	1613.43362592647
0.057525634765625	0.0009979248046875	1613.87613092535
0.06195068359375	0.0010430908203125	1614.31863592424
0.066375732421875	0.001080322265625	1614.76114092312
0.07080078125	0.00111114501953125	1615.203645922
0.075225830078125	0.00113677978515625	1615.64615092089
0.07965087890625	0.00115692138671875	1616.08865591977
0.084075927734375	0.00117401123046875	1616.53116091865
0.0885009765625	0.0011871337890625	1616.97366591753
0.092926025390625	0.00119842529296875	1617.41617091642
0.09735107421875	0.0012066650390625	1617.8586759153
0.101776123046875	0.00121337890625	1618.30118091418
0.106201171875	0.0012176513671875	1618.74368591307
0.110626220703125	0.00122039794921875	1619.18619091195
0.11505126953125	0.00122222900390625	1619.62869591083
0.119476318359375	0.0012213134765625	1620.07120090971
0.1239013671875	0.00122161865234375	1620.5137059086
0.128326416015625	0.00122100830078125	1620.95621090748
0.13275146484375	0.0012188720703125	1621.39871590636
0.137176513671875	0.001217041015625	1621.84122090524
0.1416015625	0.00121490478515625	1622.28372590413
0.146026611328125	0.0012115478515625	1622.72623090301
0.15045166015625	0.00120819091796875	1623.16873590189
0.154876708984375	0.00120452880859375	1623.61124090078
0.1593017578125	0.00120025634765625	1624.05374589966
0.163726806640625	0.00119598388671875	1624.49625089854
0.16815185546875	0.0011920166015625	1624.93875589742
0.172576904296875	0.00118743896484375	1625.38126089631
0.177001953125	0.00118316650390625	1625.82376589519
0.181427001953125	0.0011785888671875	1626.26627089407
0.18585205078125	0.00117431640625	1626.70877589296
0.190277099609375	0.001170654296875	1627.15128089184
0.1947021484375	0.00116546630859375	1627.59378589072
0.199127197265625	0.001160888671875	1628.0362908896
0.20355224609375	0.001156005859375	1628.47879588849
0.207977294921875	0.00115203857421875	1628.92130088737
0.21240234375	0.00114776611328125	1629.36380588625
0.216827392578125	0.0011431884765625	1629.80631088513
0.22125244140625	0.00113922119140625	1630.24881588402
0.225677490234375	0.00113494873046875	1630.6913208829
0.2301025390625	0.00113067626953125	1631.13382588178
0.234527587890625	0.00112640380859375	1631.57633088067
0.23895263671875	0.001123046875	1632.01883587955
0.243377685546875	0.001119384765625	1632.46134087843
0.247802734375	0.00111541748046875	1632.90384587731
0.252227783203125	0.0011126708984375	1633.3463508762
0.25665283203125	0.0011090087890625	1633.78885587508
0.261077880859375	0.00110595703125	1634.23136087396
0.2655029296875	0.00110260009765625	1634.67386587285
0.269927978515625	0.0010992431640625	1635.11637087173
0.27435302734375	0.00109588623046875	1635.55887587061
0.278778076171875	0.00109283447265625	1636.00138086949
0.283203125	0.00109039306640625	1636.44388586838
0.287628173828125	0.001087646484375	1636.88639086726
0.29205322265625	0.00108489990234375	1637.32889586614
0.296478271484375	0.00108245849609375	1637.77140086502
0.3009033203125	0.00108001708984375	1638.21390586391
0.305328369140625	0.00107696533203125	1638.65641086279
0.30975341796875	0.0010748291015625	1639.09891586167
0.314178466796875	0.00107452392578125	1639.54142086056
0.318603515625	0.00107208251953125	1639.98392585944
0.323028564453125	0.0010693359375	1640.42643085832
0.32745361328125	0.00106689453125	1640.8689358572
0.331878662109375	0.00106475830078125	1641.31144085609
0.3363037109375	0.0010626220703125	1641.75394585497
0.340728759765625	0.001060791015625	1642.19645085385
0.34515380859375	0.001058349609375	1642.63895585274
0.349578857421875	0.00105682373046875	1643.08146085162
0.35400390625	0.00105377197265625	1643.5239658505
0.358428955078125	0.00105255126953125	1643.96647084938
0.36285400390625	0.00105072021484375	1644.40897584827
0.367279052734375	0.00104949951171875	1644.85148084715
0.3717041015625	0.0010479736328125	1645.29398584603
0.376129150390625	0.00104644775390625	1645.73649084491
0.38055419921875	0.00104522705078125	1646.1789958438
0.384979248046875	0.00104339599609375	1646.62150084268
0.389404296875	0.00104217529296875	1647.06400584156
0.393829345703125	0.0010394287109375	1647.50651084045
0.39825439453125	0.0010382080078125	1647.94901583933
0.402679443359375	0.00103668212890625	1648.39152083821
0.4071044921875	0.00103515625	1648.83402583709
0.411529541015625	0.00103363037109375	1649.27653083598
0.41595458984375	0.00103179931640625	1649.71903583486
0.420379638671875	0.00102996826171875	1650.16154083374
0.4248046875	0.00102935791015625	1650.60404583263
0.429229736328125	0.00102783203125	1651.04655083151
0.43365478515625	0.00102630615234375	1651.48905583039
0.438079833984375	0.00102508544921875	1651.93156082927
0.4425048828125	0.0010235595703125	1652.37406582816
0.446929931640625	0.00102203369140625	1652.81657082704
0.45135498046875	0.0010211181640625	1653.25907582592
0.455780029296875	0.0010205078125	1653.7015808248
0.460205078125	0.001019287109375	1654.14408582369
0.464630126953125	0.00101837158203125	1654.58659082257
0.46905517578125	0.00101715087890625	1655.02909582145
0.473480224609375	0.0010162353515625	1655.47160082034
0.4779052734375	0.001015625	1655.91410581922
0.482330322265625	0.00101470947265625	1656.3566108181
0.48675537109375	0.00101409912109375	1656.79911581698
0.491180419921875	0.0010137939453125	1657.24162081587
0.49560546875	0.00101287841796875	1657.68412581475
0.500030517578125	0.001011962890625	1658.12663081363
0.50445556640625	0.00101165771484375	1658.56913581252
0.508880615234375	0.0010113525390625	1659.0116408114
0.5133056640625	0.00101104736328125	1659.45414581028
0.517730712890625	0.0010107421875	1659.89665080916
0.52215576171875	0.0010101318359375	1660.33915580805
0.526580810546875	0.0010101318359375	1660.78166080693
0.531005859375	0.001009521484375	1661.22416580581
0.535430908203125	0.00100982666015625	1661.6666708047
0.53985595703125	0.00100982666015625	1662.10917580358
0.544281005859375	0.00100982666015625	1662.55168080246
0.5487060546875	0.001009521484375	1662.99418580134
0.553131103515625	0.001009521484375	1663.43669080023
0.55755615234375	0.00100982666015625	1663.87919579911
0.561981201171875	0.00101043701171875	1664.32170079799
0.56640625	0.0010107421875	1664.76420579687
0.570831298828125	0.001011962890625	1665.20671079576
0.57525634765625	0.0010125732421875	1665.64921579464
0.579681396484375	0.00101318359375	1666.09172079352
0.5841064453125	0.0010137939453125	1666.53422579241
0.588531494140625	0.0010137939453125	1666.97673079129
0.59295654296875	0.00101531982421875	1667.41923579017
0.597381591796875	0.001016845703125	1667.86174078905
0.601806640625	0.0010186767578125	1668.30424578794
0.606231689453125	0.00102020263671875	1668.74675078682
0.61065673828125	0.00102142333984375	1669.1892557857
0.615081787109375	0.00102325439453125	1669.63176078458
0.6195068359375	0.001025390625	1670.07426578347
0.623931884765625	0.0010272216796875	1670.51677078235
0.62835693359375	0.00103179931640625	1670.95927578123
0.632781982421875	0.00103363037109375	1671.40178078012
0.63720703125	0.00103485107421875	1671.844285779
0.641632080078125	0.00103759765625	1672.28679077788
0.64605712890625	0.00103973388671875	1672.72929577676
0.650482177734375	0.00104248046875	1673.17180077565
0.6549072265625	0.0010455322265625	1673.61430577453
0.659332275390625	0.00104827880859375	1674.05681077341
0.66375732421875	0.00105133056640625	1674.4993157723
0.668182373046875	0.0010546875	1674.94182077118
0.672607421875	0.0010577392578125	1675.38432577006
0.677032470703125	0.00106201171875	1675.82683076894
0.68145751953125	0.00106536865234375	1676.26933576783
0.685882568359375	0.0010693359375	1676.71184076671
0.6903076171875	0.00107330322265625	1677.15434576559
0.694732666015625	0.00107757568359375	1677.59685076448
0.69915771484375	0.00108245849609375	1678.03935576336
0.703582763671875	0.00108612060546875	1678.48186076224
0.7080078125	0.0010906982421875	1678.92436576112
0.712432861328125	0.0010955810546875	1679.36687076001
0.71685791015625	0.00110076904296875	1679.80937575889
0.721282958984375	0.00110626220703125	1680.25188075777
0.7257080078125	0.00111175537109375	1680.69438575665
0.730133056640625	0.00111724853515625	1681.13689075554
0.73455810546875	0.00112335205078125	1681.57939575442
0.738983154296875	0.0011297607421875	1682.0219007533
0.743408203125	0.00113494873046875	1682.46440575219
0.747833251953125	0.001142578125	1682.90691075107
0.75225830078125	0.0011492919921875	1683.34941574995
0.756683349609375	0.0011566162109375	1683.79192074883
0.7611083984375	0.00116485595703125	1684.23442574772
0.765533447265625	0.00117279052734375	1684.6769307466
0.76995849609375	0.0011810302734375	1685.11943574548
0.774383544921875	0.0011895751953125	1685.56194074437
0.77880859375	0.00119903564453125	1686.00444574325
0.783233642578125	0.0012078857421875	1686.44695074213
0.78765869140625	0.00121826171875	1686.88945574101
0.792083740234375	0.00122833251953125	1687.3319607399
0.7965087890625	0.0012384033203125	1687.77446573878
0.800933837890625	0.00125	1688.21697073766
0.80535888671875	0.0012615966796875	1688.65947573654
0.809783935546875	0.0012744140625	1689.10198073543
0.814208984375	0.00128662109375	1689.54448573431
0.818634033203125	0.00129974365234375	1689.98699073319
0.82305908203125	0.00131378173828125	1690.42949573208
0.827484130859375	0.00132781982421875	1690.87200073096
0.8319091796875	0.00134307861328125	1691.31450572984
0.836334228515625	0.001358642578125	1691.75701072872
0.84075927734375	0.00137451171875	1692.19951572761
0.845184326171875	0.0013916015625	1692.64202072649
0.849609375	0.00140838623046875	1693.08452572537
0.854034423828125	0.00142669677734375	1693.52703072426
0.85845947265625	0.00144500732421875	1693.96953572314
0.862884521484375	0.00146331787109375	1694.41204072202
0.8673095703125	0.00148345947265625	1694.8545457209
0.871734619140625	0.00150390625	1695.29705071979
0.87615966796875	0.0015252685546875	1695.73955571867
0.880584716796875	0.00154693603515625	1696.18206071755
0.885009765625	0.001568603515625	1696.62456571643
0.889434814453125	0.00159210205078125	1697.06707071532
0.89385986328125	0.00161529541015625	1697.5095757142
0.898284912109375	0.001639404296875	1697.95208071308
0.9027099609375	0.001663818359375	1698.39458571197
0.907135009765625	0.00168975830078125	1698.83709071085
0.91156005859375	0.00171539306640625	1699.27959570973
0.915985107421875	0.00174285888671875	1699.72210070861
0.92041015625	0.00177001953125	1700.1646057075
0.924835205078125	0.00179901123046875	1700.60711070638
0.92926025390625	0.00182830810546875	1701.04961570526
0.933685302734375	0.001859130859375	1701.49212070415
0.9381103515625	0.00189361572265625	1701.93462570303
0.942535400390625	0.0019268798828125	1702.37713070191
0.94696044921875	0.00196197509765625	1702.81963570079
0.951385498046875	0.00199920654296875	1703.26214069968
0.955810546875	0.00203826904296875	1703.70464569856
0.960235595703125	0.0020806884765625	1704.14715069744
0.96466064453125	0.002125244140625	1704.58965569632
0.969085693359375	0.00217315673828125	1705.03216069521
0.9735107421875	0.00222412109375	1705.47466569409
0.977935791015625	0.0022760009765625	1705.91717069297
0.98236083984375	0.002335205078125	1706.35967569186
0.986785888671875	0.0023968505859375	1706.80218069074
0.9912109375	0.00246368408203125	1707.24468568962
0.995635986328125	0.0025335693359375	1707.6871906885
1.00006103515625	0.0026080322265625	1708.12969568739
0.995635986328125	0.002115478515625	1708.57220068627
0.9912109375	0.001737060546875	1709.01470568515
0.986785888671875	0.00143096923828125	1709.45721068404
0.98236083984375	0.0011737060546875	1709.89971568292
0.977935791015625	0.00095367431640625	1710.3422206818
0.9735107421875	0.000762939453125	1710.78472568068
0.969085693359375	0.0005938720703125	1711.22723067957
0.96466064453125	0.000444244384765625	1711.66973567845
0.960235595703125	0.000311065673828125	1712.11224067733
0.955810546875	0.000192718505859375	1712.55474567621
0.951385498046875	8.7005615234375E-05	1712.9972506751
0.94696044921875	-7.38525390625E-06	1713.43975567398
0.942535400390625	-9.2559814453125E-05	1713.88226067286
0.9381103515625	-0.000168212890625	1714.32476567175
0.933685302734375	-0.000237701416015625	1714.76727067063
0.92926025390625	-0.0002979736328125	1715.20977566951
0.924835205078125	-0.000352447509765625	1715.65228066839
0.92041015625	-0.00040155029296875	1716.09478566728
0.915985107421875	-0.000445709228515625	1716.53729066616
0.91156005859375	-0.000485321044921875	1716.97979566504
0.907135009765625	-0.000521270751953125	1717.42230066393
0.9027099609375	-0.00055389404296875	1717.86480566281
0.898284912109375	-0.000583526611328125	1718.30731066169
0.89385986328125	-0.0006103515625	1718.74981566057
0.889434814453125	-0.000634765625	1719.19232065946
0.885009765625	-0.0006573486328125	1719.63482565834
0.880584716796875	-0.00067779541015625	1720.07733065722
0.87615966796875	-0.00069671630859375	1720.5198356561
0.871734619140625	-0.00071380615234375	1720.96234065499
0.8673095703125	-0.00072998046875	1721.40484565387
0.862884521484375	-0.00074493408203125	1721.84735065275
0.85845947265625	-0.00075836181640625	1722.28985565164
0.854034423828125	-0.00077117919921875	1722.73236065052
0.849609375	-0.00078338623046875	1723.1748656494
0.845184326171875	-0.000794677734375	1723.61737064828
0.84075927734375	-0.00080535888671875	1724.05987564717
0.836334228515625	-0.00081512451171875	1724.50238064605
0.8319091796875	-0.00082427978515625	1724.94488564493
0.827484130859375	-0.00083282470703125	1725.38739064382
0.82305908203125	-0.00084075927734375	1725.8298956427
0.818634033203125	-0.000848388671875	1726.27240064158
0.814208984375	-0.000855712890625	1726.71490564046
0.809783935546875	-0.00086181640625	1727.15741063935
0.80535888671875	-0.00086883544921875	1727.59991563823
0.800933837890625	-0.00087432861328125	1728.04242063711
0.7965087890625	-0.000880126953125	1728.484925636
0.792083740234375	-0.0008856201171875	1728.92743063488
0.78765869140625	-0.0008905029296875	1729.36993563376
0.783233642578125	-0.00089569091796875	1729.81244063264
0.77880859375	-0.000899658203125	1730.25494563153
0.774383544921875	-0.0009039306640625	1730.69745063041
0.76995849609375	-0.00090850830078125	1731.13995562929
0.765533447265625	-0.0009124755859375	1731.58246062817
0.7611083984375	-0.000916748046875	1732.02496562706
0.756683349609375	-0.0009197998046875	1732.46747062594
0.75225830078125	-0.00092315673828125	1732.90997562482
0.747833251953125	-0.000926513671875	1733.35248062371
0.743408203125	-0.00092926025390625	1733.79498562259
0.738983154296875	-0.00093048095703125	1734.23749062147
0.73455810546875	-0.000933837890625	1734.67999562035
0.730133056640625	-0.00093658447265625	1735.12250061924
0.7257080078125	-0.000938720703125	1735.56500561812
0.721282958984375	-0.000941162109375	1736.007510617
0.71685791015625	-0.0009429931640625	1736.45001561589
0.712432861328125	-0.0009454345703125	1736.89252061477
0.7080078125	-0.000947265625	1737.33502561365
0.703582763671875	-0.00094940185546875	1737.77753061253
0.69915771484375	-0.00095062255859375	1738.22003561142
0.694732666015625	-0.00095245361328125	1738.6625406103
0.6903076171875	-0.00095458984375	1739.10504560918
0.685882568359375	-0.00095672607421875	1739.54755060806
0.68145751953125	-0.0009588623046875	1739.99005560695
0.677032470703125	-0.00096038818359375	1740.43256060583
0.672607421875	-0.0009625244140625	1740.87506560471
0.668182373046875	-0.00096435546875	1741.3175706036
0.66375732421875	-0.0009661865234375	1741.76007560248
0.659332275390625	-0.000968017578125	1742.20258060136
0.6549072265625	-0.00096954345703125	1742.64508560024
0.650482177734375	-0.00097198486328125	1743.08759059913
0.64605712890625	-0.00097412109375	1743.53009559801
0.641632080078125	-0.00097625732421875	1743.97260059689
0.63720703125	-0.0009783935546875	1744.41510559578
0.632781982421875	-0.000980224609375	1744.85761059466
0.62835693359375	-0.000982666015625	1745.30011559354
0.623931884765625	-0.00098724365234375	1745.74262059242
0.6195068359375	-0.00098907470703125	1746.18512559131
0.615081787109375	-0.0009906005859375	1746.62763059019
0.61065673828125	-0.00099273681640625	1747.07013558907
0.606231689453125	-0.00099517822265625	1747.51264058795
0.601806640625	-0.000997314453125	1747.95514558684
0.597381591796875	-0.000999755859375	1748.39765058572
0.59295654296875	-0.00100189208984375	1748.8401555846
0.588531494140625	-0.001004638671875	1749.28266058349
0.5841064453125	-0.00100677490234375	1749.72516558237
0.579681396484375	-0.00100921630859375	1750.16767058125
0.57525634765625	-0.0010125732421875	1750.61017558013
0.570831298828125	-0.001015625	1751.05268057902
0.56640625	-0.0010186767578125	1751.4951855779
0.561981201171875	-0.00102142333984375	1751.93769057678
0.55755615234375	-0.0010247802734375	1752.38019557567
0.553131103515625	-0.00102783203125	1752.82270057455
0.5487060546875	-0.00103057861328125	1753.26520557343
0.544281005859375	-0.0010333251953125	1753.70771057231
0.53985595703125	-0.00103668212890625	1754.1502155712
0.535430908203125	-0.0010400390625	1754.59272057008
0.531005859375	-0.001043701171875	1755.03522556896
0.526580810546875	-0.00104705810546875	1755.47773056784
0.52215576171875	-0.0010504150390625	1755.92023556673
0.517730712890625	-0.00105377197265625	1756.36274056561
0.5133056640625	-0.0010577392578125	1756.80524556449
0.508880615234375	-0.00106109619140625	1757.24775056338
0.50445556640625	-0.00106414794921875	1757.69025556226
0.500030517578125	-0.00106842041015625	1758.13276056114
0.49560546875	-0.00107177734375	1758.57526556002
0.491180419921875	-0.0010760498046875	1759.01777055891
0.48675537109375	-0.0010797119140625	1759.46027555779
0.482330322265625	-0.0010833740234375	1759.90278055667
0.4779052734375	-0.001087646484375	1760.34528555556
0.473480224609375	-0.00109100341796875	1760.78779055444
0.46905517578125	-0.00109466552734375	1761.23029555332
0.464630126953125	-0.00109771728515625	1761.6728005522
0.460205078125	-0.00110137939453125	1762.11530555109
0.455780029296875	-0.0011053466796875	1762.55781054997
0.45135498046875	-0.00110870361328125	1763.00031554885
0.446929931640625	-0.0011126708984375	1763.44282054773
0.4425048828125	-0.0011163330078125	1763.88532554662
0.438079833984375	-0.00111968994140625	1764.3278305455
0.43365478515625	-0.0011236572265625	1764.77033554438
0.429229736328125	-0.0011273193359375	1765.21284054327
0.4248046875	-0.0011309814453125	1765.65534554215
0.420379638671875	-0.00113494873046875	1766.09785054103
0.41595458984375	-0.00113800048828125	1766.54035553991
0.411529541015625	-0.00114166259765625	1766.9828605388
0.4071044921875	-0.00114532470703125	1767.42536553768
0.402679443359375	-0.00114898681640625	1767.86787053656
0.39825439453125	-0.00115203857421875	1768.31037553545
0.393829345703125	-0.0011553955078125	1768.75288053433
0.389404296875	-0.00115814208984375	1769.19538553321
0.384979248046875	-0.00116180419921875	1769.63789053209
0.38055419921875	-0.00116546630859375	1770.08039553098
0.376129150390625	-0.00116912841796875	1770.52290052986
0.3717041015625	-0.0011724853515625	1770.96540552874
0.367279052734375	-0.00117584228515625	1771.40791052763
0.36285400390625	-0.0011798095703125	1771.85041552651
0.358428955078125	-0.00118316650390625	1772.29292052539
0.35400390625	-0.0011865234375	1772.73542552427
0.349578857421875	-0.00118927001953125	1773.17793052316
0.34515380859375	-0.0011932373046875	1773.62043552204
0.340728759765625	-0.001197509765625	1774.06294052092
0.3363037109375	-0.00120147705078125	1774.5054455198
0.331878662109375	-0.0012054443359375	1774.94795051869
0.32745361328125	-0.00120941162109375	1775.39045551757
0.323028564453125	-0.00121368408203125	1775.83296051645
0.318603515625	-0.0012176513671875	1776.27546551534
0.314178466796875	-0.00122222900390625	1776.71797051422
0.30975341796875	-0.00122833251953125	1777.1604755131
0.305328369140625	-0.001231689453125	1777.60298051198
0.3009033203125	-0.0012359619140625	1778.04548551087
0.296478271484375	-0.00123992919921875	1778.48799050975
0.29205322265625	-0.0012445068359375	1778.93049550863
0.287628173828125	-0.001248779296875	1779.37300050751
0.283203125	-0.00125335693359375	1779.8155055064
0.278778076171875	-0.00125762939453125	1780.25801050528
0.27435302734375	-0.0012628173828125	1780.70051550416
0.269927978515625	-0.00126708984375	1781.14302050305
0.2655029296875	-0.00127227783203125	1781.58552550193
0.261077880859375	-0.00127716064453125	1782.02803050081
0.25665283203125	-0.00128265380859375	1782.47053549969
0.252227783203125	-0.0012884521484375	1782.91304049858
0.247802734375	-0.0012939453125	1783.35554549746
0.243377685546875	-0.0012994384765625	1783.79805049634
0.23895263671875	-0.001304931640625	1784.24055549523
0.234527587890625	-0.0013104248046875	1784.68306049411
0.2301025390625	-0.0013153076171875	1785.12556549299
0.225677490234375	-0.0013214111328125	1785.56807049187
0.22125244140625	-0.001326904296875	1786.01057549076
0.216827392578125	-0.0013336181640625	1786.45308048964
0.21240234375	-0.00134033203125	1786.89558548852
0.207977294921875	-0.001346435546875	1787.33809048741
0.20355224609375	-0.0013531494140625	1787.78059548629
0.199127197265625	-0.00135955810546875	1788.22310048517
0.1947021484375	-0.001365966796875	1788.66560548405
0.190277099609375	-0.00137298583984375	1789.10811048294
0.18585205078125	-0.00138031005859375	1789.55061548182
0.181427001953125	-0.00138702392578125	1789.9931204807
0.177001953125	-0.00139434814453125	1790.43562547958
0.172576904296875	-0.0014013671875	1790.87813047847
0.16815185546875	-0.0014093017578125	1791.32063547735
0.163726806640625	-0.00141632080078125	1791.76314047623
0.1593017578125	-0.001424560546875	1792.20564547512
0.154876708984375	-0.00143218994140625	1792.648150474
0.15045166015625	-0.0014404296875	1793.09065547288
0.146026611328125	-0.0014483642578125	1793.53316047176
0.1416015625	-0.00145751953125	1793.97566547065
0.137176513671875	-0.0014666748046875	1794.41817046953
0.13275146484375	-0.001475830078125	1794.86067546841
0.128326416015625	-0.0014849853515625	1795.3031804673
0.1239013671875	-0.001494140625	1795.74568546618
0.119476318359375	-0.00150360107421875	1796.18819046506
0.11505126953125	-0.00151275634765625	1796.63069546394
0.110626220703125	-0.00152374267578125	1797.07320046283
0.106201171875	-0.00153411865234375	1797.51570546171
0.101776123046875	-0.00154510498046875	1797.95821046059
0.09735107421875	-0.00155609130859375	1798.40071545947
0.092926025390625	-0.0015667724609375	1798.84322045836
0.0885009765625	-0.00157745361328125	1799.28572545724
0.084075927734375	-0.0015887451171875	1799.72823045612
0.07965087890625	-0.0016009521484375	1800.17073545501
0.075225830078125	-0.00161224365234375	1800.61324045389
0.07080078125	-0.00162445068359375	1801.05574545277
0.066375732421875	-0.00163726806640625	1801.49825045165
0.06195068359375	-0.00165008544921875	1801.94075545054
0.057525634765625	-0.00166290283203125	1802.38326044942
0.0531005859375	-0.00167572021484375	1802.8257654483
0.048675537109375	-0.00168914794921875	1803.26827044719
0.04425048828125	-0.00170257568359375	1803.71077544607
0.039825439453125	-0.0017169189453125	1804.15328044495
0.035400390625	-0.0017303466796875	1804.59578544383
0.030975341796875	-0.00174560546875	1805.03829044272
0.02655029296875	-0.00176055908203125	1805.4807954416
0.022125244140625	-0.00177520751953125	1805.92330044048
0.0177001953125	-0.00179046630859375	1806.36580543936
0.013275146484375	-0.001806640625	1806.80831043825
0.00885009765625	-0.00182342529296875	1807.25081543713
0.004425048828125	-0.0018402099609375	1807.69332043601
0	-0.00185791015625	1808.1358254349
0.004425048828125	-0.00127349853515625	1808.57833043378
0.00885009765625	-0.00081298828125	1809.02083543266
0.013275146484375	-0.00044439697265625	1809.46334043154
0.0177001953125	-0.00014532470703125	1809.90584543043
0.022125244140625	9.8876953125E-05	1810.34835042931
0.02655029296875	0.000299285888671875	1810.79085542819
0.030975341796875	0.0004639892578125	1811.23336042708
0.035400390625	0.000600860595703125	1811.67586542596
0.039825439453125	0.000714111328125	1812.11837042484
0.04425048828125	0.00080780029296875	1812.56087542372
0.048675537109375	0.00088623046875	1813.00338042261
0.0531005859375	0.0009503173828125	1813.44588542149
0.057525634765625	0.00100372314453125	1813.88839042037
0.06195068359375	0.00104827880859375	1814.33089541925
0.066375732421875	0.00108551025390625	1814.77340041814
0.07080078125	0.0011151123046875	1815.21590541702
0.075225830078125	0.00114044189453125	1815.6584104159
0.07965087890625	0.0011602783203125	1816.10091541479
0.084075927734375	0.0011767578125	1816.54342041367
0.0885009765625	0.001190185546875	1816.98592541255
0.092926025390625	0.00120086669921875	1817.42843041143
0.09735107421875	0.00120849609375	1817.87093541032
0.101776123046875	0.001214599609375	1818.3134404092
0.106201171875	0.00121917724609375	1818.75594540808
0.110626220703125	0.001221923828125	1819.19845040697
0.11505126953125	0.00122314453125	1819.64095540585
0.119476318359375	0.0012225341796875	1820.08346040473
0.1239013671875	0.0012225341796875	1820.52596540361
0.128326416015625	0.0012213134765625	1820.9684704025
0.13275146484375	0.001219482421875	1821.41097540138
0.137176513671875	0.001217041015625	1821.85348040026
0.1416015625	0.00121429443359375	1822.29598539914
0.146026611328125	0.0012115478515625	1822.73849039803
0.15045166015625	0.001207275390625	1823.18099539691
0.154876708984375	0.00120361328125	1823.62350039579
0.1593017578125	0.00119873046875	1824.06600539468
0.163726806640625	0.00119476318359375	1824.50851039356
0.16815185546875	0.001190185546875	1824.95101539244
0.172576904296875	0.0011859130859375	1825.39352039132
0.177001953125	0.00118133544921875	1825.83602539021
0.181427001953125	0.0011773681640625	1826.27853038909
0.18585205078125	0.00117279052734375	1826.72103538797
0.190277099609375	0.00116790771484375	1827.16354038686
0.1947021484375	0.001163330078125	1827.60604538574
0.199127197265625	0.001158447265625	1828.04855038462
0.20355224609375	0.00115386962890625	1828.4910553835
0.207977294921875	0.0011492919921875	1828.93356038239
0.21240234375	0.00114471435546875	1829.37606538127
0.216827392578125	0.00114013671875	1829.81857038015
0.22125244140625	0.00113616943359375	1830.26107537903
0.225677490234375	0.0011322021484375	1830.70358037792
0.2301025390625	0.0011279296875	1831.1460853768
0.234527587890625	0.00112335205078125	1831.58859037568
0.23895263671875	0.00111968994140625	1832.03109537457
0.243377685546875	0.00111602783203125	1832.47360037345
0.247802734375	0.00111236572265625	1832.91610537233
0.252227783203125	0.0011090087890625	1833.35861037121
0.25665283203125	0.0011053466796875	1833.8011153701
0.261077880859375	0.00110198974609375	1834.24362036898
0.2655029296875	0.00109832763671875	1834.68612536786
0.269927978515625	0.00109527587890625	1835.12863036675
0.27435302734375	0.0010919189453125	1835.57113536563
0.278778076171875	0.00108917236328125	1836.01364036451
0.283203125	0.00108642578125	1836.45614536339
0.287628173828125	0.00108367919921875	1836.89865036228
0.29205322265625	0.00108062744140625	1837.34115536116
0.296478271484375	0.00107818603515625	1837.78366036004
0.3009033203125	0.001075439453125	1838.22616535893
0.305328369140625	0.001072998046875	1838.66867035781
0.30975341796875	0.001070556640625	1839.11117535669
0.314178466796875	0.00107025146484375	1839.55368035557
0.318603515625	0.0010675048828125	1839.99618535446
0.323028564453125	0.001064453125	1840.43869035334
0.32745361328125	0.0010626220703125	1840.88119535222
0.331878662109375	0.00106048583984375	1841.3237003511
0.3363037109375	0.00105804443359375	1841.76620534999
0.340728759765625	0.00105621337890625	1842.20871034887
0.34515380859375	0.001053466796875	1842.65121534775
0.349578857421875	0.00105224609375	1843.09372034664
0.35400390625	0.001048583984375	1843.53622534552
0.358428955078125	0.00104736328125	1843.9787303444
0.36285400390625	0.00104522705078125	1844.42123534328
0.367279052734375	0.00104400634765625	1844.86374034217
0.3717041015625	0.00104217529296875	1845.30624534105
0.376129150390625	0.001041259765625	1845.74875033993
0.38055419921875	0.0010400390625	1846.19125533882
0.384979248046875	0.001038818359375	1846.6337603377
0.389404296875	0.00103668212890625	1847.07626533658
0.393829345703125	0.00103424072265625	1847.51877033546
0.39825439453125	0.00103302001953125	1847.96127533435
0.402679443359375	0.001031494140625	1848.40378033323
0.4071044921875	0.0010296630859375	1848.84628533211
0.411529541015625	0.0010284423828125	1849.28879033099
0.41595458984375	0.00102691650390625	1849.73129532988
0.420379638671875	0.0010247802734375	1850.17380032876
0.4248046875	0.00102325439453125	1850.61630532764
0.429229736328125	0.00102203369140625	1851.05881032653
0.43365478515625	0.0010205078125	1851.50131532541
0.438079833984375	0.001019287109375	1851.94382032429
0.4425048828125	0.00101776123046875	1852.38632532317
0.446929931640625	0.00101654052734375	1852.82883032206
0.45135498046875	0.00101531982421875	1853.27133532094
0.455780029296875	0.001014404296875	1853.71384031982
0.460205078125	0.00101348876953125	1854.15634531871
0.464630126953125	0.0010125732421875	1854.59885031759
0.46905517578125	0.0010107421875	1855.04135531647
0.473480224609375	0.0010101318359375	1855.48386031535
0.4779052734375	0.00100921630859375	1855.92636531424
0.482330322265625	0.00100799560546875	1856.36887031312
0.48675537109375	0.0010076904296875	1856.811375312
0.491180419921875	0.00100677490234375	1857.25388031088
0.49560546875	0.001005859375	1857.69638530977
0.500030517578125	0.00100555419921875	1858.13889030865
0.50445556640625	0.001004638671875	1858.58139530753
0.508880615234375	0.0010040283203125	1859.02390030642
0.5133056640625	0.00100372314453125	1859.4664053053
0.517730712890625	0.00100311279296875	1859.90891030418
0.52215576171875	0.0010028076171875	1860.35141530306
0.526580810546875	0.00100311279296875	1860.79392030195
0.531005859375	0.001002197265625	1861.23642530083
0.535430908203125	0.001002197265625	1861.67893029971
0.53985595703125	0.00100189208984375	1862.1214352986
0.544281005859375	0.001002197265625	1862.56394029748
0.5487060546875	0.00100128173828125	1863.00644529636
0.553131103515625	0.001002197265625	1863.44895029524
0.55755615234375	0.001002197265625	1863.89145529413
0.561981201171875	0.001002197265625	1864.33396029301
0.56640625	0.0010028076171875	1864.77646529189
0.570831298828125	0.00100341796875	1865.21897029077
0.57525634765625	0.00100433349609375	1865.66147528966
0.579681396484375	0.001004638671875	1866.10398028854
0.5841064453125	0.00100555419921875	1866.54648528742
0.588531494140625	0.0010052490234375	1866.98899028631
0.59295654296875	0.001007080078125	1867.43149528519
0.597381591796875	0.00100830078125	1867.87400028407
0.601806640625	0.00100982666015625	1868.31650528295
0.606231689453125	0.0010113525390625	1868.75901028184
0.61065673828125	0.00101287841796875	1869.20151528072
0.615081787109375	0.0010150146484375	1869.6440202796
0.6195068359375	0.001016845703125	1870.08652527849
0.623931884765625	0.0010186767578125	1870.52903027737
0.62835693359375	0.00102325439453125	1870.97153527625
0.632781982421875	0.00102447509765625	1871.41404027513
0.63720703125	0.001026611328125	1871.85654527402
0.641632080078125	0.00102874755859375	1872.2990502729
0.64605712890625	0.00103118896484375	1872.74155527178
0.650482177734375	0.0010333251953125	1873.18406027066
0.6549072265625	0.0010357666015625	1873.62656526955
0.659332275390625	0.001038818359375	1874.06907026843
0.66375732421875	0.0010418701171875	1874.51157526731
0.668182373046875	0.00104522705078125	1874.9540802662
0.672607421875	0.001048583984375	1875.39658526508
0.677032470703125	0.00105194091796875	1875.83909026396
0.68145751953125	0.00105560302734375	1876.28159526284
0.685882568359375	0.00105987548828125	1876.72410026173
0.6903076171875	0.001063232421875	1877.16660526061
0.694732666015625	0.0010675048828125	1877.60911025949
0.69915771484375	0.00107177734375	1878.05161525838
0.703582763671875	0.00107574462890625	1878.49412025726
0.7080078125	0.00108062744140625	1878.93662525614
0.712432861328125	0.00108612060546875	1879.37913025502
0.71685791015625	0.0010906982421875	1879.82163525391
0.721282958984375	0.0010955810546875	1880.26414025279
0.7257080078125	0.00110137939453125	1880.70664525167
0.730133056640625	0.00110748291015625	1881.14915025056
0.73455810546875	0.00111328125	1881.59165524944
0.738983154296875	0.00111907958984375	1882.03416024832
0.743408203125	0.001124267578125	1882.4766652472
0.747833251953125	0.001131591796875	1882.91917024609
0.75225830078125	0.00113861083984375	1883.36167524497
0.756683349609375	0.00114593505859375	1883.80418024385
0.7611083984375	0.00115386962890625	1884.24668524273
0.765533447265625	0.001162109375	1884.68919024162
0.76995849609375	0.0011700439453125	1885.1316952405
0.774383544921875	0.0011785888671875	1885.57420023938
0.77880859375	0.001187744140625	1886.01670523827
0.783233642578125	0.00119659423828125	1886.45921023715
0.78765869140625	0.0012066650390625	1886.90171523603
0.792083740234375	0.0012164306640625	1887.34422023491
0.7965087890625	0.0012274169921875	1887.7867252338
0.800933837890625	0.00123809814453125	1888.22923023268
0.80535888671875	0.00124969482421875	1888.67173523156
0.809783935546875	0.00126190185546875	1889.11424023044
0.814208984375	0.00127410888671875	1889.55674522933
0.818634033203125	0.00128753662109375	1889.99925022821
0.82305908203125	0.00130126953125	1890.44175522709
0.827484130859375	0.0013153076171875	1890.88426022598
0.8319091796875	0.00132965087890625	1891.32676522486
0.836334228515625	0.00134490966796875	1891.76927022374
0.84075927734375	0.0013604736328125	1892.21177522262
0.845184326171875	0.00137725830078125	1892.65428022151
0.849609375	0.00139495849609375	1893.09678522039
0.854034423828125	0.001412353515625	1893.53929021927
0.85845947265625	0.0014306640625	1893.98179521816
0.862884521484375	0.001448974609375	1894.42430021704
0.8673095703125	0.00146820068359375	1894.86680521592
0.871734619140625	0.00148895263671875	1895.3093102148
0.87615966796875	0.00151031494140625	1895.75181521369
0.880584716796875	0.00153167724609375	1896.19432021257
0.885009765625	0.0015533447265625	1896.63682521145
0.889434814453125	0.00157562255859375	1897.07933021034
0.89385986328125	0.0015985107421875	1897.52183520922
0.898284912109375	0.00162261962890625	1897.9643402081
0.9027099609375	0.00164703369140625	1898.40684520698
0.907135009765625	0.0016729736328125	1898.84935020587
0.91156005859375	0.00169830322265625	1899.29185520475
0.915985107421875	0.001724853515625	1899.73436020363
0.92041015625	0.0017523193359375	1900.17686520251
0.924835205078125	0.001781005859375	1900.6193702014
0.92926025390625	0.0018096923828125	1901.06187520028
0.933685302734375	0.00184051513671875	1901.50438019916
0.9381103515625	0.001873779296875	1901.94688519805
0.942535400390625	0.0019073486328125	1902.38939019693
0.94696044921875	0.001942138671875	1902.83189519581
0.951385498046875	0.00197845458984375	1903.27440019469
0.955810546875	0.00201812744140625	1903.71690519358
0.960235595703125	0.0020587158203125	1904.15941019246
0.96466064453125	0.002103271484375	1904.60191519134
0.969085693359375	0.00214996337890625	1905.04442019023
0.9735107421875	0.00219970703125	1905.48692518911
0.977935791015625	0.00225250244140625	1905.92943018799
0.98236083984375	0.0023101806640625	1906.37193518687
0.986785888671875	0.002371826171875	1906.81444018576
0.9912109375	0.0024371337890625	1907.25694518464
0.995635986328125	0.00250640869140625	1907.69945018352
1.00006103515625	0.00258087158203125	1908.1419551824
0.995635986328125	0.00208984375	1908.58446018129
0.9912109375	0.001712646484375	1909.02696518017
0.986785888671875	0.001407470703125	1909.46947017905
0.98236083984375	0.00115203857421875	1909.91197517794
0.977935791015625	0.00093292236328125	1910.35448017682
0.9735107421875	0.0007440185546875	1910.7969851757
0.969085693359375	0.00057647705078125	1911.23949017458
0.96466064453125	0.00042877197265625	1911.68199517347
0.960235595703125	0.000297332763671875	1912.12450017235
0.955810546875	0.000180389404296875	1912.56700517123
0.951385498046875	7.598876953125E-05	1913.00951017012
0.94696044921875	-1.727294921875E-05	1913.452015169
0.942535400390625	-0.0001005859375	1913.89452016788
0.9381103515625	-0.000175323486328125	1914.33702516676
0.933685302734375	-0.000244140625	1914.77953016565
0.92926025390625	-0.00030340576171875	1915.22203516453
0.924835205078125	-0.00035675048828125	1915.66454016341
0.92041015625	-0.00040484619140625	1916.10704516229
0.915985107421875	-0.000447784423828125	1916.54955016118
0.91156005859375	-0.00048699951171875	1916.99205516006
0.907135009765625	-0.000522064208984375	1917.43456015894
0.9027099609375	-0.00055401611328125	1917.87706515783
0.898284912109375	-0.000582916259765625	1918.31957015671
0.89385986328125	-0.0006094970703125	1918.76207515559
0.889434814453125	-0.00063323974609375	1919.20458015447
0.885009765625	-0.00065521240234375	1919.64708515336
0.880584716796875	-0.000675048828125	1920.08959015224
0.87615966796875	-0.0006939697265625	1920.53209515112
0.871734619140625	-0.00071075439453125	1920.97460015001
0.8673095703125	-0.000726318359375	1921.41710514889
0.862884521484375	-0.000740966796875	1921.85961014777
0.85845947265625	-0.00075408935546875	1922.30211514665
0.854034423828125	-0.00076690673828125	1922.74462014554
0.849609375	-0.00077880859375	1923.18712514442
0.845184326171875	-0.00078948974609375	1923.6296301433
0.84075927734375	-0.000799560546875	1924.07213514218
0.836334228515625	-0.00080902099609375	1924.51464014107
0.8319091796875	-0.00081817626953125	1924.95714513995
0.827484130859375	-0.00082672119140625	1925.39965013883
0.82305908203125	-0.00083404541015625	1925.84215513772
0.818634033203125	-0.0008416748046875	1926.2846601366
0.814208984375	-0.0008489990234375	1926.72716513548
0.809783935546875	-0.00085540771484375	1927.16967013436
0.80535888671875	-0.0008612060546875	1927.61217513325
0.800933837890625	-0.00086700439453125	1928.05468013213
0.7965087890625	-0.000872802734375	1928.49718513101
0.792083740234375	-0.00087799072265625	1928.9396901299
0.78765869140625	-0.0008831787109375	1929.38219512878
0.783233642578125	-0.00088775634765625	1929.82470012766
0.77880859375	-0.0008917236328125	1930.26720512654
0.774383544921875	-0.00089599609375	1930.70971012543
0.76995849609375	-0.00089996337890625	1931.15221512431
0.765533447265625	-0.0009039306640625	1931.59472012319
0.7611083984375	-0.000908203125	1932.03722512207
0.756683349609375	-0.0009112548828125	1932.47973012096
0.75225830078125	-0.000914306640625	1932.92223511984
0.747833251953125	-0.00091796875	1933.36474011872
0.743408203125	-0.0009210205078125	1933.80724511761
0.738983154296875	-0.00092254638671875	1934.24975011649
0.73455810546875	-0.00092559814453125	1934.69225511537
0.730133056640625	-0.000927734375	1935.13476011425
0.7257080078125	-0.00093048095703125	1935.57726511314
0.721282958984375	-0.00093231201171875	1936.01977011202
0.71685791015625	-0.0009344482421875	1936.4622751109
0.712432861328125	-0.00093658447265625	1936.90478010979
0.7080078125	-0.000938720703125	1937.34728510867
0.703582763671875	-0.0009405517578125	1937.78979010755
0.69915771484375	-0.0009417724609375	1938.23229510643
0.694732666015625	-0.00094390869140625	1938.67480010532
0.6903076171875	-0.000946044921875	1939.1173051042
0.685882568359375	-0.00094818115234375	1939.55981010308
0.68145751953125	-0.00095001220703125	1940.00231510196
0.677032470703125	-0.0009515380859375	1940.44482010085
0.672607421875	-0.000953369140625	1940.88732509973
0.668182373046875	-0.000955810546875	1941.32983009861
0.66375732421875	-0.00095733642578125	1941.7723350975
0.659332275390625	-0.00095947265625	1942.21484009638
0.6549072265625	-0.00096160888671875	1942.65734509526
0.650482177734375	-0.00096405029296875	1943.09985009414
0.64605712890625	-0.00096588134765625	1943.54235509303
0.641632080078125	-0.00096832275390625	1943.98486009191
0.63720703125	-0.00097015380859375	1944.42736509079
0.632781982421875	-0.0009722900390625	1944.86987008968
0.62835693359375	-0.0009747314453125	1945.31237508856
0.623931884765625	-0.0009796142578125	1945.75488008744
0.6195068359375	-0.0009808349609375	1946.19738508632
0.615081787109375	-0.00098236083984375	1946.63989008521
0.61065673828125	-0.00098480224609375	1947.08239508409
0.606231689453125	-0.0009869384765625	1947.52490008297
0.601806640625	-0.00098907470703125	1947.96740508186
0.597381591796875	-0.00099151611328125	1948.40991008074
0.59295654296875	-0.0009942626953125	1948.85241507962
0.588531494140625	-0.00099700927734375	1949.2949200785
0.5841064453125	-0.00099853515625	1949.73742507739
0.579681396484375	-0.0010015869140625	1950.17993007627
0.57525634765625	-0.00100433349609375	1950.62243507515
0.570831298828125	-0.0010076904296875	1951.06494007403
0.56640625	-0.0010107421875	1951.50744507292
0.561981201171875	-0.00101318359375	1951.9499500718
0.55755615234375	-0.001016845703125	1952.39245507068
0.553131103515625	-0.00101959228515625	1952.83496006957
0.5487060546875	-0.00102294921875	1953.27746506845
0.544281005859375	-0.00102508544921875	1953.71997006733
0.53985595703125	-0.00102935791015625	1954.16247506621
0.535430908203125	-0.00103240966796875	1954.6049800651
0.531005859375	-0.00103607177734375	1955.04748506398
0.526580810546875	-0.0010394287109375	1955.48999006286
0.52215576171875	-0.0010430908203125	1955.93249506175
0.517730712890625	-0.00104644775390625	1956.37500006063
0.5133056640625	-0.00104949951171875	1956.81750505951
0.508880615234375	-0.00105316162109375	1957.26001005839
0.50445556640625	-0.00105682373046875	1957.70251505728
0.500030517578125	-0.0010601806640625	1958.14502005616
0.49560546875	-0.0010638427734375	1958.58752505504
0.491180419921875	-0.001068115234375	1959.03003005392
0.48675537109375	-0.00107208251953125	1959.47253505281
0.482330322265625	-0.0010760498046875	1959.91504005169
0.4779052734375	-0.00108001708984375	1960.35754505057
0.473480224609375	-0.001083984375	1960.80005004946
0.46905517578125	-0.00108734130859375	1961.24255504834
0.464630126953125	-0.00109039306640625	1961.68506004722
0.460205078125	-0.0010943603515625	1962.1275650461
0.455780029296875	-0.0010980224609375	1962.57007004499
0.45135498046875	-0.0011016845703125	1963.01257504387
0.446929931640625	-0.0011053466796875	1963.45508004275
0.4425048828125	-0.00110931396484375	1963.89758504164
0.438079833984375	-0.0011126708984375	1964.34009004052
0.43365478515625	-0.001116943359375	1964.7825950394
0.429229736328125	-0.0011199951171875	1965.22510003828
0.4248046875	-0.0011236572265625	1965.66760503717
0.420379638671875	-0.0011273193359375	1966.11011003605
0.41595458984375	-0.0011309814453125	1966.55261503493
0.411529541015625	-0.00113433837890625	1966.99512003381
0.4071044921875	-0.0011376953125	1967.4376250327
0.402679443359375	-0.001141357421875	1967.88013003158
0.39825439453125	-0.00114471435546875	1968.32263503046
0.393829345703125	-0.00114837646484375	1968.76514002935
0.389404296875	-0.001151123046875	1969.20764502823
0.384979248046875	-0.00115478515625	1969.65015002711
0.38055419921875	-0.00115814208984375	1970.09265502599
0.376129150390625	-0.00116180419921875	1970.53516002488
0.3717041015625	-0.00116546630859375	1970.97766502376
0.367279052734375	-0.0011688232421875	1971.42017002264
0.36285400390625	-0.00117279052734375	1971.86267502153
0.358428955078125	-0.00117645263671875	1972.30518002041
0.35400390625	-0.00118011474609375	1972.74768501929
0.349578857421875	-0.0011822509765625	1973.19019001817
0.34515380859375	-0.0011865234375	1973.63269501706
0.340728759765625	-0.0011907958984375	1974.07520001594
0.3363037109375	-0.00119476318359375	1974.51770501482
0.331878662109375	-0.00119873046875	1974.9602100137
0.32745361328125	-0.00120361328125	1975.40271501259
0.323028564453125	-0.00120697021484375	1975.84522001147
0.318603515625	-0.00121124267578125	1976.28772501035
0.314178466796875	-0.0012158203125	1976.73023000924
0.30975341796875	-0.0012213134765625	1977.17273500812
0.305328369140625	-0.0012255859375	1977.615240007
0.3009033203125	-0.0012298583984375	1978.05774500588
0.296478271484375	-0.00123382568359375	1978.50025000477
0.29205322265625	-0.00123809814453125	1978.94275500365
0.287628173828125	-0.0012432861328125	1979.38526000253
0.283203125	-0.00124755859375	1979.82776500142
0.278778076171875	-0.00125213623046875	1980.2702700003
0.27435302734375	-0.00125701904296875	1980.71277499918
0.269927978515625	-0.0012615966796875	1981.15527999806
0.2655029296875	-0.0012664794921875	1981.59778499695
0.261077880859375	-0.00127166748046875	1982.04028999583
0.25665283203125	-0.0012774658203125	1982.48279499471
0.252227783203125	-0.0012823486328125	1982.92529999359
0.247802734375	-0.001287841796875	1983.36780499248
0.243377685546875	-0.001292724609375	1983.81030999136
0.23895263671875	-0.001298828125	1984.25281499024
0.234527587890625	-0.00130462646484375	1984.69531998913
0.2301025390625	-0.001309814453125	1985.13782498801
0.225677490234375	-0.00131591796875	1985.58032998689
0.22125244140625	-0.00132232666015625	1986.02283498577
0.216827392578125	-0.00132781982421875	1986.46533998466
0.21240234375	-0.00133392333984375	1986.90784498354
0.207977294921875	-0.00134033203125	1987.35034998242
0.20355224609375	-0.001346435546875	1987.79285498131
0.199127197265625	-0.001353759765625	1988.23535998019
0.1947021484375	-0.00136016845703125	1988.67786497907
0.190277099609375	-0.0013671875	1989.12036997795
0.18585205078125	-0.00137451171875	1989.56287497684
0.181427001953125	-0.0013818359375	1990.00537997572
0.177001953125	-0.00138916015625	1990.4478849746
0.172576904296875	-0.00139617919921875	1990.89038997349
0.16815185546875	-0.00140380859375	1991.33289497237
0.163726806640625	-0.00141143798828125	1991.77539997125
0.1593017578125	-0.00141937255859375	1992.21790497013
0.154876708984375	-0.001427001953125	1992.66040996902
0.15045166015625	-0.00143585205078125	1993.1029149679
0.146026611328125	-0.00144439697265625	1993.54541996678
0.1416015625	-0.0014532470703125	1993.98792496566
0.137176513671875	-0.00146209716796875	1994.43042996455
0.13275146484375	-0.00147125244140625	1994.87293496343
0.128326416015625	-0.001480712890625	1995.31543996231
0.1239013671875	-0.0014898681640625	1995.7579449612
0.119476318359375	-0.0014996337890625	1996.20044996008
0.11505126953125	-0.00150848388671875	1996.64295495896
0.110626220703125	-0.0015185546875	1997.08545995784
0.106201171875	-0.001529541015625	1997.52796495673
0.101776123046875	-0.0015399169921875	1997.97046995561
0.09735107421875	-0.001551513671875	1998.41297495449
0.092926025390625	-0.00156280517578125	1998.85547995337
0.0885009765625	-0.001573486328125	1999.29798495226
0.084075927734375	-0.0015850830078125	1999.74048995114
0.07965087890625	-0.0015966796875	2000.18299495002
0.075225830078125	-0.00160797119140625	2000.62549994891
0.07080078125	-0.0016204833984375	2001.06800494779
0.066375732421875	-0.0016326904296875	2001.51050994667
0.06195068359375	-0.0016448974609375	2001.95301494555
0.057525634765625	-0.00165771484375	2002.39551994444
0.0531005859375	-0.00167144775390625	2002.83802494332
0.048675537109375	-0.00168426513671875	2003.2805299422
0.04425048828125	-0.00169769287109375	2003.72303494109
0.039825439453125	-0.00171173095703125	2004.16553993997
0.035400390625	-0.00172576904296875	2004.60804493885
0.030975341796875	-0.00174041748046875	2005.05054993773
0.02655029296875	-0.00175506591796875	2005.49305493662
0.022125244140625	-0.0017706298828125	2005.9355599355
0.0177001953125	-0.001785888671875	2006.37806493438
0.013275146484375	-0.00180267333984375	2006.82056993327
0.00885009765625	-0.00181854248046875	2007.26307493215
0.004425048828125	-0.00183563232421875	2007.70557993103
0	-0.00185272216796875	2008.14808492991
0.004425048828125	-0.0012689208984375	2008.5905899288
0.00885009765625	-0.0008087158203125	2009.03309492768
0.013275146484375	-0.000440093994140625	2009.47559992656
0.0177001953125	-0.00014080810546875	2009.91810492544
0.022125244140625	0.000102783203125	2010.36060992433
0.02655029296875	0.000302825927734375	2010.80311492321
0.030975341796875	0.000468048095703125	2011.24561992209
0.035400390625	0.000604827880859375	2011.68812492098
0.039825439453125	0.00071807861328125	2012.13062991986
0.04425048828125	0.0008111572265625	2012.57313491874
0.048675537109375	0.00088897705078125	2013.01563991762
0.0531005859375	0.000953369140625	2013.45814491651
0.057525634765625	0.001007080078125	2013.90064991539
0.06195068359375	0.00105133056640625	2014.34315491427
0.066375732421875	0.001087646484375	2014.78565991316
0.07080078125	0.00111785888671875	2015.22816491204
0.075225830078125	0.0011431884765625	2015.67066991092
0.07965087890625	0.001162109375	2016.1131749098
0.084075927734375	0.0011785888671875	2016.55567990869
0.0885009765625	0.00119140625	2016.99818490757
0.092926025390625	0.0012017822265625	2017.44068990645
0.09735107421875	0.00121002197265625	2017.88319490533
0.101776123046875	0.00121551513671875	2018.32569990422
0.106201171875	0.00121978759765625	2018.7682049031
0.110626220703125	0.00122222900390625	2019.21070990198
0.11505126953125	0.00122344970703125	2019.65321490087
0.119476318359375	0.00122283935546875	2020.09571989975
0.1239013671875	0.00122222900390625	2020.53822489863
0.128326416015625	0.00122100830078125	2020.98072989751
0.13275146484375	0.00121917724609375	2021.4232348964
0.137176513671875	0.00121673583984375	2021.86573989528
0.1416015625	0.00121368408203125	2022.30824489416
0.146026611328125	0.00121063232421875	2022.75074989305
0.15045166015625	0.00120697021484375	2023.19325489193
0.154876708984375	0.00120330810546875	2023.63575989081
0.1593017578125	0.00119842529296875	2024.07826488969
0.163726806640625	0.00119384765625	2024.52076988858
0.16815185546875	0.00118927001953125	2024.96327488746
0.172576904296875	0.00118499755859375	2025.40577988634
0.177001953125	0.001180419921875	2025.84828488522
0.181427001953125	0.00117645263671875	2026.29078988411
0.18585205078125	0.0011712646484375	2026.73329488299
0.190277099609375	0.0011663818359375	2027.17579988187
0.1947021484375	0.0011614990234375	2027.61830488076
0.199127197265625	0.00115692138671875	2028.06080987964
0.20355224609375	0.00115234375	2028.50331487852
0.207977294921875	0.00114776611328125	2028.9458198774
0.21240234375	0.001143798828125	2029.38832487629
0.216827392578125	0.00113922119140625	2029.83082987517
0.22125244140625	0.0011346435546875	2030.27333487405
0.225677490234375	0.00113037109375	2030.71583987294
0.2301025390625	0.0011260986328125	2031.15834487182
0.234527587890625	0.00112152099609375	2031.6008498707
0.23895263671875	0.0011175537109375	2032.04335486958
0.243377685546875	0.00111419677734375	2032.48585986847
0.247802734375	0.00111053466796875	2032.92836486735
0.252227783203125	0.001107177734375	2033.37086986623
0.25665283203125	0.00110382080078125	2033.81337486511
0.261077880859375	0.00110015869140625	2034.255879864
0.2655029296875	0.0010968017578125	2034.69838486288
0.269927978515625	0.00109344482421875	2035.14088986176
0.27435302734375	0.001090087890625	2035.58339486065
0.278778076171875	0.0010870361328125	2036.02589985953
0.283203125	0.001083984375	2036.46840485841
0.287628173828125	0.00108123779296875	2036.91090985729
0.29205322265625	0.0010784912109375	2037.35341485618
0.296478271484375	0.00107574462890625	2037.79591985506
0.3009033203125	0.001072998046875	2038.23842485394
0.305328369140625	0.001070556640625	2038.68092985283
0.30975341796875	0.001068115234375	2039.12343485171
0.314178466796875	0.00106781005859375	2039.56593985059
0.318603515625	0.0010650634765625	2040.00844484947
0.323028564453125	0.0010626220703125	2040.45094984836
0.32745361328125	0.00105987548828125	2040.89345484724
0.331878662109375	0.0010577392578125	2041.33595984612
0.3363037109375	0.00105499267578125	2041.778464845
0.340728759765625	0.00105316162109375	2042.22096984389
0.34515380859375	0.001051025390625	2042.66347484277
0.349578857421875	0.00104888916015625	2043.10597984165
0.35400390625	0.0010455322265625	2043.54848484054
0.358428955078125	0.0010443115234375	2043.99098983942
0.36285400390625	0.0010430908203125	2044.4334948383
0.367279052734375	0.00104156494140625	2044.87599983718
0.3717041015625	0.0010400390625	2045.31850483607
0.376129150390625	0.0010382080078125	2045.76100983495
0.38055419921875	0.00103668212890625	2046.20351483383
0.384979248046875	0.00103515625	2046.64601983272
0.389404296875	0.00103363037109375	2047.0885248316
0.393829345703125	0.00103118896484375	2047.53102983048
0.39825439453125	0.00102996826171875	2047.97353482936
0.402679443359375	0.00102874755859375	2048.41603982825
0.4071044921875	0.00102691650390625	2048.85854482713
0.411529541015625	0.00102508544921875	2049.30104982601
0.41595458984375	0.00102386474609375	2049.74355482489
0.420379638671875	0.0010223388671875	2050.18605982378
0.4248046875	0.00102020263671875	2050.62856482266
0.429229736328125	0.001019287109375	2051.07106982154
0.43365478515625	0.0010174560546875	2051.51357482043
0.438079833984375	0.0010162353515625	2051.95607981931
0.4425048828125	0.001014404296875	2052.39858481819
0.446929931640625	0.00101348876953125	2052.84108981707
0.45135498046875	0.00101226806640625	2053.28359481596
0.455780029296875	0.00101104736328125	2053.72609981484
0.460205078125	0.0010101318359375	2054.16860481372
0.464630126953125	0.00100921630859375	2054.61110981261
0.46905517578125	0.00100799560546875	2055.05361481149
0.473480224609375	0.00100677490234375	2055.49611981037
0.4779052734375	0.00100616455078125	2055.93862480925
0.482330322265625	0.0010052490234375	2056.38112980814
0.48675537109375	0.00100433349609375	2056.82363480702
0.491180419921875	0.00100341796875	2057.2661398059
0.49560546875	0.0010028076171875	2057.70864480478
0.500030517578125	0.001002197265625	2058.15114980367
0.50445556640625	0.00100128173828125	2058.59365480255
0.508880615234375	0.0010009765625	2059.03615980143
0.5133056640625	0.0010003662109375	2059.47866480032
0.517730712890625	0.00100006103515625	2059.9211697992
0.52215576171875	0.000999755859375	2060.36367479808
0.526580810546875	0.00099945068359375	2060.80617979696
0.531005859375	0.00099945068359375	2061.24868479585
0.535430908203125	0.0009991455078125	2061.69118979473
0.53985595703125	0.0009991455078125	2062.13369479361
0.544281005859375	0.00099884033203125	2062.5761997925
0.5487060546875	0.00099822998046875	2063.01870479138
0.553131103515625	0.00099822998046875	2063.46120979026
0.55755615234375	0.00099853515625	2063.90371478914
0.561981201171875	0.0009991455078125	2064.34621978803
0.56640625	0.0009991455078125	2064.78872478691
0.570831298828125	0.000999755859375	2065.23122978579
0.57525634765625	0.0010003662109375	2065.67373478468
0.579681396484375	0.00100128173828125	2066.11623978356
0.5841064453125	0.00100189208984375	2066.55874478244
0.588531494140625	0.0010015869140625	2067.00124978132
0.59295654296875	0.00100311279296875	2067.44375478021
0.597381591796875	0.001004638671875	2067.88625977909
0.601806640625	0.00100555419921875	2068.32876477797
0.606231689453125	0.001007080078125	2068.77126977685
0.61065673828125	0.0010089111328125	2069.21377477574
0.615081787109375	0.00101043701171875	2069.65627977462
0.6195068359375	0.00101226806640625	2070.0987847735
0.623931884765625	0.00101409912109375	2070.54128977239
0.62835693359375	0.0010186767578125	2070.98379477127
0.632781982421875	0.00102020263671875	2071.42629977015
0.63720703125	0.001021728515625	2071.86880476903
0.641632080078125	0.0010235595703125	2072.31130976792
0.64605712890625	0.0010260009765625	2072.7538147668
0.650482177734375	0.001029052734375	2073.19631976568
0.6549072265625	0.00103118896484375	2073.63882476457
0.659332275390625	0.00103424072265625	2074.08132976345
0.66375732421875	0.0010369873046875	2074.52383476233
0.668182373046875	0.0010400390625	2074.96633976121
0.672607421875	0.001043701171875	2075.4088447601
0.677032470703125	0.0010467529296875	2075.85134975898
0.68145751953125	0.00105010986328125	2076.29385475786
0.685882568359375	0.0010540771484375	2076.73635975674
0.6903076171875	0.00105804443359375	2077.17886475563
0.694732666015625	0.0010626220703125	2077.62136975451
0.69915771484375	0.00106658935546875	2078.06387475339
0.703582763671875	0.001070556640625	2078.50637975228
0.7080078125	0.00107513427734375	2078.94888475116
0.712432861328125	0.001080322265625	2079.39138975004
0.71685791015625	0.00108489990234375	2079.83389474892
0.721282958984375	0.001090087890625	2080.27639974781
0.7257080078125	0.0010955810546875	2080.71890474669
0.730133056640625	0.00110076904296875	2081.16140974557
0.73455810546875	0.0011065673828125	2081.60391474446
0.738983154296875	0.00111236572265625	2082.04641974334
0.743408203125	0.00111724853515625	2082.48892474222
0.747833251953125	0.00112457275390625	2082.9314297411
0.75225830078125	0.00113128662109375	2083.37393473999
0.756683349609375	0.00113861083984375	2083.81643973887
0.7611083984375	0.00114593505859375	2084.25894473775
0.765533447265625	0.001153564453125	2084.70144973663
0.76995849609375	0.00116180419921875	2085.14395473552
0.774383544921875	0.0011700439453125	2085.5864597344
0.77880859375	0.00117889404296875	2086.02896473328
0.783233642578125	0.00118743896484375	2086.47146973217
0.78765869140625	0.00119720458984375	2086.91397473105
0.792083740234375	0.00120697021484375	2087.35647972993
0.7965087890625	0.001217041015625	2087.79898472881
0.800933837890625	0.00122833251953125	2088.2414897277
0.80535888671875	0.001239013671875	2088.68399472658
0.809783935546875	0.00125091552734375	2089.12649972546
0.814208984375	0.0012628173828125	2089.56900472435
0.818634033203125	0.00127593994140625	2090.01150972323
0.82305908203125	0.0012890625	2090.45401472211
0.827484130859375	0.00130279541015625	2090.89651972099
0.8319091796875	0.00131744384765625	2091.33902471988
0.836334228515625	0.00133209228515625	2091.78152971876
0.84075927734375	0.00134765625	2092.22403471764
0.845184326171875	0.00136444091796875	2092.66653971652
0.849609375	0.00138031005859375	2093.10904471541
0.854034423828125	0.00139801025390625	2093.55154971429
0.85845947265625	0.0014154052734375	2093.99405471317
0.862884521484375	0.00143341064453125	2094.43655971206
0.8673095703125	0.00145233154296875	2094.87906471094
0.871734619140625	0.00147186279296875	2095.32156970982
0.87615966796875	0.001492919921875	2095.7640747087
0.880584716796875	0.001513671875	2096.20657970759
0.885009765625	0.00153533935546875	2096.64908470647
0.889434814453125	0.0015576171875	2097.09158970535
0.89385986328125	0.00157989501953125	2097.53409470424
0.898284912109375	0.00160400390625	2097.97659970312
0.9027099609375	0.00162750244140625	2098.419104702
0.907135009765625	0.00165252685546875	2098.86160970088
0.91156005859375	0.00167755126953125	2099.30411469977
0.915985107421875	0.0017041015625	2099.74661969865
0.92041015625	0.00173095703125	2100.18912469753
0.924835205078125	0.001759033203125	2100.63162969642
0.92926025390625	0.00178802490234375	2101.0741346953
0.933685302734375	0.0018182373046875	2101.51663969418
0.9381103515625	0.00185211181640625	2101.95914469306
0.942535400390625	0.0018841552734375	2102.40164969195
0.94696044921875	0.00191864013671875	2102.84415469083
0.951385498046875	0.00195465087890625	2103.28665968971
0.955810546875	0.001993408203125	2103.72916468859
0.960235595703125	0.0020343017578125	2104.17166968748
0.96466064453125	0.00207733154296875	2104.61417468636
0.969085693359375	0.0021240234375	2105.05667968524
0.9735107421875	0.00217376708984375	2105.49918468413
0.977935791015625	0.00222503662109375	2105.94168968301
0.98236083984375	0.00228240966796875	2106.38419468189
0.986785888671875	0.00234283447265625	2106.82669968077
0.9912109375	0.0024078369140625	2107.26920467966
