Potential applied (V)	WE(1).Current (A)	Time (s)
0.004425048828125	-0.0841705322265625	2602.71774842877
0.00885009765625	-0.0784637451171875	2602.76199842866
0.013275146484375	-0.07364501953125	2602.80624842855
0.0177001953125	-0.06934814453125	2602.85049842843
0.022125244140625	-0.065484619140625	2602.89474842832
0.02655029296875	-0.0619720458984375	2602.93899842821
0.030975341796875	-0.0587554931640625	2602.9832484281
0.035400390625	-0.0557769775390625	2603.02749842799
0.039825439453125	-0.053009033203125	2603.07174842788
0.04425048828125	-0.05042724609375	2603.11599842776
0.048675537109375	-0.0480194091796875	2603.16024842765
0.0531005859375	-0.0457550048828125	2603.20449842754
0.057525634765625	-0.0436126708984375	2603.24874842743
0.06195068359375	-0.04158935546875	2603.29299842732
0.066375732421875	-0.039678955078125	2603.33724842721
0.07080078125	-0.0378570556640625	2603.38149842709
0.075225830078125	-0.0361358642578125	2603.42574842698
0.07965087890625	-0.0344879150390625	2603.46999842687
0.084075927734375	-0.0329254150390625	2603.51424842676
0.0885009765625	-0.0314239501953125	2603.55849842665
0.092926025390625	-0.029998779296875	2603.60274842654
0.09735107421875	-0.0286376953125	2603.64699842642
0.101776123046875	-0.027325439453125	2603.69124842631
0.106201171875	-0.0260650634765625	2603.7354984262
0.110626220703125	-0.0248687744140625	2603.77974842609
0.11505126953125	-0.023712158203125	2603.82399842598
0.119476318359375	-0.0226043701171875	2603.86824842586
0.1239013671875	-0.021539306640625	2603.91249842575
0.128326416015625	-0.020513916015625	2603.95674842564
0.13275146484375	-0.0195220947265625	2604.00099842553
0.137176513671875	-0.0185760498046875	2604.04524842542
0.1416015625	-0.0176544189453125	2604.08949842531
0.146026611328125	-0.0167755126953125	2604.13374842519
0.15045166015625	-0.01591796875	2604.17799842508
0.154876708984375	-0.015093994140625	2604.22224842497
0.1593017578125	-0.014300537109375	2604.26649842486
0.163726806640625	-0.0135345458984375	2604.31074842475
0.16815185546875	-0.0127899169921875	2604.35499842464
0.172576904296875	-0.01207275390625	2604.39924842452
0.177001953125	-0.011376953125	2604.44349842441
0.181427001953125	-0.01070556640625	2604.4877484243
0.18585205078125	-0.0100555419921875	2604.53199842419
0.190277099609375	-0.0094268798828125	2604.57624842408
0.1947021484375	-0.008819580078125	2604.62049842397
0.199127197265625	-0.0082275390625	2604.66474842385
0.20355224609375	-0.0076568603515625	2604.70899842374
0.207977294921875	-0.0071014404296875	2604.75324842363
0.21240234375	-0.006561279296875	2604.79749842352
0.216827392578125	-0.0060394287109375	2604.84174842341
0.22125244140625	-0.0055328369140625	2604.88599842329
0.225677490234375	-0.00504150390625	2604.93024842318
0.2301025390625	-0.00456878662109375	2604.97449842307
0.234527587890625	-0.004107666015625	2605.01874842296
0.23895263671875	-0.00366058349609375	2605.06299842285
0.243377685546875	-0.00322540283203125	2605.10724842274
0.247802734375	-0.00280426025390625	2605.15149842262
0.252227783203125	-0.00240509033203125	2605.19574842251
0.25665283203125	-0.0020062255859375	2605.2399984224
0.261077880859375	-0.0016192626953125	2605.28424842229
0.2655029296875	-0.00124420166015625	2605.32849842218
0.269927978515625	-0.0008795166015625	2605.37274842207
0.27435302734375	-0.0005267333984375	2605.41699842195
0.278778076171875	-0.000183197021484375	2605.46124842184
0.283203125	0.000149444580078125	2605.50549842173
0.287628173828125	0.00047296142578125	2605.54974842162
0.29205322265625	0.00078704833984375	2605.59399842151
0.296478271484375	0.0010919189453125	2605.6382484214
0.3009033203125	0.001387939453125	2605.68249842128
0.305328369140625	0.0016748046875	2605.72674842117
0.30975341796875	0.001953125	2605.77099842106
0.314178466796875	0.0022259521484375	2605.81524842095
0.318603515625	0.002489013671875	2605.85949842084
0.323028564453125	0.0027435302734375	2605.90374842073
0.32745361328125	0.0029901123046875	2605.94799842061
0.331878662109375	0.00322967529296875	2605.9922484205
0.3363037109375	0.00346099853515625	2606.03649842039
0.340728759765625	0.00368621826171875	2606.08074842028
0.34515380859375	0.00390411376953125	2606.12499842017
0.349578857421875	0.0041143798828125	2606.16924842006
0.35400390625	0.00431793212890625	2606.21349841994
0.358428955078125	0.00451629638671875	2606.25774841983
0.36285400390625	0.0047076416015625	2606.30199841972
0.367279052734375	0.004893798828125	2606.34624841961
0.3717041015625	0.0050738525390625	2606.3904984195
0.376129150390625	0.00524871826171875	2606.43474841938
0.38055419921875	0.00541778564453125	2606.47899841927
0.384979248046875	0.005579833984375	2606.52324841916
0.389404296875	0.005738525390625	2606.56749841905
0.393829345703125	0.005892333984375	2606.61174841894
0.39825439453125	0.0060418701171875	2606.65599841883
0.402679443359375	0.0061767578125	2606.70024841871
0.4071044921875	0.0063140869140625	2606.7444984186
0.411529541015625	0.0064483642578125	2606.78874841849
0.41595458984375	0.0065765380859375	2606.83299841838
0.420379638671875	0.00670166015625	2606.87724841827
0.4248046875	0.0068206787109375	2606.92149841816
0.429229736328125	0.0069366455078125	2606.96574841804
0.43365478515625	0.0070465087890625	2607.00999841793
0.438079833984375	0.0071533203125	2607.05424841782
0.4425048828125	0.007257080078125	2607.09849841771
0.446929931640625	0.0073577880859375	2607.1427484176
0.45135498046875	0.007452392578125	2607.18699841749
0.455780029296875	0.0075469970703125	2607.23124841737
0.460205078125	0.0076416015625	2607.27549841726
0.464630126953125	0.00772705078125	2607.31974841715
0.46905517578125	0.0078094482421875	2607.36399841704
0.473480224609375	0.0078857421875	2607.40824841693
0.4779052734375	0.0079620361328125	2607.45249841682
0.482330322265625	0.0080352783203125	2607.4967484167
0.48675537109375	0.00810546875	2607.54099841659
0.491180419921875	0.008172607421875	2607.58524841648
0.49560546875	0.00823974609375	2607.62949841637
0.500030517578125	0.00830078125	2607.67374841626
0.50445556640625	0.0083648681640625	2607.71799841614
0.508880615234375	0.0084197998046875	2607.76224841603
0.5133056640625	0.0084747314453125	2607.80649841592
0.517730712890625	0.008526611328125	2607.85074841581
0.52215576171875	0.00858154296875	2607.8949984157
0.526580810546875	0.0086334228515625	2607.93924841559
0.531005859375	0.00867919921875	2607.98349841547
0.535430908203125	0.0087249755859375	2608.02774841536
0.53985595703125	0.0087677001953125	2608.07199841525
0.544281005859375	0.0088104248046875	2608.11624841514
0.5487060546875	0.0088470458984375	2608.16049841503
0.553131103515625	0.00888671875	2608.20474841492
0.55755615234375	0.0089202880859375	2608.2489984148
0.561981201171875	0.0089569091796875	2608.29324841469
0.56640625	0.0089874267578125	2608.33749841458
0.570831298828125	0.00902099609375	2608.38174841447
0.57525634765625	0.0090484619140625	2608.42599841436
0.579681396484375	0.009075927734375	2608.47024841425
0.5841064453125	0.0091033935546875	2608.51449841413
0.588531494140625	0.0091278076171875	2608.55874841402
0.59295654296875	0.0091522216796875	2608.60299841391
0.597381591796875	0.009173583984375	2608.6472484138
0.601806640625	0.0091949462890625	2608.69149841369
0.606231689453125	0.00921630859375	2608.73574841358
0.61065673828125	0.009234619140625	2608.77999841346
0.615081787109375	0.0092529296875	2608.82424841335
0.6195068359375	0.009271240234375	2608.86849841324
0.623931884765625	0.0092864990234375	2608.91274841313
0.62835693359375	0.0093048095703125	2608.95699841302
0.632781982421875	0.0093170166015625	2609.00124841291
0.63720703125	0.0093292236328125	2609.04549841279
0.641632080078125	0.0093414306640625	2609.08974841268
0.64605712890625	0.0093536376953125	2609.13399841257
0.650482177734375	0.00936279296875	2609.17824841246
0.6549072265625	0.0093719482421875	2609.22249841235
0.659332275390625	0.0093780517578125	2609.26674841223
0.66375732421875	0.00938720703125	2609.31099841212
0.668182373046875	0.009393310546875	2609.35524841201
0.672607421875	0.0093994140625	2609.3994984119
0.677032470703125	0.009405517578125	2609.44374841179
0.68145751953125	0.00941162109375	2609.48799841168
0.685882568359375	0.0094146728515625	2609.53224841156
0.6903076171875	0.009417724609375	2609.57649841145
0.694732666015625	0.009423828125	2609.62074841134
0.69915771484375	0.0094268798828125	2609.66499841123
0.703582763671875	0.009429931640625	2609.70924841112
0.7080078125	0.009429931640625	2609.75349841101
0.712432861328125	0.0094329833984375	2609.79774841089
0.71685791015625	0.00943603515625	2609.84199841078
0.721282958984375	0.00943603515625	2609.88624841067
0.7257080078125	0.0094390869140625	2609.93049841056
0.730133056640625	0.0094390869140625	2609.97474841045
0.73455810546875	0.0094390869140625	2610.01899841034
0.738983154296875	0.0094390869140625	2610.06324841022
0.743408203125	0.0094390869140625	2610.10749841011
0.747833251953125	0.0094390869140625	2610.15174841
0.75225830078125	0.0094390869140625	2610.19599840989
0.756683349609375	0.0094390869140625	2610.24024840978
0.7611083984375	0.009442138671875	2610.28449840967
0.765533447265625	0.009442138671875	2610.32874840955
0.76995849609375	0.009442138671875	2610.37299840944
0.774383544921875	0.009442138671875	2610.41724840933
0.77880859375	0.009442138671875	2610.46149840922
0.783233642578125	0.009442138671875	2610.50574840911
0.78765869140625	0.009442138671875	2610.54999840899
0.792083740234375	0.0094451904296875	2610.59424840888
0.7965087890625	0.0094451904296875	2610.63849840877
0.800933837890625	0.0094451904296875	2610.68274840866
0.80535888671875	0.0094482421875	2610.72699840855
0.809783935546875	0.0094512939453125	2610.77124840844
0.814208984375	0.009454345703125	2610.81549840832
0.818634033203125	0.0094573974609375	2610.85974840821
0.82305908203125	0.00946044921875	2610.9039984081
0.827484130859375	0.0094635009765625	2610.94824840799
0.8319091796875	0.009466552734375	2610.99249840788
0.836334228515625	0.00947265625	2611.03674840777
0.84075927734375	0.0094757080078125	2611.08099840765
0.845184326171875	0.0094818115234375	2611.12524840754
0.849609375	0.0094879150390625	2611.16949840743
0.854034423828125	0.0094970703125	2611.21374840732
0.85845947265625	0.009503173828125	2611.25799840721
0.862884521484375	0.0095123291015625	2611.3022484071
0.8673095703125	0.009521484375	2611.34649840698
0.871734619140625	0.00953369140625	2611.39074840687
0.87615966796875	0.0095428466796875	2611.43499840676
0.880584716796875	0.00955810546875	2611.47924840665
0.885009765625	0.0095703125	2611.52349840654
0.889434814453125	0.00958251953125	2611.56774840643
0.89385986328125	0.0095977783203125	2611.61199840631
0.898284912109375	0.009613037109375	2611.6562484062
0.9027099609375	0.00963134765625	2611.70049840609
0.907135009765625	0.009649658203125	2611.74474840598
0.91156005859375	0.00966796875	2611.78899840587
0.915985107421875	0.0096893310546875	2611.83324840576
0.92041015625	0.009710693359375	2611.87749840564
0.924835205078125	0.0097320556640625	2611.92174840553
0.92926025390625	0.0097564697265625	2611.96599840542
0.933685302734375	0.0097808837890625	2612.01024840531
0.9381103515625	0.0098114013671875	2612.0544984052
0.942535400390625	0.0098388671875	2612.09874840508
0.94696044921875	0.0098663330078125	2612.14299840497
0.951385498046875	0.0098968505859375	2612.18724840486
0.955810546875	0.009930419921875	2612.23149840475
0.960235595703125	0.0099639892578125	2612.27574840464
0.96466064453125	0.0100006103515625	2612.31999840453
0.969085693359375	0.0100372314453125	2612.36424840441
0.9735107421875	0.0100738525390625	2612.4084984043
0.977935791015625	0.010113525390625	2612.45274840419
0.98236083984375	0.0101531982421875	2612.49699840408
0.986785888671875	0.0101959228515625	2612.54124840397
0.9912109375	0.01024169921875	2612.58549840386
0.995635986328125	0.01029052734375	2612.62974840374
1.00006103515625	0.01033935546875	2612.67399840363
0.995635986328125	0.00963134765625	2612.71824840352
0.9912109375	0.0089630126953125	2612.76249840341
0.986785888671875	0.0083251953125	2612.8067484033
0.98236083984375	0.007720947265625	2612.85099840319
0.977935791015625	0.0071380615234375	2612.89524840307
0.9735107421875	0.00657958984375	2612.93949840296
0.969085693359375	0.0060455322265625	2612.98374840285
0.96466064453125	0.0055267333984375	2613.02799840274
0.960235595703125	0.0050323486328125	2613.07224840263
0.955810546875	0.00455352783203125	2613.11649840251
0.951385498046875	0.00409332275390625	2613.1607484024
0.94696044921875	0.003648681640625	2613.20499840229
0.942535400390625	0.0032196044921875	2613.24924840218
0.9381103515625	0.00280426025390625	2613.29349840207
0.933685302734375	0.00240234375	2613.33774840196
0.92926025390625	0.00201416015625	2613.38199840184
0.924835205078125	0.0016387939453125	2613.42624840173
0.92041015625	0.00127593994140625	2613.47049840162
0.915985107421875	0.00092529296875	2613.51474840151
0.91156005859375	0.0005853271484375	2613.5589984014
0.907135009765625	0.0002569580078125	2613.60324840129
0.9027099609375	-6.0943603515625E-05	2613.64749840117
0.898284912109375	-0.0003681640625	2613.69174840106
0.89385986328125	-0.0006658935546875	2613.73599840095
0.889434814453125	-0.0009539794921875	2613.78024840084
0.885009765625	-0.00123291015625	2613.82449840073
0.880584716796875	-0.001502685546875	2613.86874840062
0.87615966796875	-0.0017633056640625	2613.9129984005
0.871734619140625	-0.0020159912109375	2613.95724840039
0.8673095703125	-0.00225982666015625	2614.00149840028
0.862884521484375	-0.0024957275390625	2614.04574840017
0.85845947265625	-0.00272308349609375	2614.08999840006
0.854034423828125	-0.00294342041015625	2614.13424839995
0.849609375	-0.00315673828125	2614.17849839983
0.845184326171875	-0.00336212158203125	2614.22274839972
0.84075927734375	-0.0035614013671875	2614.26699839961
0.836334228515625	-0.00375335693359375	2614.3112483995
0.8319091796875	-0.0039385986328125	2614.35549839939
0.827484130859375	-0.00411651611328125	2614.39974839928
0.82305908203125	-0.0042901611328125	2614.44399839916
0.818634033203125	-0.00445648193359375	2614.48824839905
0.814208984375	-0.00461669921875	2614.53249839894
0.809783935546875	-0.0047711181640625	2614.57674839883
0.80535888671875	-0.0049200439453125	2614.62099839872
0.800933837890625	-0.0050640869140625	2614.6652483986
0.7965087890625	-0.00520294189453125	2614.70949839849
0.792083740234375	-0.0053363037109375	2614.75374839838
0.78765869140625	-0.00546478271484375	2614.79799839827
0.783233642578125	-0.00558807373046875	2614.84224839816
0.77880859375	-0.00570648193359375	2614.88649839805
0.774383544921875	-0.00582122802734375	2614.93074839793
0.76995849609375	-0.0059320068359375	2614.97499839782
0.765533447265625	-0.00603851318359375	2615.01924839771
0.7611083984375	-0.0061187744140625	2615.0634983976
0.756683349609375	-0.0062164306640625	2615.10774839749
0.75225830078125	-0.0063140869140625	2615.15199839738
0.747833251953125	-0.0064056396484375	2615.19624839726
0.743408203125	-0.006494140625	2615.24049839715
0.738983154296875	-0.00657958984375	2615.28474839704
0.73455810546875	-0.0066619873046875	2615.32899839693
0.730133056640625	-0.0067413330078125	2615.37324839682
0.7257080078125	-0.006817626953125	2615.41749839671
0.721282958984375	-0.0068939208984375	2615.46174839659
0.71685791015625	-0.006964111328125	2615.50599839648
0.712432861328125	-0.0070343017578125	2615.55024839637
0.7080078125	-0.007098388671875	2615.59449839626
0.703582763671875	-0.00716552734375	2615.63874839615
0.69915771484375	-0.0072265625	2615.68299839604
0.694732666015625	-0.00728759765625	2615.72724839592
0.6903076171875	-0.0073455810546875	2615.77149839581
0.685882568359375	-0.007403564453125	2615.8157483957
0.68145751953125	-0.00745849609375	2615.85999839559
0.677032470703125	-0.007513427734375	2615.90424839548
0.672607421875	-0.0075653076171875	2615.94849839536
0.668182373046875	-0.0076171875	2615.99274839525
0.66375732421875	-0.0076690673828125	2616.03699839514
0.659332275390625	-0.0077178955078125	2616.08124839503
0.6549072265625	-0.0077667236328125	2616.12549839492
0.650482177734375	-0.0078094482421875	2616.16974839481
0.64605712890625	-0.0078521728515625	2616.21399839469
0.641632080078125	-0.00789794921875	2616.25824839458
0.63720703125	-0.007940673828125	2616.30249839447
0.632781982421875	-0.0079803466796875	2616.34674839436
0.62835693359375	-0.0080230712890625	2616.39099839425
0.623931884765625	-0.0080657958984375	2616.43524839414
0.6195068359375	-0.00810546875	2616.47949839402
0.615081787109375	-0.0081451416015625	2616.52374839391
0.61065673828125	-0.0081817626953125	2616.5679983938
0.606231689453125	-0.0082183837890625	2616.61224839369
0.601806640625	-0.0082550048828125	2616.65649839358
0.597381591796875	-0.0082916259765625	2616.70074839347
0.59295654296875	-0.0083251953125	2616.74499839335
0.588531494140625	-0.00836181640625	2616.78924839324
0.5841064453125	-0.008392333984375	2616.83349839313
0.579681396484375	-0.0084259033203125	2616.87774839302
0.57525634765625	-0.00845947265625	2616.92199839291
0.570831298828125	-0.0084930419921875	2616.9662483928
0.56640625	-0.0085235595703125	2617.01049839268
0.561981201171875	-0.00855712890625	2617.05474839257
0.55755615234375	-0.008587646484375	2617.09899839246
0.553131103515625	-0.0086181640625	2617.14324839235
0.5487060546875	-0.0086517333984375	2617.18749839224
0.544281005859375	-0.00867919921875	2617.23174839213
0.53985595703125	-0.008709716796875	2617.27599839201
0.535430908203125	-0.008740234375	2617.3202483919
0.531005859375	-0.008770751953125	2617.36449839179
0.526580810546875	-0.00880126953125	2617.40874839168
0.52215576171875	-0.008831787109375	2617.45299839157
0.517730712890625	-0.0088623046875	2617.49724839145
0.5133056640625	-0.008892822265625	2617.54149839134
0.508880615234375	-0.0089202880859375	2617.58574839123
0.50445556640625	-0.0089508056640625	2617.62999839112
0.500030517578125	-0.008978271484375	2617.67424839101
0.49560546875	-0.0090057373046875	2617.7184983909
0.491180419921875	-0.0090362548828125	2617.76274839078
0.48675537109375	-0.009063720703125	2617.80699839067
0.482330322265625	-0.00909423828125	2617.85124839056
0.4779052734375	-0.0091217041015625	2617.89549839045
0.473480224609375	-0.009149169921875	2617.93974839034
0.46905517578125	-0.0091766357421875	2617.98399839023
0.464630126953125	-0.0092071533203125	2618.02824839011
0.460205078125	-0.009234619140625	2618.07249839
0.455780029296875	-0.00926513671875	2618.11674838989
0.45135498046875	-0.0092926025390625	2618.16099838978
0.446929931640625	-0.009320068359375	2618.20524838967
0.4425048828125	-0.0093475341796875	2618.24949838956
0.438079833984375	-0.009375	2618.29374838944
0.43365478515625	-0.0094024658203125	2618.33799838933
0.429229736328125	-0.009429931640625	2618.38224838922
0.4248046875	-0.00946044921875	2618.42649838911
0.420379638671875	-0.0094879150390625	2618.470748389
0.41595458984375	-0.0095184326171875	2618.51499838889
0.411529541015625	-0.0095458984375	2618.55924838877
0.4071044921875	-0.009576416015625	2618.60349838866
0.402679443359375	-0.00960693359375	2618.64774838855
0.39825439453125	-0.0096343994140625	2618.69199838844
0.393829345703125	-0.0096649169921875	2618.73624838833
0.389404296875	-0.0096923828125	2618.78049838821
0.384979248046875	-0.009722900390625	2618.8247483881
0.38055419921875	-0.0097503662109375	2618.86899838799
0.376129150390625	-0.0097808837890625	2618.91324838788
0.3717041015625	-0.0098114013671875	2618.95749838777
0.367279052734375	-0.0098419189453125	2619.00174838766
0.36285400390625	-0.0098724365234375	2619.04599838754
0.358428955078125	-0.0099029541015625	2619.09024838743
0.35400390625	-0.0099334716796875	2619.13449838732
0.349578857421875	-0.0099609375	2619.17874838721
0.34515380859375	-0.009991455078125	2619.2229983871
0.340728759765625	-0.01002197265625	2619.26724838699
0.3363037109375	-0.010052490234375	2619.31149838687
0.331878662109375	-0.0100830078125	2619.35574838676
0.32745361328125	-0.010113525390625	2619.39999838665
0.323028564453125	-0.01014404296875	2619.44424838654
0.318603515625	-0.010174560546875	2619.48849838643
0.314178466796875	-0.010205078125	2619.53274838632
0.30975341796875	-0.0102386474609375	2619.5769983862
0.305328369140625	-0.010272216796875	2619.62124838609
0.3009033203125	-0.010302734375	2619.66549838598
0.296478271484375	-0.010333251953125	2619.70974838587
0.29205322265625	-0.01036376953125	2619.75399838576
0.287628173828125	-0.0103973388671875	2619.79824838565
0.283203125	-0.0104278564453125	2619.84249838553
0.278778076171875	-0.01046142578125	2619.88674838542
0.27435302734375	-0.010491943359375	2619.93099838531
0.269927978515625	-0.0105255126953125	2619.9752483852
0.2655029296875	-0.01055908203125	2620.01949838509
0.261077880859375	-0.010589599609375	2620.06374838498
0.25665283203125	-0.0106201171875	2620.10799838486
0.252227783203125	-0.0106536865234375	2620.15224838475
0.247802734375	-0.010687255859375	2620.19649838464
0.243377685546875	-0.0107177734375	2620.24074838453
0.23895263671875	-0.0107513427734375	2620.28499838442
0.234527587890625	-0.010784912109375	2620.3292483843
0.2301025390625	-0.0108154296875	2620.37349838419
0.225677490234375	-0.0108489990234375	2620.41774838408
0.22125244140625	-0.0108795166015625	2620.46199838397
0.216827392578125	-0.0109130859375	2620.50624838386
0.21240234375	-0.010943603515625	2620.55049838375
0.207977294921875	-0.0109771728515625	2620.59474838363
0.20355224609375	-0.0110107421875	2620.63899838352
0.199127197265625	-0.0110443115234375	2620.68324838341
0.1947021484375	-0.011077880859375	2620.7274983833
0.190277099609375	-0.0111114501953125	2620.77174838319
0.18585205078125	-0.01114501953125	2620.81599838308
0.181427001953125	-0.0111785888671875	2620.86024838296
0.177001953125	-0.0112152099609375	2620.90449838285
0.172576904296875	-0.011248779296875	2620.94874838274
0.16815185546875	-0.0112884521484375	2620.99299838263
0.163726806640625	-0.011322021484375	2621.03724838252
0.1593017578125	-0.011358642578125	2621.08149838241
0.154876708984375	-0.011395263671875	2621.12574838229
0.15045166015625	-0.0114288330078125	2621.16999838218
0.146026611328125	-0.011468505859375	2621.21424838207
0.1416015625	-0.011505126953125	2621.25849838196
0.137176513671875	-0.011541748046875	2621.30274838185
0.13275146484375	-0.0115753173828125	2621.34699838173
0.128326416015625	-0.011614990234375	2621.39124838162
0.1239013671875	-0.01165771484375	2621.43549838151
0.119476318359375	-0.0116943359375	2621.4797483814
0.11505126953125	-0.0117340087890625	2621.52399838129
0.110626220703125	-0.011773681640625	2621.56824838118
0.106201171875	-0.0118133544921875	2621.61249838106
0.101776123046875	-0.01185302734375	2621.65674838095
0.09735107421875	-0.0118927001953125	2621.70099838084
0.092926025390625	-0.0119354248046875	2621.74524838073
0.0885009765625	-0.0119781494140625	2621.78949838062
0.084075927734375	-0.0120208740234375	2621.83374838051
0.07965087890625	-0.012066650390625	2621.87799838039
0.075225830078125	-0.0121063232421875	2621.92224838028
0.07080078125	-0.0121490478515625	2621.96649838017
0.066375732421875	-0.01219482421875	2622.01074838006
0.06195068359375	-0.0122406005859375	2622.05499837995
0.057525634765625	-0.0122833251953125	2622.09924837984
0.0531005859375	-0.0123321533203125	2622.14349837972
0.048675537109375	-0.0123748779296875	2622.18774837961
0.04425048828125	-0.012420654296875	2622.2319983795
0.039825439453125	-0.012469482421875	2622.27624837939
0.035400390625	-0.0125152587890625	2622.32049837928
0.030975341796875	-0.0125640869140625	2622.36474837917
0.02655029296875	-0.0126129150390625	2622.40899837905
0.022125244140625	-0.0126617431640625	2622.45324837894
0.0177001953125	-0.012713623046875	2622.49749837883
0.013275146484375	-0.012762451171875	2622.54174837872
0.00885009765625	-0.0128143310546875	2622.58599837861
0.004425048828125	-0.0128662109375	2622.6302483785
0	-0.0129150390625	2622.67449837838
0.004425048828125	-0.01219482421875	2622.71874837827
0.00885009765625	-0.011505126953125	2622.76299837816
0.013275146484375	-0.0108428955078125	2622.80724837805
0.0177001953125	-0.0102020263671875	2622.85149837794
0.022125244140625	-0.0095794677734375	2622.89574837782
0.02655029296875	-0.0089813232421875	2622.93999837771
0.030975341796875	-0.0083984375	2622.9842483776
0.035400390625	-0.0078338623046875	2623.02849837749
0.039825439453125	-0.00728759765625	2623.07274837738
0.04425048828125	-0.006756591796875	2623.11699837727
0.048675537109375	-0.0062408447265625	2623.16124837715
0.0531005859375	-0.0057373046875	2623.20549837704
0.057525634765625	-0.0052490234375	2623.24974837693
0.06195068359375	-0.00477386474609375	2623.29399837682
0.066375732421875	-0.00431121826171875	2623.33824837671
0.07080078125	-0.00386138916015625	2623.3824983766
0.075225830078125	-0.00342254638671875	2623.42674837648
0.07965087890625	-0.00299591064453125	2623.47099837637
0.084075927734375	-0.00259063720703125	2623.51524837626
0.0885009765625	-0.00218475341796875	2623.55949837615
0.092926025390625	-0.0017889404296875	2623.60374837604
0.09735107421875	-0.00140289306640625	2623.64799837593
0.101776123046875	-0.001026611328125	2623.69224837581
0.106201171875	-0.000660400390625	2623.7364983757
0.110626220703125	-0.000303009033203125	2623.78074837559
0.11505126953125	4.5257568359375E-05	2623.82499837548
0.119476318359375	0.000382598876953125	2623.86924837537
0.1239013671875	0.000714111328125	2623.91349837526
0.128326416015625	0.00103668212890625	2623.95774837514
0.13275146484375	0.00135162353515625	2624.00199837503
0.137176513671875	0.00165802001953125	2624.04624837492
0.1416015625	0.00195709228515625	2624.09049837481
0.146026611328125	0.00224853515625	2624.1347483747
0.15045166015625	0.00253265380859375	2624.17899837458
0.154876708984375	0.00281036376953125	2624.22324837447
0.1593017578125	0.00307952880859375	2624.26749837436
0.163726806640625	0.00334259033203125	2624.31174837425
0.16815185546875	0.00359832763671875	2624.35599837414
0.172576904296875	0.0038470458984375	2624.40024837403
0.177001953125	0.00408935546875	2624.44449837391
0.181427001953125	0.00432525634765625	2624.4887483738
0.18585205078125	0.004554443359375	2624.53299837369
0.190277099609375	0.004779052734375	2624.57724837358
0.1947021484375	0.00499664306640625	2624.62149837347
0.199127197265625	0.00520721435546875	2624.66574837336
0.20355224609375	0.005413818359375	2624.70999837324
0.207977294921875	0.00561370849609375	2624.75424837313
0.21240234375	0.00580810546875	2624.79849837302
0.216827392578125	0.005997314453125	2624.84274837291
0.22125244140625	0.0061810302734375	2624.8869983728
0.225677490234375	0.00634765625	2624.93124837269
0.2301025390625	0.006524658203125	2624.97549837257
0.234527587890625	0.006689453125	2625.01974837246
0.23895263671875	0.006854248046875	2625.06399837235
0.243377685546875	0.007012939453125	2625.10824837224
0.247802734375	0.0071624755859375	2625.15249837213
0.252227783203125	0.00731201171875	2625.19674837202
0.25665283203125	0.0074554443359375	2625.2409983719
0.261077880859375	0.0075927734375	2625.28524837179
0.2655029296875	0.00772705078125	2625.32949837168
0.269927978515625	0.007855224609375	2625.37374837157
0.27435302734375	0.0079803466796875	2625.41799837146
0.278778076171875	0.0081024169921875	2625.46224837135
0.283203125	0.0082183837890625	2625.50649837123
0.287628173828125	0.0083343505859375	2625.55074837112
0.29205322265625	0.0084442138671875	2625.59499837101
0.296478271484375	0.0085479736328125	2625.6392483709
0.3009033203125	0.008648681640625	2625.68349837079
0.305328369140625	0.008746337890625	2625.72774837067
0.30975341796875	0.0088409423828125	2625.77199837056
0.314178466796875	0.0089324951171875	2625.81624837045
0.318603515625	0.00902099609375	2625.86049837034
0.323028564453125	0.0091033935546875	2625.90474837023
0.32745361328125	0.009185791015625	2625.94899837012
0.331878662109375	0.0092620849609375	2625.99324837
0.3363037109375	0.0093353271484375	2626.03749836989
0.340728759765625	0.0094085693359375	2626.08174836978
0.34515380859375	0.009478759765625	2626.12599836967
0.349578857421875	0.0095428466796875	2626.17024836956
0.35400390625	0.0096038818359375	2626.21449836945
0.358428955078125	0.0096649169921875	2626.25874836933
0.36285400390625	0.009722900390625	2626.30299836922
0.367279052734375	0.00977783203125	2626.34724836911
0.3717041015625	0.009832763671875	2626.391498369
0.376129150390625	0.009881591796875	2626.43574836889
0.38055419921875	0.0099273681640625	2626.47999836878
0.384979248046875	0.00997314453125	2626.52424836866
0.389404296875	0.0100128173828125	2626.56849836855
0.393829345703125	0.010052490234375	2626.61274836844
0.39825439453125	0.0100921630859375	2626.65699836833
0.402679443359375	0.010125732421875	2626.70124836822
0.4071044921875	0.010162353515625	2626.74549836811
0.411529541015625	0.0101959228515625	2626.78974836799
0.41595458984375	0.0102264404296875	2626.83399836788
0.420379638671875	0.0102569580078125	2626.87824836777
0.4248046875	0.010284423828125	2626.92249836766
0.429229736328125	0.010308837890625	2626.96674836755
0.43365478515625	0.010333251953125	2627.01099836743
0.438079833984375	0.0103546142578125	2627.05524836732
0.4425048828125	0.0103759765625	2627.09949836721
0.446929931640625	0.0103973388671875	2627.1437483671
0.45135498046875	0.0104156494140625	2627.18799836699
0.455780029296875	0.010430908203125	2627.23224836688
0.460205078125	0.0104461669921875	2627.27649836676
0.464630126953125	0.0104583740234375	2627.32074836665
0.46905517578125	0.0104736328125	2627.36499836654
0.473480224609375	0.0104827880859375	2627.40924836643
0.4779052734375	0.0104949951171875	2627.45349836632
0.482330322265625	0.010504150390625	2627.49774836621
0.48675537109375	0.01051025390625	2627.54199836609
0.491180419921875	0.010516357421875	2627.58624836598
0.49560546875	0.0105255126953125	2627.63049836587
0.500030517578125	0.0105316162109375	2627.67474836576
0.50445556640625	0.01053466796875	2627.71899836565
0.508880615234375	0.0105377197265625	2627.76324836554
0.5133056640625	0.0105377197265625	2627.80749836542
0.517730712890625	0.010540771484375	2627.85174836531
0.52215576171875	0.010540771484375	2627.8959983652
0.526580810546875	0.010540771484375	2627.94024836509
0.531005859375	0.010540771484375	2627.98449836498
0.535430908203125	0.010540771484375	2628.02874836487
0.53985595703125	0.0105377197265625	2628.07299836475
0.544281005859375	0.01053466796875	2628.11724836464
0.5487060546875	0.0105316162109375	2628.16149836453
0.553131103515625	0.010528564453125	2628.20574836442
0.55755615234375	0.0105224609375	2628.24999836431
0.561981201171875	0.0105194091796875	2628.2942483642
0.56640625	0.0105133056640625	2628.33849836408
0.570831298828125	0.0105072021484375	2628.38274836397
0.57525634765625	0.0105010986328125	2628.42699836386
0.579681396484375	0.0104949951171875	2628.47124836375
0.5841064453125	0.0104888916015625	2628.51549836364
0.588531494140625	0.010479736328125	2628.55974836352
0.59295654296875	0.0104736328125	2628.60399836341
0.597381591796875	0.0104644775390625	2628.6482483633
0.601806640625	0.010455322265625	2628.69249836319
0.606231689453125	0.01044921875	2628.73674836308
0.61065673828125	0.01043701171875	2628.78099836297
0.615081787109375	0.010430908203125	2628.82524836285
0.6195068359375	0.0104217529296875	2628.86949836274
0.623931884765625	0.01041259765625	2628.91374836263
0.62835693359375	0.0104034423828125	2628.95799836252
0.632781982421875	0.0103973388671875	2629.00224836241
0.63720703125	0.010382080078125	2629.0464983623
0.641632080078125	0.0103729248046875	2629.09074836218
0.64605712890625	0.01036376953125	2629.13499836207
0.650482177734375	0.0103485107421875	2629.17924836196
0.6549072265625	0.01033935546875	2629.22349836185
0.659332275390625	0.0103271484375	2629.26774836174
0.66375732421875	0.0103179931640625	2629.31199836163
0.668182373046875	0.0103057861328125	2629.35624836151
0.672607421875	0.0102935791015625	2629.4004983614
0.677032470703125	0.0102813720703125	2629.44474836129
0.68145751953125	0.0102691650390625	2629.48899836118
0.685882568359375	0.0102569580078125	2629.53324836107
0.6903076171875	0.010247802734375	2629.57749836095
0.694732666015625	0.010235595703125	2629.62174836084
0.69915771484375	0.010223388671875	2629.66599836073
0.703582763671875	0.0102081298828125	2629.71024836062
0.7080078125	0.0101959228515625	2629.75449836051
0.712432861328125	0.0101837158203125	2629.7987483604
0.71685791015625	0.010174560546875	2629.84299836028
0.721282958984375	0.010162353515625	2629.88724836017
0.7257080078125	0.0101531982421875	2629.93149836006
0.730133056640625	0.0101409912109375	2629.97574835995
0.73455810546875	0.0101287841796875	2630.01999835984
0.738983154296875	0.01011962890625	2630.06424835973
0.743408203125	0.010107421875	2630.10849835961
0.747833251953125	0.0100982666015625	2630.1527483595
0.75225830078125	0.0100860595703125	2630.19699835939
0.756683349609375	0.010076904296875	2630.24124835928
0.7611083984375	0.01007080078125	2630.28549835917
0.765533447265625	0.0100616455078125	2630.32974835906
0.76995849609375	0.0100555419921875	2630.37399835894
0.774383544921875	0.01004638671875	2630.41824835883
0.77880859375	0.0100372314453125	2630.46249835872
0.783233642578125	0.0100341796875	2630.50674835861
0.78765869140625	0.010028076171875	2630.5509983585
0.792083740234375	0.01002197265625	2630.59524835839
0.7965087890625	0.0100128173828125	2630.63949835827
0.800933837890625	0.010009765625	2630.68374835816
0.80535888671875	0.010003662109375	2630.72799835805
0.809783935546875	0.0100006103515625	2630.77224835794
0.814208984375	0.00999755859375	2630.81649835783
0.818634033203125	0.0099945068359375	2630.86074835772
0.82305908203125	0.009991455078125	2630.9049983576
0.827484130859375	0.009991455078125	2630.94924835749
0.8319091796875	0.009991455078125	2630.99349835738
0.836334228515625	0.009991455078125	2631.03774835727
0.84075927734375	0.0099945068359375	2631.08199835716
0.845184326171875	0.0099945068359375	2631.12624835704
0.849609375	0.00999755859375	2631.17049835693
0.854034423828125	0.0100006103515625	2631.21474835682
0.85845947265625	0.010003662109375	2631.25899835671
0.862884521484375	0.010009765625	2631.3032483566
0.8673095703125	0.010015869140625	2631.34749835649
0.871734619140625	0.01002197265625	2631.39174835637
0.87615966796875	0.0100311279296875	2631.43599835626
0.880584716796875	0.010040283203125	2631.48024835615
0.885009765625	0.0100494384765625	2631.52449835604
0.889434814453125	0.0100616455078125	2631.56874835593
0.89385986328125	0.0100738525390625	2631.61299835582
0.898284912109375	0.0100860595703125	2631.6572483557
0.9027099609375	0.010101318359375	2631.70149835559
0.907135009765625	0.0101165771484375	2631.74574835548
0.91156005859375	0.0101318359375	2631.78999835537
0.915985107421875	0.010150146484375	2631.83424835526
0.92041015625	0.01016845703125	2631.87849835515
0.924835205078125	0.0101898193359375	2631.92274835503
0.92926025390625	0.010211181640625	2631.96699835492
0.933685302734375	0.0102325439453125	2632.01124835481
0.9381103515625	0.010260009765625	2632.0554983547
0.942535400390625	0.010284423828125	2632.09974835459
0.94696044921875	0.0103118896484375	2632.14399835448
0.951385498046875	0.0103424072265625	2632.18824835436
0.955810546875	0.010369873046875	2632.23249835425
0.960235595703125	0.0104034423828125	2632.27674835414
0.96466064453125	0.0104339599609375	2632.32099835403
0.969085693359375	0.0104705810546875	2632.36524835392
0.9735107421875	0.01051025390625	2632.4094983538
0.977935791015625	0.010546875	2632.45374835369
0.98236083984375	0.01058349609375	2632.49799835358
0.986785888671875	0.010626220703125	2632.54224835347
0.9912109375	0.0106719970703125	2632.58649835336
0.995635986328125	0.0107177734375	2632.63074835325
1.00006103515625	0.0107635498046875	2632.67499835313
0.995635986328125	0.010052490234375	2632.71924835302
0.9912109375	0.009381103515625	2632.76349835291
0.986785888671875	0.0087432861328125	2632.8077483528
0.98236083984375	0.0081329345703125	2632.85199835269
0.977935791015625	0.0075469970703125	2632.89624835258
0.9735107421875	0.006988525390625	2632.94049835246
0.969085693359375	0.0064453125	2632.98474835235
0.96466064453125	0.005926513671875	2633.02899835224
0.960235595703125	0.005426025390625	2633.07324835213
0.955810546875	0.00494293212890625	2633.11749835202
0.951385498046875	0.004476318359375	2633.16174835191
0.94696044921875	0.00402679443359375	2633.20599835179
0.942535400390625	0.00359222412109375	2633.25024835168
0.9381103515625	0.0031719970703125	2633.29449835157
0.933685302734375	0.002764892578125	2633.33874835146
0.92926025390625	0.0023712158203125	2633.38299835135
0.924835205078125	0.00199066162109375	2633.42724835124
0.92041015625	0.0016217041015625	2633.47149835112
0.915985107421875	0.00126495361328125	2633.51574835101
0.91156005859375	0.0009197998046875	2633.5599983509
0.907135009765625	0.00058502197265625	2633.60424835079
0.9027099609375	0.0002606201171875	2633.64849835068
0.898284912109375	-5.28564453125E-05	2633.69274835057
0.89385986328125	-0.0003568115234375	2633.73699835045
0.889434814453125	-0.00065093994140625	2633.78124835034
0.885009765625	-0.0009356689453125	2633.82549835023
0.880584716796875	-0.00121185302734375	2633.86974835012
0.87615966796875	-0.00147857666015625	2633.91399835001
0.871734619140625	-0.001737060546875	2633.95824834989
0.8673095703125	-0.0019873046875	2634.00249834978
0.862884521484375	-0.0022296142578125	2634.04674834967
0.85845947265625	-0.0024627685546875	2634.09099834956
0.854034423828125	-0.00268890380859375	2634.13524834945
0.849609375	-0.00290863037109375	2634.17949834934
0.845184326171875	-0.00312042236328125	2634.22374834922
0.84075927734375	-0.00332489013671875	2634.26799834911
0.836334228515625	-0.00352294921875	2634.312248349
0.8319091796875	-0.0037139892578125	2634.35649834889
0.827484130859375	-0.0038983154296875	2634.40074834878
0.82305908203125	-0.0040765380859375	2634.44499834867
0.818634033203125	-0.004248046875	2634.48924834855
0.814208984375	-0.0044146728515625	2634.53349834844
0.809783935546875	-0.00457366943359375	2634.57774834833
0.80535888671875	-0.00472900390625	2634.62199834822
0.800933837890625	-0.00487823486328125	2634.66624834811
0.7965087890625	-0.00502105712890625	2634.710498348
0.792083740234375	-0.005159912109375	2634.75474834788
0.78765869140625	-0.00529296875	2634.79899834777
0.783233642578125	-0.00542083740234375	2634.84324834766
0.77880859375	-0.0055450439453125	2634.88749834755
0.774383544921875	-0.00566436767578125	2634.93174834744
0.76995849609375	-0.0057794189453125	2634.97599834733
0.765533447265625	-0.0058905029296875	2635.02024834721
0.7611083984375	-0.00599700927734375	2635.0644983471
0.756683349609375	-0.00610107421875	2635.10874834699
0.75225830078125	-0.0061798095703125	2635.15299834688
0.747833251953125	-0.0062744140625	2635.19724834677
0.743408203125	-0.006365966796875	2635.24149834665
0.738983154296875	-0.006451416015625	2635.28574834654
0.73455810546875	-0.0065399169921875	2635.32999834643
0.730133056640625	-0.006622314453125	2635.37424834632
0.7257080078125	-0.00670166015625	2635.41849834621
0.721282958984375	-0.0067779541015625	2635.4627483461
0.71685791015625	-0.006854248046875	2635.50699834598
0.712432861328125	-0.006927490234375	2635.55124834587
0.7080078125	-0.0069976806640625	2635.59549834576
0.703582763671875	-0.0070648193359375	2635.63974834565
0.69915771484375	-0.00712890625	2635.68399834554
0.694732666015625	-0.0071929931640625	2635.72824834543
0.6903076171875	-0.0072540283203125	2635.77249834531
0.685882568359375	-0.00731201171875	2635.8167483452
0.68145751953125	-0.007366943359375	2635.86099834509
0.677032470703125	-0.007421875	2635.90524834498
0.672607421875	-0.0074798583984375	2635.94949834487
0.668182373046875	-0.00753173828125	2635.99374834476
0.66375732421875	-0.00758056640625	2636.03799834464
0.659332275390625	-0.0076324462890625	2636.08224834453
0.6549072265625	-0.0076812744140625	2636.12649834442
0.650482177734375	-0.0077301025390625	2636.17074834431
0.64605712890625	-0.0077789306640625	2636.2149983442
0.641632080078125	-0.0078216552734375	2636.25924834409
0.63720703125	-0.0078643798828125	2636.30349834397
0.632781982421875	-0.0079071044921875	2636.34774834386
0.62835693359375	-0.0079498291015625	2636.39199834375
0.623931884765625	-0.00799560546875	2636.43624834364
0.6195068359375	-0.0080352783203125	2636.48049834353
0.615081787109375	-0.008074951171875	2636.52474834342
0.61065673828125	-0.0081146240234375	2636.5689983433
0.606231689453125	-0.0081512451171875	2636.61324834319
0.601806640625	-0.0081878662109375	2636.65749834308
0.597381591796875	-0.0082275390625	2636.70174834297
0.59295654296875	-0.0082611083984375	2636.74599834286
0.588531494140625	-0.0082977294921875	2636.79024834274
0.5841064453125	-0.008331298828125	2636.83449834263
0.579681396484375	-0.0083648681640625	2636.87874834252
0.57525634765625	-0.0083984375	2636.92299834241
0.570831298828125	-0.0084320068359375	2636.9672483423
0.56640625	-0.008465576171875	2637.01149834219
0.561981201171875	-0.0084991455078125	2637.05574834207
0.55755615234375	-0.0085296630859375	2637.09999834196
0.553131103515625	-0.008563232421875	2637.14424834185
0.5487060546875	-0.00859375	2637.18849834174
0.544281005859375	-0.008624267578125	2637.23274834163
0.53985595703125	-0.00865478515625	2637.27699834152
0.535430908203125	-0.008685302734375	2637.3212483414
0.531005859375	-0.0087127685546875	2637.36549834129
0.526580810546875	-0.0087432861328125	2637.40974834118
0.52215576171875	-0.00877685546875	2637.45399834107
0.517730712890625	-0.008807373046875	2637.49824834096
0.5133056640625	-0.0088348388671875	2637.54249834085
0.508880615234375	-0.0088653564453125	2637.58674834073
0.50445556640625	-0.0088958740234375	2637.63099834062
0.500030517578125	-0.00892333984375	2637.67524834051
0.49560546875	-0.008953857421875	2637.7194983404
0.491180419921875	-0.008984375	2637.76374834029
0.48675537109375	-0.0090118408203125	2637.80799834017
0.482330322265625	-0.0090423583984375	2637.85224834006
0.4779052734375	-0.0090728759765625	2637.89649833995
0.473480224609375	-0.009100341796875	2637.94074833984
0.46905517578125	-0.0091278076171875	2637.98499833973
0.464630126953125	-0.0091583251953125	2638.02924833962
0.460205078125	-0.009185791015625	2638.0734983395
0.455780029296875	-0.00921630859375	2638.11774833939
0.45135498046875	-0.00924072265625	2638.16199833928
0.446929931640625	-0.009271240234375	2638.20624833917
0.4425048828125	-0.0092987060546875	2638.25049833906
0.438079833984375	-0.0093292236328125	2638.29474833895
0.43365478515625	-0.009356689453125	2638.33899833883
0.429229736328125	-0.0093841552734375	2638.38324833872
0.4248046875	-0.00941162109375	2638.42749833861
0.420379638671875	-0.009442138671875	2638.4717483385
0.41595458984375	-0.0094696044921875	2638.51599833839
0.411529541015625	-0.0095001220703125	2638.56024833828
0.4071044921875	-0.009527587890625	2638.60449833816
0.402679443359375	-0.00955810546875	2638.64874833805
0.39825439453125	-0.009588623046875	2638.69299833794
0.393829345703125	-0.009619140625	2638.73724833783
0.389404296875	-0.0096466064453125	2638.78149833772
0.384979248046875	-0.009674072265625	2638.82574833761
0.38055419921875	-0.00970458984375	2638.86999833749
0.376129150390625	-0.009735107421875	2638.91424833738
0.3717041015625	-0.0097625732421875	2638.95849833727
0.367279052734375	-0.0097930908203125	2639.00274833716
0.36285400390625	-0.0098236083984375	2639.04699833705
0.358428955078125	-0.0098541259765625	2639.09124833694
0.35400390625	-0.0098846435546875	2639.13549833682
0.349578857421875	-0.009912109375	2639.17974833671
0.34515380859375	-0.009942626953125	2639.2239983366
0.340728759765625	-0.00997314453125	2639.26824833649
0.3363037109375	-0.010003662109375	2639.31249833638
0.331878662109375	-0.0100372314453125	2639.35674833626
0.32745361328125	-0.0100677490234375	2639.40099833615
0.323028564453125	-0.0100982666015625	2639.44524833604
0.318603515625	-0.0101287841796875	2639.48949833593
0.314178466796875	-0.0101593017578125	2639.53374833582
0.30975341796875	-0.01019287109375	2639.57799833571
0.305328369140625	-0.010223388671875	2639.62224833559
0.3009033203125	-0.01025390625	2639.66649833548
0.296478271484375	-0.0102874755859375	2639.71074833537
0.29205322265625	-0.01031494140625	2639.75499833526
0.287628173828125	-0.0103485107421875	2639.79924833515
0.283203125	-0.0103790283203125	2639.84349833504
0.278778076171875	-0.01041259765625	2639.88774833492
0.27435302734375	-0.010443115234375	2639.93199833481
0.269927978515625	-0.0104736328125	2639.9762483347
0.2655029296875	-0.0105072021484375	2640.02049833459
0.261077880859375	-0.0105377197265625	2640.06474833448
0.25665283203125	-0.0105712890625	2640.10899833437
0.252227783203125	-0.010601806640625	2640.15324833425
0.247802734375	-0.0106353759765625	2640.19749833414
0.243377685546875	-0.0106658935546875	2640.24174833403
0.23895263671875	-0.010699462890625	2640.28599833392
0.234527587890625	-0.0107330322265625	2640.33024833381
0.2301025390625	-0.0107635498046875	2640.3744983337
0.225677490234375	-0.010797119140625	2640.41874833358
0.22125244140625	-0.01082763671875	2640.46299833347
0.216827392578125	-0.0108612060546875	2640.50724833336
0.21240234375	-0.010894775390625	2640.55149833325
0.207977294921875	-0.01092529296875	2640.59574833314
0.20355224609375	-0.010955810546875	2640.63999833302
0.199127197265625	-0.0109893798828125	2640.68424833291
0.1947021484375	-0.01102294921875	2640.7284983328
0.190277099609375	-0.0110565185546875	2640.77274833269
0.18585205078125	-0.0110931396484375	2640.81699833258
0.181427001953125	-0.0111236572265625	2640.86124833247
0.177001953125	-0.0111572265625	2640.90549833235
0.172576904296875	-0.01119384765625	2640.94974833224
0.16815185546875	-0.0112274169921875	2640.99399833213
0.163726806640625	-0.011260986328125	2641.03824833202
0.1593017578125	-0.011297607421875	2641.08249833191
0.154876708984375	-0.011334228515625	2641.1267483318
0.15045166015625	-0.011370849609375	2641.17099833168
0.146026611328125	-0.0114044189453125	2641.21524833157
0.1416015625	-0.011444091796875	2641.25949833146
0.137176513671875	-0.0114776611328125	2641.30374833135
0.13275146484375	-0.011517333984375	2641.34799833124
0.128326416015625	-0.011553955078125	2641.39224833113
0.1239013671875	-0.011590576171875	2641.43649833101
0.119476318359375	-0.011627197265625	2641.4807483309
0.11505126953125	-0.0116668701171875	2641.52499833079
0.110626220703125	-0.011700439453125	2641.56924833068
0.106201171875	-0.0117401123046875	2641.61349833057
0.101776123046875	-0.01177978515625	2641.65774833046
0.09735107421875	-0.0118194580078125	2641.70199833034
0.092926025390625	-0.0118560791015625	2641.74624833023
0.0885009765625	-0.011895751953125	2641.79049833012
0.084075927734375	-0.0119384765625	2641.83474833001
0.07965087890625	-0.0119781494140625	2641.8789983299
0.075225830078125	-0.0120208740234375	2641.92324832979
0.07080078125	-0.0120635986328125	2641.96749832967
0.066375732421875	-0.0121063232421875	2642.01174832956
0.06195068359375	-0.0121490478515625	2642.05599832945
0.057525634765625	-0.01219482421875	2642.10024832934
0.0531005859375	-0.012237548828125	2642.14449832923
0.048675537109375	-0.0122772216796875	2642.18874832911
0.04425048828125	-0.012322998046875	2642.232998329
0.039825439453125	-0.0123687744140625	2642.27724832889
0.035400390625	-0.01241455078125	2642.32149832878
0.030975341796875	-0.0124603271484375	2642.36574832867
0.02655029296875	-0.0125030517578125	2642.40999832856
0.022125244140625	-0.0125518798828125	2642.45424832844
0.0177001953125	-0.0126007080078125	2642.49849832833
0.013275146484375	-0.0126495361328125	2642.54274832822
0.00885009765625	-0.0126983642578125	2642.58699832811
0.004425048828125	-0.0127471923828125	2642.631248328
0	-0.012799072265625	2642.67549832789
0.004425048828125	-0.0120758056640625	2642.71974832777
0.00885009765625	-0.011383056640625	2642.76399832766
0.013275146484375	-0.0107208251953125	2642.80824832755
0.0177001953125	-0.010076904296875	2642.85249832744
0.022125244140625	-0.009454345703125	2642.89674832733
0.02655029296875	-0.0088531494140625	2642.94099832722
0.030975341796875	-0.0082733154296875	2642.9852483271
0.035400390625	-0.0077117919921875	2643.02949832699
0.039825439453125	-0.0071624755859375	2643.07374832688
0.04425048828125	-0.00662841796875	2643.11799832677
0.048675537109375	-0.0061126708984375	2643.16224832666
0.0531005859375	-0.005609130859375	2643.20649832654
0.057525634765625	-0.005120849609375	2643.25074832643
0.06195068359375	-0.00464752197265625	2643.29499832632
0.066375732421875	-0.00418548583984375	2643.33924832621
0.07080078125	-0.00373626708984375	2643.3834983261
0.075225830078125	-0.0032977294921875	2643.42774832599
0.07965087890625	-0.00287322998046875	2643.47199832587
0.084075927734375	-0.00246795654296875	2643.51624832576
0.0885009765625	-0.00206298828125	2643.56049832565
0.092926025390625	-0.00166778564453125	2643.60474832554
0.09735107421875	-0.0012835693359375	2643.64899832543
0.101776123046875	-0.0009088134765625	2643.69324832532
0.106201171875	-0.00054351806640625	2643.7374983252
0.110626220703125	-0.0001876220703125	2643.78174832509
0.11505126953125	0.00015936279296875	2643.82599832498
0.119476318359375	0.00049530029296875	2643.87024832487
0.1239013671875	0.00082489013671875	2643.91449832476
0.128326416015625	0.00114654541015625	2643.95874832465
0.13275146484375	0.0014599609375	2644.00299832453
0.137176513671875	0.00176513671875	2644.04724832442
0.1416015625	0.00206268310546875	2644.09149832431
0.146026611328125	0.0023529052734375	2644.1357483242
0.15045166015625	0.00263580322265625	2644.17999832409
0.154876708984375	0.00291229248046875	2644.22424832398
0.1593017578125	0.0031793212890625	2644.26849832386
0.163726806640625	0.00344085693359375	2644.31274832375
0.16815185546875	0.003695068359375	2644.35699832364
0.172576904296875	0.00394317626953125	2644.40124832353
0.177001953125	0.004183349609375	2644.44549832342
0.181427001953125	0.0044183349609375	2644.48974832331
0.18585205078125	0.00464630126953125	2644.53399832319
0.190277099609375	0.00486785888671875	2644.57824832308
0.1947021484375	0.0050836181640625	2644.62249832297
0.199127197265625	0.00529388427734375	2644.66674832286
0.20355224609375	0.005498046875	2644.71099832275
0.207977294921875	0.0056964111328125	2644.75524832263
0.21240234375	0.005889892578125	2644.79949832252
0.216827392578125	0.00607666015625	2644.84374832241
0.22125244140625	0.00625	2644.8879983223
0.225677490234375	0.006427001953125	2644.93224832219
0.2301025390625	0.006597900390625	2644.97649832208
0.234527587890625	0.0067657470703125	2645.02074832196
0.23895263671875	0.0069244384765625	2645.06499832185
0.243377685546875	0.007080078125	2645.10924832174
0.247802734375	0.007232666015625	2645.15349832163
0.252227783203125	0.007379150390625	2645.19774832152
0.25665283203125	0.00751953125	2645.24199832141
0.261077880859375	0.0076568603515625	2645.28624832129
0.2655029296875	0.0077911376953125	2645.33049832118
0.269927978515625	0.007916259765625	2645.37474832107
0.27435302734375	0.0080413818359375	2645.41899832096
0.278778076171875	0.008160400390625	2645.46324832085
0.283203125	0.0082763671875	2645.50749832074
0.287628173828125	0.0083892822265625	2645.55174832062
0.29205322265625	0.0084991455078125	2645.59599832051
0.296478271484375	0.008599853515625	2645.6402483204
0.3009033203125	0.0087005615234375	2645.68449832029
0.305328369140625	0.008795166015625	2645.72874832018
0.30975341796875	0.0088897705078125	2645.77299832007
0.314178466796875	0.0089813232421875	2645.81724831995
0.318603515625	0.0090667724609375	2645.86149831984
0.323028564453125	0.009149169921875	2645.90574831973
0.32745361328125	0.009228515625	2645.94999831962
0.331878662109375	0.0093048095703125	2645.99424831951
0.3363037109375	0.0093780517578125	2646.03849831939
0.340728759765625	0.0094482421875	2646.08274831928
0.34515380859375	0.009515380859375	2646.12699831917
0.349578857421875	0.00958251953125	2646.17124831906
0.35400390625	0.0096435546875	2646.21549831895
0.358428955078125	0.0097015380859375	2646.25974831884
0.36285400390625	0.0097564697265625	2646.30399831872
0.367279052734375	0.0098114013671875	2646.34824831861
0.3717041015625	0.00986328125	2646.3924983185
0.376129150390625	0.009912109375	2646.43674831839
0.38055419921875	0.0099578857421875	2646.48099831828
0.384979248046875	0.0100006103515625	2646.52524831817
0.389404296875	0.010040283203125	2646.56949831805
0.393829345703125	0.0100799560546875	2646.61374831794
0.39825439453125	0.0101165771484375	2646.65799831783
0.402679443359375	0.0101531982421875	2646.70224831772
0.4071044921875	0.010186767578125	2646.74649831761
0.411529541015625	0.0102203369140625	2646.7907483175
0.41595458984375	0.0102508544921875	2646.83499831738
0.420379638671875	0.0102783203125	2646.87924831727
0.4248046875	0.010302734375	2646.92349831716
0.429229736328125	0.0103302001953125	2646.96774831705
0.43365478515625	0.0103546142578125	2647.01199831694
0.438079833984375	0.0103759765625	2647.05624831683
0.4425048828125	0.0103973388671875	2647.10049831671
0.446929931640625	0.0104156494140625	2647.1447483166
0.45135498046875	0.010430908203125	2647.18899831649
0.455780029296875	0.01044921875	2647.23324831638
0.460205078125	0.01046142578125	2647.27749831627
0.464630126953125	0.0104766845703125	2647.32174831616
0.46905517578125	0.01048583984375	2647.36599831604
0.473480224609375	0.010498046875	2647.41024831593
0.4779052734375	0.0105072021484375	2647.45449831582
0.482330322265625	0.0105133056640625	2647.49874831571
0.48675537109375	0.0105224609375	2647.5429983156
0.491180419921875	0.010528564453125	2647.58724831548
0.49560546875	0.01053466796875	2647.63149831537
0.500030517578125	0.0105377197265625	2647.67574831526
0.50445556640625	0.0105438232421875	2647.71999831515
0.508880615234375	0.0105438232421875	2647.76424831504
0.5133056640625	0.010546875	2647.80849831493
0.517730712890625	0.0105499267578125	2647.85274831481
0.52215576171875	0.0105499267578125	2647.8969983147
0.526580810546875	0.0105499267578125	2647.94124831459
0.531005859375	0.010546875	2647.98549831448
0.535430908203125	0.010546875	2648.02974831437
0.53985595703125	0.0105438232421875	2648.07399831426
0.544281005859375	0.010540771484375	2648.11824831414
0.5487060546875	0.01053466796875	2648.16249831403
0.553131103515625	0.0105316162109375	2648.20674831392
0.55755615234375	0.0105255126953125	2648.25099831381
0.561981201171875	0.0105224609375	2648.2952483137
0.56640625	0.010516357421875	2648.33949831359
0.570831298828125	0.01051025390625	2648.38374831347
0.57525634765625	0.010504150390625	2648.42799831336
0.579681396484375	0.010498046875	2648.47224831325
0.5841064453125	0.0104888916015625	2648.51649831314
0.588531494140625	0.010479736328125	2648.56074831303
0.59295654296875	0.0104736328125	2648.60499831292
0.597381591796875	0.0104644775390625	2648.6492483128
0.601806640625	0.010455322265625	2648.69349831269
0.606231689453125	0.0104461669921875	2648.73774831258
0.61065673828125	0.01043701171875	2648.78199831247
0.615081787109375	0.0104278564453125	2648.82624831236
0.6195068359375	0.0104156494140625	2648.87049831224
0.623931884765625	0.010406494140625	2648.91474831213
0.62835693359375	0.010400390625	2648.95899831202
0.632781982421875	0.0103912353515625	2649.00324831191
0.63720703125	0.0103790283203125	2649.0474983118
0.641632080078125	0.010369873046875	2649.09174831169
0.64605712890625	0.0103546142578125	2649.13599831157
0.650482177734375	0.010345458984375	2649.18024831146
0.6549072265625	0.010333251953125	2649.22449831135
0.659332275390625	0.010321044921875	2649.26874831124
0.66375732421875	0.010308837890625	2649.31299831113
0.668182373046875	0.010296630859375	2649.35724831102
0.672607421875	0.010284423828125	2649.4014983109
0.677032470703125	0.010272216796875	2649.44574831079
0.68145751953125	0.010260009765625	2649.48999831068
0.685882568359375	0.010247802734375	2649.53424831057
0.6903076171875	0.010235595703125	2649.57849831046
0.694732666015625	0.010223388671875	2649.62274831035
0.69915771484375	0.010211181640625	2649.66699831023
0.703582763671875	0.0102020263671875	2649.71124831012
0.7080078125	0.0101898193359375	2649.75549831001
0.712432861328125	0.010174560546875	2649.7997483099
0.71685791015625	0.0101654052734375	2649.84399830979
0.721282958984375	0.0101531982421875	2649.88824830968
0.7257080078125	0.01014404296875	2649.93249830956
0.730133056640625	0.0101318359375	2649.97674830945
0.73455810546875	0.0101226806640625	2650.02099830934
0.738983154296875	0.0101104736328125	2650.06524830923
0.743408203125	0.0100982666015625	2650.10949830912
0.747833251953125	0.0100860595703125	2650.15374830901
0.75225830078125	0.010076904296875	2650.19799830889
0.756683349609375	0.0100677490234375	2650.24224830878
0.7611083984375	0.01005859375	2650.28649830867
0.765533447265625	0.0100494384765625	2650.33074830856
0.76995849609375	0.010040283203125	2650.37499830845
0.774383544921875	0.0100341796875	2650.41924830833
0.77880859375	0.0100250244140625	2650.46349830822
0.783233642578125	0.010015869140625	2650.50774830811
0.78765869140625	0.010009765625	2650.551998308
0.792083740234375	0.010003662109375	2650.59624830789
0.7965087890625	0.0100006103515625	2650.64049830778
0.800933837890625	0.0099945068359375	2650.68474830766
0.80535888671875	0.0099884033203125	2650.72899830755
0.809783935546875	0.0099853515625	2650.77324830744
0.814208984375	0.0099822998046875	2650.81749830733
0.818634033203125	0.009979248046875	2650.86174830722
0.82305908203125	0.0099761962890625	2650.90599830711
0.827484130859375	0.0099761962890625	2650.95024830699
0.8319091796875	0.0099761962890625	2650.99449830688
0.836334228515625	0.0099761962890625	2651.03874830677
0.84075927734375	0.0099761962890625	2651.08299830666
0.845184326171875	0.009979248046875	2651.12724830655
0.849609375	0.009979248046875	2651.17149830644
0.854034423828125	0.0099822998046875	2651.21574830632
0.85845947265625	0.0099853515625	2651.25999830621
0.862884521484375	0.009991455078125	2651.3042483061
0.8673095703125	0.00999755859375	2651.34849830599
0.871734619140625	0.010003662109375	2651.39274830588
0.87615966796875	0.010009765625	2651.43699830576
0.880584716796875	0.0100189208984375	2651.48124830565
0.885009765625	0.0100311279296875	2651.52549830554
0.889434814453125	0.010040283203125	2651.56974830543
0.89385986328125	0.010052490234375	2651.61399830532
0.898284912109375	0.010064697265625	2651.65824830521
0.9027099609375	0.0100799560546875	2651.70249830509
0.907135009765625	0.01009521484375	2651.74674830498
0.91156005859375	0.010113525390625	2651.79099830487
0.915985107421875	0.0101287841796875	2651.83524830476
0.92041015625	0.010150146484375	2651.87949830465
0.924835205078125	0.01016845703125	2651.92374830454
0.92926025390625	0.0101898193359375	2651.96799830442
0.933685302734375	0.0102142333984375	2652.01224830431
0.9381103515625	0.01024169921875	2652.0564983042
0.942535400390625	0.01026611328125	2652.10074830409
0.94696044921875	0.010296630859375	2652.14499830398
0.951385498046875	0.010321044921875	2652.18924830387
0.955810546875	0.0103546142578125	2652.23349830375
0.960235595703125	0.0103851318359375	2652.27774830364
0.96466064453125	0.010418701171875	2652.32199830353
0.969085693359375	0.010455322265625	2652.36624830342
0.9735107421875	0.010491943359375	2652.41049830331
0.977935791015625	0.010528564453125	2652.4547483032
0.98236083984375	0.0105712890625	2652.49899830308
0.986785888671875	0.010614013671875	2652.54324830297
0.9912109375	0.01065673828125	2652.58749830286
0.995635986328125	0.01070556640625	2652.63174830275
1.00006103515625	0.0107513427734375	2652.67599830264
0.995635986328125	0.0100433349609375	2652.72024830253
0.9912109375	0.009368896484375	2652.76449830241
0.986785888671875	0.0087310791015625	2652.8087483023
0.98236083984375	0.00811767578125	2652.85299830219
0.977935791015625	0.0075347900390625	2652.89724830208
0.9735107421875	0.006976318359375	2652.94149830197
0.969085693359375	0.0064361572265625	2652.98574830185
0.96466064453125	0.0059173583984375	2653.02999830174
0.960235595703125	0.0054168701171875	2653.07424830163
0.955810546875	0.004932861328125	2653.11849830152
0.951385498046875	0.00446807861328125	2653.16274830141
0.94696044921875	0.00401824951171875	2653.2069983013
0.942535400390625	0.00358489990234375	2653.25124830118
0.9381103515625	0.0031646728515625	2653.29549830107
0.933685302734375	0.0027587890625	2653.33974830096
0.92926025390625	0.00236480712890625	2653.38399830085
0.924835205078125	0.00198486328125	2653.42824830074
0.92041015625	0.0016162109375	2653.47249830063
0.915985107421875	0.00126007080078125	2653.51674830051
0.91156005859375	0.0009149169921875	2653.5609983004
0.907135009765625	0.0005810546875	2653.60524830029
0.9027099609375	0.0002569580078125	2653.64949830018
0.898284912109375	-5.6365966796875E-05	2653.69374830007
0.89385986328125	-0.00035980224609375	2653.73799829996
0.889434814453125	-0.00065399169921875	2653.78224829984
0.885009765625	-0.000938720703125	2653.82649829973
0.880584716796875	-0.001214599609375	2653.87074829962
0.87615966796875	-0.00148101806640625	2653.91499829951
0.871734619140625	-0.001739501953125	2653.9592482994
0.8673095703125	-0.00198944091796875	2654.00349829929
0.862884521484375	-0.00223114013671875	2654.04774829917
0.85845947265625	-0.00246429443359375	2654.09199829906
0.854034423828125	-0.0026910400390625	2654.13624829895
0.849609375	-0.00291015625	2654.18049829884
0.845184326171875	-0.0031219482421875	2654.22474829873
0.84075927734375	-0.00332672119140625	2654.26899829861
0.836334228515625	-0.00352447509765625	2654.3132482985
0.8319091796875	-0.00371551513671875	2654.35749829839
0.827484130859375	-0.003900146484375	2654.40174829828
0.82305908203125	-0.0040777587890625	2654.44599829817
0.818634033203125	-0.0042498779296875	2654.49024829806
0.814208984375	-0.00441497802734375	2654.53449829794
0.809783935546875	-0.00457489013671875	2654.57874829783
0.80535888671875	-0.00472991943359375	2654.62299829772
0.800933837890625	-0.0048785400390625	2654.66724829761
0.7965087890625	-0.00502197265625	2654.7114982975
0.792083740234375	-0.00515960693359375	2654.75574829739
0.78765869140625	-0.00529388427734375	2654.79999829727
0.783233642578125	-0.00542144775390625	2654.84424829716
0.77880859375	-0.00554534912109375	2654.88849829705
0.774383544921875	-0.00566436767578125	2654.93274829694
0.76995849609375	-0.0057794189453125	2654.97699829683
0.765533447265625	-0.00589080810546875	2655.02124829672
0.7611083984375	-0.00599700927734375	2655.0654982966
0.756683349609375	-0.006099853515625	2655.10974829649
0.75225830078125	-0.0061767578125	2655.15399829638
0.747833251953125	-0.0062713623046875	2655.19824829627
0.743408203125	-0.0063629150390625	2655.24249829616
0.738983154296875	-0.006451416015625	2655.28674829605
0.73455810546875	-0.006536865234375	2655.33099829593
0.730133056640625	-0.0066192626953125	2655.37524829582
0.7257080078125	-0.0066986083984375	2655.41949829571
0.721282958984375	-0.00677490234375	2655.4637482956
0.71685791015625	-0.00684814453125	2655.50799829549
0.712432861328125	-0.00692138671875	2655.55224829538
0.7080078125	-0.0069915771484375	2655.59649829526
0.703582763671875	-0.0070587158203125	2655.64074829515
0.69915771484375	-0.0071258544921875	2655.68499829504
0.694732666015625	-0.0071868896484375	2655.72924829493
0.6903076171875	-0.0072479248046875	2655.77349829482
0.685882568359375	-0.0073089599609375	2655.8177482947
0.68145751953125	-0.0073638916015625	2655.86199829459
0.677032470703125	-0.007421875	2655.90624829448
0.672607421875	-0.0074737548828125	2655.95049829437
0.668182373046875	-0.007525634765625	2655.99474829426
0.66375732421875	-0.007574462890625	2656.03899829415
0.659332275390625	-0.007623291015625	2656.08324829403
0.6549072265625	-0.007672119140625	2656.12749829392
0.650482177734375	-0.007720947265625	2656.17174829381
0.64605712890625	-0.0077667236328125	2656.2159982937
0.641632080078125	-0.0078094482421875	2656.26024829359
0.63720703125	-0.007855224609375	2656.30449829348
0.632781982421875	-0.00789794921875	2656.34874829336
0.62835693359375	-0.0079376220703125	2656.39299829325
0.623931884765625	-0.0079833984375	2656.43724829314
0.6195068359375	-0.0080230712890625	2656.48149829303
0.615081787109375	-0.008062744140625	2656.52574829292
0.61065673828125	-0.0081024169921875	2656.56999829281
0.606231689453125	-0.0081390380859375	2656.61424829269
0.601806640625	-0.0081787109375	2656.65849829258
0.597381591796875	-0.0082122802734375	2656.70274829247
0.59295654296875	-0.0082489013671875	2656.74699829236
0.588531494140625	-0.0082855224609375	2656.79124829225
0.5841064453125	-0.008319091796875	2656.83549829214
0.579681396484375	-0.0083526611328125	2656.87974829202
0.57525634765625	-0.00838623046875	2656.92399829191
0.570831298828125	-0.0084197998046875	2656.9682482918
0.56640625	-0.008453369140625	2657.01249829169
0.561981201171875	-0.00848388671875	2657.05674829158
0.55755615234375	-0.0085174560546875	2657.10099829146
0.553131103515625	-0.0085479736328125	2657.14524829135
0.5487060546875	-0.0085784912109375	2657.18949829124
0.544281005859375	-0.0086090087890625	2657.23374829113
0.53985595703125	-0.0086395263671875	2657.27799829102
0.535430908203125	-0.0086700439453125	2657.32224829091
0.531005859375	-0.00870361328125	2657.36649829079
0.526580810546875	-0.0087310791015625	2657.41074829068
0.52215576171875	-0.0087615966796875	2657.45499829057
0.517730712890625	-0.0087921142578125	2657.49924829046
0.5133056640625	-0.0088226318359375	2657.54349829035
0.508880615234375	-0.00885009765625	2657.58774829024
0.50445556640625	-0.008880615234375	2657.63199829012
0.500030517578125	-0.0089080810546875	2657.67624829001
0.49560546875	-0.0089385986328125	2657.7204982899
0.491180419921875	-0.0089691162109375	2657.76474828979
0.48675537109375	-0.00899658203125	2657.80899828968
0.482330322265625	-0.0090240478515625	2657.85324828957
0.4779052734375	-0.0090545654296875	2657.89749828945
0.473480224609375	-0.00908203125	2657.94174828934
0.46905517578125	-0.0091094970703125	2657.98599828923
0.464630126953125	-0.0091400146484375	2658.03024828912
0.460205078125	-0.00916748046875	2658.07449828901
0.455780029296875	-0.0091949462890625	2658.1187482889
0.45135498046875	-0.009222412109375	2658.16299828878
0.446929931640625	-0.0092529296875	2658.20724828867
0.4425048828125	-0.009283447265625	2658.25149828856
0.438079833984375	-0.0093109130859375	2658.29574828845
0.43365478515625	-0.0093414306640625	2658.33999828834
0.429229736328125	-0.009368896484375	2658.38424828823
0.4248046875	-0.0093963623046875	2658.42849828811
0.420379638671875	-0.009423828125	2658.472748288
0.41595458984375	-0.0094512939453125	2658.51699828789
0.411529541015625	-0.0094818115234375	2658.56124828778
0.4071044921875	-0.00950927734375	2658.60549828767
0.402679443359375	-0.009539794921875	2658.64974828755
0.39825439453125	-0.0095672607421875	2658.69399828744
0.393829345703125	-0.0095977783203125	2658.73824828733
0.389404296875	-0.009625244140625	2658.78249828722
0.384979248046875	-0.00965576171875	2658.82674828711
0.38055419921875	-0.009686279296875	2658.870998287
0.376129150390625	-0.009716796875	2658.91524828688
0.3717041015625	-0.009747314453125	2658.95949828677
0.367279052734375	-0.0097747802734375	2659.00374828666
0.36285400390625	-0.009808349609375	2659.04799828655
0.358428955078125	-0.0098358154296875	2659.09224828644
0.35400390625	-0.009869384765625	2659.13649828633
0.349578857421875	-0.0098968505859375	2659.18074828621
0.34515380859375	-0.0099273681640625	2659.2249982861
0.340728759765625	-0.0099578857421875	2659.26924828599
0.3363037109375	-0.0099884033203125	2659.31349828588
0.331878662109375	-0.0100189208984375	2659.35774828577
0.32745361328125	-0.0100494384765625	2659.40199828566
0.323028564453125	-0.0100830078125	2659.44624828554
0.318603515625	-0.0101104736328125	2659.49049828543
0.314178466796875	-0.01014404296875	2659.53474828532
0.30975341796875	-0.0101776123046875	2659.57899828521
0.305328369140625	-0.010205078125	2659.6232482851
0.3009033203125	-0.010235595703125	2659.66749828498
0.296478271484375	-0.0102691650390625	2659.71174828487
0.29205322265625	-0.0102996826171875	2659.75599828476
0.287628173828125	-0.0103302001953125	2659.80024828465
0.283203125	-0.0103607177734375	2659.84449828454
0.278778076171875	-0.010394287109375	2659.88874828443
0.27435302734375	-0.0104278564453125	2659.93299828431
0.269927978515625	-0.010455322265625	2659.9772482842
0.2655029296875	-0.0104888916015625	2660.02149828409
0.261077880859375	-0.0105194091796875	2660.06574828398
0.25665283203125	-0.010552978515625	2660.10999828387
0.252227783203125	-0.01058349609375	2660.15424828376
0.247802734375	-0.0106170654296875	2660.19849828364
0.243377685546875	-0.0106475830078125	2660.24274828353
0.23895263671875	-0.01068115234375	2660.28699828342
0.234527587890625	-0.0107147216796875	2660.33124828331
0.2301025390625	-0.0107452392578125	2660.3754982832
0.225677490234375	-0.0107757568359375	2660.41974828309
0.22125244140625	-0.010809326171875	2660.46399828297
0.216827392578125	-0.0108428955078125	2660.50824828286
0.21240234375	-0.01087646484375	2660.55249828275
0.207977294921875	-0.0109100341796875	2660.59674828264
0.20355224609375	-0.0109375	2660.64099828253
0.199127197265625	-0.0109710693359375	2660.68524828242
0.1947021484375	-0.011004638671875	2660.7294982823
0.190277099609375	-0.0110382080078125	2660.77374828219
0.18585205078125	-0.01107177734375	2660.81799828208
0.181427001953125	-0.0111053466796875	2660.86224828197
0.177001953125	-0.0111419677734375	2660.90649828186
0.172576904296875	-0.011175537109375	2660.95074828175
0.16815185546875	-0.0112091064453125	2660.99499828163
0.163726806640625	-0.0112457275390625	2661.03924828152
0.1593017578125	-0.011279296875	2661.08349828141
0.154876708984375	-0.0113128662109375	2661.1277482813
0.15045166015625	-0.0113494873046875	2661.17199828119
0.146026611328125	-0.0113861083984375	2661.21624828107
0.1416015625	-0.0114227294921875	2661.26049828096
0.137176513671875	-0.0114593505859375	2661.30474828085
0.13275146484375	-0.011492919921875	2661.34899828074
0.128326416015625	-0.011529541015625	2661.39324828063
0.1239013671875	-0.011566162109375	2661.43749828052
0.119476318359375	-0.0116058349609375	2661.4817482804
0.11505126953125	-0.011639404296875	2661.52599828029
0.110626220703125	-0.011676025390625	2661.57024828018
0.106201171875	-0.0117156982421875	2661.61449828007
0.101776123046875	-0.0117523193359375	2661.65874827996
0.09735107421875	-0.0117919921875	2661.70299827985
0.092926025390625	-0.0118316650390625	2661.74724827973
0.0885009765625	-0.011871337890625	2661.79149827962
0.084075927734375	-0.0119110107421875	2661.83574827951
0.07965087890625	-0.0119537353515625	2661.8799982794
0.075225830078125	-0.011993408203125	2661.92424827929
0.07080078125	-0.0120361328125	2661.96849827918
0.066375732421875	-0.0120758056640625	2662.01274827906
0.06195068359375	-0.01212158203125	2662.05699827895
0.057525634765625	-0.012164306640625	2662.10124827884
0.0531005859375	-0.01220703125	2662.14549827873
0.048675537109375	-0.012249755859375	2662.18974827862
0.04425048828125	-0.0122955322265625	2662.23399827851
0.039825439453125	-0.0123382568359375	2662.27824827839
0.035400390625	-0.0123870849609375	2662.32249827828
0.030975341796875	-0.012432861328125	2662.36674827817
0.02655029296875	-0.0124786376953125	2662.41099827806
0.022125244140625	-0.0125244140625	2662.45524827795
0.0177001953125	-0.0125701904296875	2662.49949827783
0.013275146484375	-0.0126220703125	2662.54374827772
0.00885009765625	-0.0126678466796875	2662.58799827761
0.004425048828125	-0.0127227783203125	2662.6322482775
0	-0.0127716064453125	2662.67649827739
0.004425048828125	-0.01204833984375	2662.72074827728
0.00885009765625	-0.011358642578125	2662.76499827716
0.013275146484375	-0.010693359375	2662.80924827705
0.0177001953125	-0.0100494384765625	2662.85349827694
0.022125244140625	-0.0094268798828125	2662.89774827683
0.02655029296875	-0.00882568359375	2662.94199827672
0.030975341796875	-0.0082427978515625	2662.98624827661
0.035400390625	-0.0076812744140625	2663.03049827649
0.039825439453125	-0.0071319580078125	2663.07474827638
0.04425048828125	-0.0066009521484375	2663.11899827627
0.048675537109375	-0.006085205078125	2663.16324827616
0.0531005859375	-0.0055816650390625	2663.20749827605
0.057525634765625	-0.0050933837890625	2663.25174827594
0.06195068359375	-0.00461944580078125	2663.29599827582
0.066375732421875	-0.00415771484375	2663.34024827571
0.07080078125	-0.0037078857421875	2663.3844982756
0.075225830078125	-0.00326995849609375	2663.42874827549
0.07965087890625	-0.00284454345703125	2663.47299827538
0.084075927734375	-0.002440185546875	2663.51724827527
0.0885009765625	-0.00203460693359375	2663.56149827515
0.092926025390625	-0.0016400146484375	2663.60574827504
0.09735107421875	-0.00125518798828125	2663.64999827493
0.101776123046875	-0.00088104248046875	2663.69424827482
0.106201171875	-0.00051605224609375	2663.73849827471
0.110626220703125	-0.000160400390625	2663.7827482746
0.11505126953125	0.000186004638671875	2663.82699827448
0.119476318359375	0.0005218505859375	2663.87124827437
0.1239013671875	0.00085174560546875	2663.91549827426
0.128326416015625	0.00117279052734375	2663.95974827415
0.13275146484375	0.001485595703125	2664.00399827404
0.137176513671875	0.00179107666015625	2664.04824827392
0.1416015625	0.0020880126953125	2664.09249827381
0.146026611328125	0.0023773193359375	2664.1367482737
0.15045166015625	0.0026605224609375	2664.18099827359
0.154876708984375	0.002935791015625	2664.22524827348
0.1593017578125	0.003203125	2664.26949827337
0.163726806640625	0.00346405029296875	2664.31374827325
0.16815185546875	0.00371826171875	2664.35799827314
0.172576904296875	0.00396514892578125	2664.40224827303
0.177001953125	0.00420562744140625	2664.44649827292
0.181427001953125	0.00444000244140625	2664.49074827281
0.18585205078125	0.00466766357421875	2664.5349982727
0.190277099609375	0.00488983154296875	2664.57924827258
0.1947021484375	0.00510528564453125	2664.62349827247
0.199127197265625	0.00531524658203125	2664.66774827236
0.20355224609375	0.00551910400390625	2664.71199827225
0.207977294921875	0.0057171630859375	2664.75624827214
0.21240234375	0.00590911865234375	2664.80049827203
0.216827392578125	0.0060955810546875	2664.84474827191
0.22125244140625	0.006268310546875	2664.8889982718
0.225677490234375	0.0064453125	2664.93324827169
0.2301025390625	0.0066162109375	2664.97749827158
0.234527587890625	0.006781005859375	2665.02174827147
0.23895263671875	0.0069427490234375	2665.06599827136
0.243377685546875	0.0070953369140625	2665.11024827124
0.247802734375	0.0072479248046875	2665.15449827113
0.252227783203125	0.0073944091796875	2665.19874827102
0.25665283203125	0.007537841796875	2665.24299827091
0.261077880859375	0.0076751708984375	2665.2872482708
0.2655029296875	0.007806396484375	2665.33149827068
0.269927978515625	0.007928466796875	2665.37574827057
0.27435302734375	0.0080535888671875	2665.41999827046
0.278778076171875	0.008172607421875	2665.46424827035
0.283203125	0.00828857421875	2665.50849827024
0.287628173828125	0.0084014892578125	2665.55274827013
0.29205322265625	0.00850830078125	2665.59699827001
0.296478271484375	0.0086090087890625	2665.6412482699
0.3009033203125	0.008709716796875	2665.68549826979
0.305328369140625	0.008807373046875	2665.72974826968
0.30975341796875	0.00889892578125	2665.77399826957
0.314178466796875	0.008990478515625	2665.81824826946
0.318603515625	0.009075927734375	2665.86249826934
0.323028564453125	0.0091583251953125	2665.90674826923
0.32745361328125	0.0092376708984375	2665.95099826912
0.331878662109375	0.00931396484375	2665.99524826901
0.3363037109375	0.0093841552734375	2666.0394982689
0.340728759765625	0.009454345703125	2666.08374826879
0.34515380859375	0.0095245361328125	2666.12799826867
0.349578857421875	0.009588623046875	2666.17224826856
0.35400390625	0.0096466064453125	2666.21649826845
0.358428955078125	0.00970458984375	2666.26074826834
0.36285400390625	0.009759521484375	2666.30499826823
0.367279052734375	0.009814453125	2666.34924826812
0.3717041015625	0.00986328125	2666.393498268
0.376129150390625	0.009912109375	2666.43774826789
0.38055419921875	0.0099578857421875	2666.48199826778
0.384979248046875	0.0100006103515625	2666.52624826767
0.389404296875	0.0100433349609375	2666.57049826756
0.393829345703125	0.0100799560546875	2666.61474826745
0.39825439453125	0.0101165771484375	2666.65899826733
0.402679443359375	0.0101531982421875	2666.70324826722
0.4071044921875	0.0101898193359375	2666.74749826711
0.411529541015625	0.01021728515625	2666.791748267
0.41595458984375	0.0102508544921875	2666.83599826689
0.420379638671875	0.0102752685546875	2666.88024826677
0.4248046875	0.0102996826171875	2666.92449826666
0.429229736328125	0.0103271484375	2666.96874826655
0.43365478515625	0.0103485107421875	2667.01299826644
0.438079833984375	0.0103729248046875	2667.05724826633
0.4425048828125	0.0103912353515625	2667.10149826622
0.446929931640625	0.0104095458984375	2667.1457482661
0.45135498046875	0.0104278564453125	2667.18999826599
0.455780029296875	0.010443115234375	2667.23424826588
0.460205078125	0.010455322265625	2667.27849826577
0.464630126953125	0.010467529296875	2667.32274826566
0.46905517578125	0.010479736328125	2667.36699826555
0.473480224609375	0.0104888916015625	2667.41124826543
0.4779052734375	0.010498046875	2667.45549826532
0.482330322265625	0.0105072021484375	2667.49974826521
0.48675537109375	0.0105133056640625	2667.5439982651
0.491180419921875	0.0105224609375	2667.58824826499
0.49560546875	0.0105255126953125	2667.63249826488
0.500030517578125	0.0105316162109375	2667.67674826476
0.50445556640625	0.01053466796875	2667.72099826465
0.508880615234375	0.0105377197265625	2667.76524826454
0.5133056640625	0.0105377197265625	2667.80949826443
0.517730712890625	0.010540771484375	2667.85374826432
0.52215576171875	0.010540771484375	2667.8979982642
0.526580810546875	0.0105377197265625	2667.94224826409
0.531005859375	0.0105377197265625	2667.98649826398
0.535430908203125	0.0105377197265625	2668.03074826387
0.53985595703125	0.01053466796875	2668.07499826376
0.544281005859375	0.0105316162109375	2668.11924826365
0.5487060546875	0.0105255126953125	2668.16349826353
0.553131103515625	0.0105224609375	2668.20774826342
0.55755615234375	0.010516357421875	2668.25199826331
0.561981201171875	0.01051025390625	2668.2962482632
0.56640625	0.010504150390625	2668.34049826309
0.570831298828125	0.010498046875	2668.38474826298
0.57525634765625	0.010491943359375	2668.42899826286
0.579681396484375	0.01048583984375	2668.47324826275
0.5841064453125	0.0104766845703125	2668.51749826264
0.588531494140625	0.010467529296875	2668.56174826253
0.59295654296875	0.0104583740234375	2668.60599826242
0.597381591796875	0.0104522705078125	2668.65024826231
0.601806640625	0.010443115234375	2668.69449826219
0.606231689453125	0.0104339599609375	2668.73874826208
0.61065673828125	0.0104248046875	2668.78299826197
0.615081787109375	0.0104156494140625	2668.82724826186
0.6195068359375	0.0104034423828125	2668.87149826175
0.623931884765625	0.010394287109375	2668.91574826164
0.62835693359375	0.01038818359375	2668.95999826152
0.632781982421875	0.0103759765625	2669.00424826141
0.63720703125	0.01036376953125	2669.0484982613
0.641632080078125	0.0103515625	2669.09274826119
0.64605712890625	0.0103424072265625	2669.13699826108
0.650482177734375	0.0103302001953125	2669.18124826097
0.6549072265625	0.0103179931640625	2669.22549826085
0.659332275390625	0.0103057861328125	2669.26974826074
0.66375732421875	0.0102935791015625	2669.31399826063
0.668182373046875	0.0102813720703125	2669.35824826052
0.672607421875	0.0102691650390625	2669.40249826041
0.677032470703125	0.0102569580078125	2669.44674826029
0.68145751953125	0.01024169921875	2669.49099826018
0.685882568359375	0.0102294921875	2669.53524826007
0.6903076171875	0.01021728515625	2669.57949825996
0.694732666015625	0.0102081298828125	2669.62374825985
0.69915771484375	0.0101959228515625	2669.66799825974
0.703582763671875	0.0101806640625	2669.71224825962
0.7080078125	0.01016845703125	2669.75649825951
0.712432861328125	0.0101593017578125	2669.8007482594
0.71685791015625	0.0101470947265625	2669.84499825929
0.721282958984375	0.0101348876953125	2669.88924825918
0.7257080078125	0.010125732421875	2669.93349825907
0.730133056640625	0.010113525390625	2669.97774825895
0.73455810546875	0.0101043701171875	2670.02199825884
0.738983154296875	0.0100921630859375	2670.06624825873
0.743408203125	0.010076904296875	2670.11049825862
0.747833251953125	0.0100677490234375	2670.15474825851
0.75225830078125	0.01005859375	2670.1989982584
0.756683349609375	0.0100494384765625	2670.24324825828
0.7611083984375	0.010040283203125	2670.28749825817
0.765533447265625	0.0100311279296875	2670.33174825806
0.76995849609375	0.01002197265625	2670.37599825795
0.774383544921875	0.0100128173828125	2670.42024825784
0.77880859375	0.0100067138671875	2670.46449825773
0.783233642578125	0.00999755859375	2670.50874825761
0.78765869140625	0.0099884033203125	2670.5529982575
0.792083740234375	0.0099822998046875	2670.59724825739
0.7965087890625	0.0099761962890625	2670.64149825728
0.800933837890625	0.00997314453125	2670.68574825717
0.80535888671875	0.009967041015625	2670.72999825705
0.809783935546875	0.0099639892578125	2670.77424825694
0.814208984375	0.0099609375	2670.81849825683
0.818634033203125	0.0099578857421875	2670.86274825672
0.82305908203125	0.009954833984375	2670.90699825661
0.827484130859375	0.0099517822265625	2670.9512482565
0.8319091796875	0.0099517822265625	2670.99549825638
0.836334228515625	0.0099517822265625	2671.03974825627
0.84075927734375	0.0099517822265625	2671.08399825616
0.845184326171875	0.0099517822265625	2671.12824825605
0.849609375	0.009954833984375	2671.17249825594
0.854034423828125	0.0099578857421875	2671.21674825583
0.85845947265625	0.0099639892578125	2671.26099825571
0.862884521484375	0.0099639892578125	2671.3052482556
0.8673095703125	0.00997314453125	2671.34949825549
0.871734619140625	0.009979248046875	2671.39374825538
0.87615966796875	0.0099884033203125	2671.43799825527
0.880584716796875	0.00999755859375	2671.48224825516
0.885009765625	0.0100067138671875	2671.52649825504
0.889434814453125	0.0100189208984375	2671.57074825493
0.89385986328125	0.010028076171875	2671.61499825482
0.898284912109375	0.0100433349609375	2671.65924825471
0.9027099609375	0.01005859375	2671.7034982546
0.907135009765625	0.0100738525390625	2671.74774825449
0.91156005859375	0.010089111328125	2671.79199825437
0.915985107421875	0.010107421875	2671.83624825426
0.92041015625	0.010125732421875	2671.88049825415
0.924835205078125	0.0101470947265625	2671.92474825404
0.92926025390625	0.01016845703125	2671.96899825393
0.933685302734375	0.01019287109375	2672.01324825382
0.9381103515625	0.0102203369140625	2672.0574982537
0.942535400390625	0.0102447509765625	2672.10174825359
0.94696044921875	0.010272216796875	2672.14599825348
0.951385498046875	0.010302734375	2672.19024825337
0.955810546875	0.0103302001953125	2672.23449825326
0.960235595703125	0.01036376953125	2672.27874825314
0.96466064453125	0.0103973388671875	2672.32299825303
0.969085693359375	0.0104339599609375	2672.36724825292
0.9735107421875	0.0104705810546875	2672.41149825281
0.977935791015625	0.0105072021484375	2672.4557482527
0.98236083984375	0.0105499267578125	2672.49999825259
0.986785888671875	0.0105926513671875	2672.54424825247
0.9912109375	0.010638427734375	2672.58849825236
