Potential applied (V)	WE(1).Current (A)	Time (s)
0.004425048828125	-0.065545654296875	2109.61556867373
0.00885009765625	-0.05274658203125	2109.83682067317
0.013275146484375	-0.0435333251953125	2110.05807267262
0.0177001953125	-0.036474609375	2110.27932467206
0.022125244140625	-0.030859375	2110.5005766715
0.02655029296875	-0.0262969970703125	2110.72182867094
0.030975341796875	-0.0225311279296875	2110.94308067038
0.035400390625	-0.019378662109375	2111.16433266982
0.039825439453125	-0.016717529296875	2111.38558466926
0.04425048828125	-0.0144439697265625	2111.60683666871
0.048675537109375	-0.0124969482421875	2111.82808866815
0.0531005859375	-0.0108123779296875	2112.04934066759
0.057525634765625	-0.0093505859375	2112.27059266703
0.06195068359375	-0.0080718994140625	2112.49184466647
0.066375732421875	-0.006951904296875	2112.71309666591
0.07080078125	-0.005963134765625	2112.93434866535
0.075225830078125	-0.0050872802734375	2113.1556006648
0.07965087890625	-0.00431304931640625	2113.37685266424
0.084075927734375	-0.0036248779296875	2113.59810466368
0.0885009765625	-0.003011474609375	2113.81935666312
0.092926025390625	-0.00246368408203125	2114.04060866256
0.09735107421875	-0.001973876953125	2114.261860662
0.101776123046875	-0.0015435791015625	2114.48311266144
0.106201171875	-0.00115020751953125	2114.70436466088
0.110626220703125	-0.00079742431640625	2114.92561666033
0.11505126953125	-0.00048101806640625	2115.14686865977
0.119476318359375	-0.00019854736328125	2115.36812065921
0.1239013671875	5.731201171875E-05	2115.58937265865
0.128326416015625	0.000287322998046875	2115.81062465809
0.13275146484375	0.0004937744140625	2116.03187665753
0.137176513671875	0.00067950439453125	2116.25312865697
0.1416015625	0.0008465576171875	2116.47438065642
0.146026611328125	0.000997314453125	2116.69563265586
0.15045166015625	0.00113067626953125	2116.9168846553
0.154876708984375	0.001251220703125	2117.13813665474
0.1593017578125	0.001358642578125	2117.35938865418
0.163726806640625	0.00145538330078125	2117.58064065362
0.16815185546875	0.001541748046875	2117.80189265306
0.172576904296875	0.00161834716796875	2118.02314465251
0.177001953125	0.0016864013671875	2118.24439665195
0.181427001953125	0.00174774169921875	2118.46564865139
0.18585205078125	0.00180267333984375	2118.68690065083
0.190277099609375	0.0018511962890625	2118.90815265027
0.1947021484375	0.00189208984375	2119.12940464971
0.199127197265625	0.0019305419921875	2119.35065664915
0.20355224609375	0.00196380615234375	2119.5719086486
0.207977294921875	0.00199371337890625	2119.79316064804
0.21240234375	0.00201934814453125	2120.01441264748
0.216827392578125	0.00204254150390625	2120.23566464692
0.22125244140625	0.0020623779296875	2120.45691664636
0.225677490234375	0.002080078125	2120.6781686458
0.2301025390625	0.0020947265625	2120.89942064524
0.234527587890625	0.0021075439453125	2121.12067264469
0.23895263671875	0.0021185302734375	2121.34192464413
0.243377685546875	0.002127685546875	2121.56317664357
0.247802734375	0.00213470458984375	2121.78442864301
0.252227783203125	0.00214111328125	2122.00568064245
0.25665283203125	0.00214599609375	2122.22693264189
0.261077880859375	0.002149658203125	2122.44818464133
0.2655029296875	0.00215240478515625	2122.66943664077
0.269927978515625	0.002154541015625	2122.89068864022
0.27435302734375	0.00215545654296875	2123.11194063966
0.278778076171875	0.00215606689453125	2123.3331926391
0.283203125	0.00215606689453125	2123.55444463854
0.287628173828125	0.00215576171875	2123.77569663798
0.29205322265625	0.0021539306640625	2123.99694863742
0.296478271484375	0.00215301513671875	2124.21820063686
0.3009033203125	0.0021514892578125	2124.43945263631
0.305328369140625	0.002149658203125	2124.66070463575
0.30975341796875	0.002147216796875	2124.88195663519
0.314178466796875	0.002147216796875	2125.10320863463
0.318603515625	0.0021441650390625	2125.32446063407
0.323028564453125	0.00214111328125	2125.54571263351
0.32745361328125	0.00213775634765625	2125.76696463295
0.331878662109375	0.0021343994140625	2125.9882166324
0.3363037109375	0.00213104248046875	2126.20946863184
0.340728759765625	0.00212738037109375	2126.43072063128
0.34515380859375	0.0021234130859375	2126.65197263072
0.349578857421875	0.002120361328125	2126.87322463016
0.35400390625	0.00211517333984375	2127.0944766296
0.358428955078125	0.00211212158203125	2127.31572862904
0.36285400390625	0.00210906982421875	2127.53698062849
0.367279052734375	0.00210479736328125	2127.75823262793
0.3717041015625	0.0021014404296875	2127.97948462737
0.376129150390625	0.00209808349609375	2128.20073662681
0.38055419921875	0.0020947265625	2128.42198862625
0.384979248046875	0.0020916748046875	2128.64324062569
0.389404296875	0.0020880126953125	2128.86449262513
0.393829345703125	0.00208343505859375	2129.08574462458
0.39825439453125	0.00208038330078125	2129.30699662402
0.402679443359375	0.00207794189453125	2129.52824862346
0.4071044921875	0.00207427978515625	2129.7495006229
0.411529541015625	0.002071533203125	2129.97075262234
0.41595458984375	0.00206817626953125	2130.19200462178
0.420379638671875	0.00206451416015625	2130.41325662122
0.4248046875	0.00206146240234375	2130.63450862066
0.429229736328125	0.00205810546875	2130.85576062011
0.43365478515625	0.0020550537109375	2131.07701261955
0.438079833984375	0.00205230712890625	2131.29826461899
0.4425048828125	0.00204864501953125	2131.51951661843
0.446929931640625	0.00204620361328125	2131.74076861787
0.45135498046875	0.00204315185546875	2131.96202061731
0.455780029296875	0.00204071044921875	2132.18327261675
0.460205078125	0.00203765869140625	2132.4045246162
0.464630126953125	0.002034912109375	2132.62577661564
0.46905517578125	0.0020318603515625	2132.84702861508
0.473480224609375	0.0020294189453125	2133.06828061452
0.4779052734375	0.0020269775390625	2133.28953261396
0.482330322265625	0.00202484130859375	2133.5107846134
0.48675537109375	0.00202239990234375	2133.73203661284
0.491180419921875	0.00201995849609375	2133.95328861229
0.49560546875	0.0020172119140625	2134.17454061173
0.500030517578125	0.00201507568359375	2134.39579261117
0.50445556640625	0.00201324462890625	2134.61704461061
0.508880615234375	0.00201080322265625	2134.83829661005
0.5133056640625	0.00200836181640625	2135.05954860949
0.517730712890625	0.00200592041015625	2135.28080060893
0.52215576171875	0.00200439453125	2135.50205260838
0.526580810546875	0.00200164794921875	2135.72330460782
0.531005859375	0.00199951171875	2135.94455660726
0.535430908203125	0.00199798583984375	2136.1658086067
0.53985595703125	0.00199615478515625	2136.38706060614
0.544281005859375	0.00199432373046875	2136.60831260558
0.5487060546875	0.00199188232421875	2136.82956460502
0.553131103515625	0.0019903564453125	2137.05081660447
0.55755615234375	0.00198883056640625	2137.27206860391
0.561981201171875	0.0019873046875	2137.49332060335
0.56640625	0.0019854736328125	2137.71457260279
0.570831298828125	0.0019842529296875	2137.93582460223
0.57525634765625	0.00198272705078125	2138.15707660167
0.579681396484375	0.0019818115234375	2138.37832860111
0.5841064453125	0.00198089599609375	2138.59958060055
0.588531494140625	0.00197845458984375	2138.8208326
0.59295654296875	0.00197845458984375	2139.04208459944
0.597381591796875	0.0019781494140625	2139.26333659888
0.601806640625	0.00197723388671875	2139.48458859832
0.606231689453125	0.0019769287109375	2139.70584059776
0.61065673828125	0.00197662353515625	2139.9270925972
0.615081787109375	0.00197723388671875	2140.14834459665
0.6195068359375	0.0019775390625	2140.36959659609
0.623931884765625	0.0019775390625	2140.59084859553
0.62835693359375	0.00198150634765625	2140.81210059497
0.632781982421875	0.00198150634765625	2141.03335259441
0.63720703125	0.001981201171875	2141.25460459385
0.641632080078125	0.001982421875	2141.47585659329
0.64605712890625	0.00198272705078125	2141.69710859273
0.650482177734375	0.0019842529296875	2141.91836059218
0.6549072265625	0.00198516845703125	2142.13961259162
0.659332275390625	0.0019873046875	2142.36086459106
0.66375732421875	0.00198883056640625	2142.5821165905
0.668182373046875	0.0019903564453125	2142.80336858994
0.672607421875	0.0019927978515625	2143.02462058938
0.677032470703125	0.00199493408203125	2143.24587258882
0.68145751953125	0.00199798583984375	2143.46712458827
0.685882568359375	0.002000732421875	2143.68837658771
0.6903076171875	0.00200408935546875	2143.90962858715
0.694732666015625	0.00200714111328125	2144.13088058659
0.69915771484375	0.00201080322265625	2144.35213258603
0.703582763671875	0.00201324462890625	2144.57338458547
0.7080078125	0.0020172119140625	2144.79463658491
0.712432861328125	0.00202178955078125	2145.01588858436
0.71685791015625	0.0020263671875	2145.2371405838
0.721282958984375	0.00203094482421875	2145.45839258324
0.7257080078125	0.0020361328125	2145.67964458268
0.730133056640625	0.0020416259765625	2145.90089658212
0.73455810546875	0.002047119140625	2146.12214858156
0.738983154296875	0.00205322265625	2146.343400581
0.743408203125	0.00205810546875	2146.56465258044
0.747833251953125	0.0020648193359375	2146.78590457989
0.75225830078125	0.00207183837890625	2147.00715657933
0.756683349609375	0.00207977294921875	2147.22840857877
0.7611083984375	0.00208740234375	2147.44966057821
0.765533447265625	0.0020953369140625	2147.67091257765
0.76995849609375	0.0021044921875	2147.89216457709
0.774383544921875	0.002113037109375	2148.11341657654
0.77880859375	0.00212249755859375	2148.33466857598
0.783233642578125	0.0021319580078125	2148.55592057542
0.78765869140625	0.0021417236328125	2148.77717257486
0.792083740234375	0.00215240478515625	2148.9984245743
0.7965087890625	0.0021636962890625	2149.21967657374
0.800933837890625	0.00217559814453125	2149.44092857318
0.80535888671875	0.0021875	2149.66218057262
0.809783935546875	0.00220062255859375	2149.88343257207
0.814208984375	0.0022137451171875	2150.10468457151
0.818634033203125	0.00222747802734375	2150.32593657095
0.82305908203125	0.0022418212890625	2150.54718857039
0.827484130859375	0.00225799560546875	2150.76844056983
0.8319091796875	0.002274169921875	2150.98969256927
0.836334228515625	0.0022906494140625	2151.21094456871
0.84075927734375	0.00230743408203125	2151.43219656816
0.845184326171875	0.0023248291015625	2151.6534485676
0.849609375	0.00234375	2151.87470056704
0.854034423828125	0.00236328125	2152.09595256648
0.85845947265625	0.00238372802734375	2152.31720456592
0.862884521484375	0.0024041748046875	2152.53845656536
0.8673095703125	0.00242584228515625	2152.7597085648
0.871734619140625	0.00244964599609375	2152.98096056425
0.87615966796875	0.00247344970703125	2153.20221256369
0.880584716796875	0.00249847412109375	2153.42346456313
0.885009765625	0.0025238037109375	2153.64471656257
0.889434814453125	0.002550048828125	2153.86596856201
0.89385986328125	0.0025775146484375	2154.08722056145
0.898284912109375	0.00260589599609375	2154.30847256089
0.9027099609375	0.00263458251953125	2154.52972456034
0.907135009765625	0.0026641845703125	2154.75097655978
0.91156005859375	0.0026947021484375	2154.97222855922
0.915985107421875	0.002725830078125	2155.19348055866
0.92041015625	0.00275726318359375	2155.4147325581
0.924835205078125	0.0027911376953125	2155.63598455754
0.92926025390625	0.00282562255859375	2155.85723655698
0.933685302734375	0.0028607177734375	2156.07848855643
0.9381103515625	0.00289947509765625	2156.29974055587
0.942535400390625	0.00293609619140625	2156.52099255531
0.94696044921875	0.00297393798828125	2156.74224455475
0.951385498046875	0.0030145263671875	2156.96349655419
0.955810546875	0.00305450439453125	2157.18474855363
0.960235595703125	0.0030975341796875	2157.40600055307
0.96466064453125	0.00314208984375	2157.62725255251
0.969085693359375	0.00318878173828125	2157.84850455196
0.9735107421875	0.0032373046875	2158.0697565514
0.977935791015625	0.00328704833984375	2158.29100855084
0.98236083984375	0.00334228515625	2158.51226055028
0.986785888671875	0.003399658203125	2158.73351254972
0.9912109375	0.003460693359375	2158.95476454916
0.995635986328125	0.0035260009765625	2159.1760165486
1.00006103515625	0.0035943603515625	2159.39726854805
0.995635986328125	0.00301116943359375	2159.61852054749
0.9912109375	0.00252044677734375	2159.83977254693
0.986785888671875	0.00209686279296875	2160.06102454637
0.98236083984375	0.001724853515625	2160.28227654581
0.977935791015625	0.0013958740234375	2160.50352854525
0.9735107421875	0.00110198974609375	2160.72478054469
0.969085693359375	0.0008367919921875	2160.94603254414
0.96466064453125	0.00059661865234375	2161.16728454358
0.960235595703125	0.000378814697265625	2161.38853654302
0.955810546875	0.00018072509765625	2161.60978854246
0.951385498046875	3.0517578125E-08	2161.8310405419
0.94696044921875	-0.00016424560546875	2162.05229254134
0.942535400390625	-0.0003143310546875	2162.27354454078
0.9381103515625	-0.000451690673828125	2162.49479654023
0.933685302734375	-0.00057861328125	2162.71604853967
0.92926025390625	-0.00069183349609375	2162.93730053911
0.924835205078125	-0.00079498291015625	2163.15855253855
0.92041015625	-0.0008892822265625	2163.37980453799
0.915985107421875	-0.0009747314453125	2163.60105653743
0.91156005859375	-0.0010528564453125	2163.82230853687
0.907135009765625	-0.001123046875	2164.04356053632
0.9027099609375	-0.00118743896484375	2164.26481253576
0.898284912109375	-0.0012457275390625	2164.4860645352
0.89385986328125	-0.001298828125	2164.70731653464
0.889434814453125	-0.0013470458984375	2164.92856853408
0.885009765625	-0.00139129638671875	2165.14982053352
0.880584716796875	-0.00143096923828125	2165.37107253296
0.87615966796875	-0.0014678955078125	2165.5923245324
0.871734619140625	-0.0015008544921875	2165.81357653185
0.8673095703125	-0.0015313720703125	2166.03482853129
0.862884521484375	-0.00155914306640625	2166.25608053073
0.85845947265625	-0.00158355712890625	2166.47733253017
0.854034423828125	-0.0016070556640625	2166.69858452961
0.849609375	-0.00162872314453125	2166.91983652905
0.845184326171875	-0.00164886474609375	2167.14108852849
0.84075927734375	-0.00166717529296875	2167.36234052794
0.836334228515625	-0.00168426513671875	2167.58359252738
0.8319091796875	-0.00170013427734375	2167.80484452682
0.827484130859375	-0.00171417236328125	2168.02609652626
0.82305908203125	-0.0017279052734375	2168.2473485257
0.818634033203125	-0.00174041748046875	2168.46860052514
0.814208984375	-0.0017523193359375	2168.68985252458
0.809783935546875	-0.00176300048828125	2168.91110452403
0.80535888671875	-0.0017730712890625	2169.13235652347
0.800933837890625	-0.0017828369140625	2169.35360852291
0.7965087890625	-0.00179168701171875	2169.57486052235
0.792083740234375	-0.00180084228515625	2169.79611252179
0.78765869140625	-0.0018084716796875	2170.01736452123
0.783233642578125	-0.00181640625	2170.23861652067
0.77880859375	-0.0018231201171875	2170.45986852012
0.774383544921875	-0.00183013916015625	2170.68112051956
0.76995849609375	-0.00183685302734375	2170.902372519
0.765533447265625	-0.00184326171875	2171.12362451844
0.7611083984375	-0.00184967041015625	2171.34487651788
0.756683349609375	-0.00185546875	2171.56612851732
0.75225830078125	-0.0018609619140625	2171.78738051676
0.747833251953125	-0.00186614990234375	2172.00863251621
0.743408203125	-0.00187225341796875	2172.22988451565
0.738983154296875	-0.0018756103515625	2172.45113651509
0.73455810546875	-0.001881103515625	2172.67238851453
0.730133056640625	-0.00188629150390625	2172.89364051397
0.7257080078125	-0.001890869140625	2173.11489251341
0.721282958984375	-0.001895751953125	2173.33614451285
0.71685791015625	-0.0019000244140625	2173.55739651229
0.712432861328125	-0.00190460205078125	2173.77864851174
0.7080078125	-0.00190887451171875	2173.99990051118
0.703582763671875	-0.00191314697265625	2174.22115251062
0.69915771484375	-0.00191650390625	2174.44240451006
0.694732666015625	-0.00192047119140625	2174.6636565095
0.6903076171875	-0.001925048828125	2174.88490850894
0.685882568359375	-0.0019287109375	2175.10616050839
0.68145751953125	-0.001932373046875	2175.32741250783
0.677032470703125	-0.0019366455078125	2175.54866450727
0.672607421875	-0.0019403076171875	2175.76991650671
0.668182373046875	-0.00194427490234375	2175.99116850615
0.66375732421875	-0.0019482421875	2176.21242050559
0.659332275390625	-0.00195220947265625	2176.43367250503
0.6549072265625	-0.0019561767578125	2176.65492450447
0.650482177734375	-0.00196014404296875	2176.87617650392
0.64605712890625	-0.00196380615234375	2177.09742850336
0.641632080078125	-0.00196746826171875	2177.3186805028
0.63720703125	-0.0019720458984375	2177.53993250224
0.632781982421875	-0.00197601318359375	2177.76118450168
0.62835693359375	-0.00197998046875	2177.98243650112
0.623931884765625	-0.0019879150390625	2178.20368850056
0.6195068359375	-0.0019915771484375	2178.42494050001
0.615081787109375	-0.00199554443359375	2178.64619249945
0.61065673828125	-0.00199951171875	2178.86744449889
0.606231689453125	-0.00200408935546875	2179.08869649833
0.601806640625	-0.002008056640625	2179.30994849777
0.597381591796875	-0.00201324462890625	2179.53120049721
0.59295654296875	-0.0020172119140625	2179.75245249665
0.588531494140625	-0.002021484375	2179.9737044961
0.5841064453125	-0.00202545166015625	2180.19495649554
0.579681396484375	-0.00203094482421875	2180.41620849498
0.57525634765625	-0.00203582763671875	2180.63746049442
0.570831298828125	-0.00204132080078125	2180.85871249386
0.56640625	-0.0020465087890625	2181.0799644933
0.561981201171875	-0.00205169677734375	2181.30121649274
0.55755615234375	-0.002056884765625	2181.52246849218
0.553131103515625	-0.0020623779296875	2181.74372049163
0.5487060546875	-0.0020684814453125	2181.96497249107
0.544281005859375	-0.00207305908203125	2182.18622449051
0.53985595703125	-0.0020794677734375	2182.40747648995
0.535430908203125	-0.00208465576171875	2182.62872848939
0.531005859375	-0.002091064453125	2182.84998048883
0.526580810546875	-0.00209747314453125	2183.07123248828
0.52215576171875	-0.0021038818359375	2183.29248448772
0.517730712890625	-0.00211029052734375	2183.51373648716
0.5133056640625	-0.00211669921875	2183.7349884866
0.508880615234375	-0.0021234130859375	2183.95624048604
0.50445556640625	-0.00212982177734375	2184.17749248548
0.500030517578125	-0.00213653564453125	2184.39874448492
0.49560546875	-0.002142333984375	2184.61999648436
0.491180419921875	-0.00214935302734375	2184.84124848381
0.48675537109375	-0.0021563720703125	2185.06250048325
0.482330322265625	-0.00216339111328125	2185.28375248269
0.4779052734375	-0.00217041015625	2185.50500448213
0.473480224609375	-0.00217742919921875	2185.72625648157
0.46905517578125	-0.0021844482421875	2185.94750848101
0.464630126953125	-0.00219085693359375	2186.16876048045
0.460205078125	-0.00219818115234375	2186.3900124799
0.455780029296875	-0.00220611572265625	2186.61126447934
0.45135498046875	-0.00221343994140625	2186.83251647878
0.446929931640625	-0.00222076416015625	2187.05376847822
0.4425048828125	-0.00222869873046875	2187.27502047766
0.438079833984375	-0.00223602294921875	2187.4962724771
0.43365478515625	-0.00224365234375	2187.71752447654
0.429229736328125	-0.0022515869140625	2187.93877647599
0.4248046875	-0.00225921630859375	2188.16002847543
0.420379638671875	-0.0022662353515625	2188.38128047487
0.41595458984375	-0.00227386474609375	2188.60253247431
0.411529541015625	-0.002281494140625	2188.82378447375
0.4071044921875	-0.002288818359375	2189.04503647319
0.402679443359375	-0.0022967529296875	2189.26628847263
0.39825439453125	-0.002303466796875	2189.48754047208
0.393829345703125	-0.00231109619140625	2189.70879247152
0.389404296875	-0.00231781005859375	2189.93004447096
0.384979248046875	-0.002325439453125	2190.1512964704
0.38055419921875	-0.002332763671875	2190.37254846984
0.376129150390625	-0.00234039306640625	2190.59380046928
0.3717041015625	-0.00234771728515625	2190.81505246872
0.367279052734375	-0.00235504150390625	2191.03630446817
0.36285400390625	-0.002362060546875	2191.25755646761
0.358428955078125	-0.00236968994140625	2191.47880846705
0.35400390625	-0.0023773193359375	2191.70006046649
0.349578857421875	-0.0023828125	2191.92131246593
0.34515380859375	-0.00239105224609375	2192.14256446537
0.340728759765625	-0.00239837646484375	2192.36381646481
0.3363037109375	-0.0024066162109375	2192.58506846425
0.331878662109375	-0.0024139404296875	2192.8063204637
0.32745361328125	-0.0024212646484375	2193.02757246314
0.323028564453125	-0.00242889404296875	2193.24882446258
0.318603515625	-0.0024371337890625	2193.47007646202
0.314178466796875	-0.002445068359375	2193.69132846146
0.30975341796875	-0.00245574951171875	2193.9125804609
0.305328369140625	-0.0024627685546875	2194.13383246034
0.3009033203125	-0.0024700927734375	2194.35508445979
0.296478271484375	-0.00247772216796875	2194.57633645923
0.29205322265625	-0.00248565673828125	2194.79758845867
0.287628173828125	-0.002493896484375	2195.01884045811
0.283203125	-0.00250244140625	2195.24009245755
0.278778076171875	-0.0025103759765625	2195.46134445699
0.27435302734375	-0.00251922607421875	2195.68259645643
0.269927978515625	-0.00252777099609375	2195.90384845588
0.2655029296875	-0.00253662109375	2196.12510045532
0.261077880859375	-0.00254608154296875	2196.34635245476
0.25665283203125	-0.002554931640625	2196.5676044542
0.252227783203125	-0.00256439208984375	2196.78885645364
0.247802734375	-0.0025738525390625	2197.01010845308
0.243377685546875	-0.00258270263671875	2197.23136045252
0.23895263671875	-0.0025933837890625	2197.45261245197
0.234527587890625	-0.00260284423828125	2197.67386445141
0.2301025390625	-0.0026123046875	2197.89511645085
0.225677490234375	-0.0026226806640625	2198.11636845029
0.22125244140625	-0.002633056640625	2198.33762044973
0.216827392578125	-0.00264373779296875	2198.55887244917
0.21240234375	-0.00265472412109375	2198.78012444861
0.207977294921875	-0.00266571044921875	2199.00137644806
0.20355224609375	-0.0026763916015625	2199.2226284475
0.199127197265625	-0.00268798828125	2199.44388044694
0.1947021484375	-0.00269927978515625	2199.66513244638
0.190277099609375	-0.0027105712890625	2199.88638444582
0.18585205078125	-0.0027227783203125	2200.10763644526
0.181427001953125	-0.00273468017578125	2200.3288884447
0.177001953125	-0.0027471923828125	2200.55014044414
0.172576904296875	-0.002760009765625	2200.77139244359
0.16815185546875	-0.00277313232421875	2200.99264444303
0.163726806640625	-0.0027862548828125	2201.21389644247
0.1593017578125	-0.00279937744140625	2201.43514844191
0.154876708984375	-0.0028125	2201.65640044135
0.15045166015625	-0.00282623291015625	2201.87765244079
0.146026611328125	-0.00284027099609375	2202.09890444023
0.1416015625	-0.00285552978515625	2202.32015643968
0.137176513671875	-0.0028704833984375	2202.54140843912
0.13275146484375	-0.00288543701171875	2202.76266043856
0.128326416015625	-0.00290069580078125	2202.983912438
0.1239013671875	-0.00291656494140625	2203.20516443744
0.119476318359375	-0.00293304443359375	2203.42641643688
0.11505126953125	-0.00294708251953125	2203.64766843632
0.110626220703125	-0.002965087890625	2203.86892043577
0.106201171875	-0.00298187255859375	2204.09017243521
0.101776123046875	-0.00300018310546875	2204.31142443465
0.09735107421875	-0.00301849365234375	2204.53267643409
0.092926025390625	-0.00303680419921875	2204.75392843353
0.0885009765625	-0.00305572509765625	2204.97518043297
0.084075927734375	-0.00307403564453125	2205.19643243241
0.07965087890625	-0.00309295654296875	2205.41768443186
0.075225830078125	-0.0031121826171875	2205.6389364313
0.07080078125	-0.0031329345703125	2205.86018843074
0.066375732421875	-0.00315338134765625	2206.08144043018
0.06195068359375	-0.0031744384765625	2206.30269242962
0.057525634765625	-0.00319580078125	2206.52394442906
0.0531005859375	-0.00321807861328125	2206.7451964285
0.048675537109375	-0.00323974609375	2206.96644842795
0.04425048828125	-0.00326202392578125	2207.18770042739
0.039825439453125	-0.0032855224609375	2207.40895242683
0.035400390625	-0.00330841064453125	2207.63020442627
0.030975341796875	-0.00333251953125	2207.85145642571
0.02655029296875	-0.0033563232421875	2208.07270842515
0.022125244140625	-0.00337982177734375	2208.29396042459
0.0177001953125	-0.003404541015625	2208.51521242403
0.013275146484375	-0.00342987060546875	2208.73646442348
0.00885009765625	-0.00345458984375	2208.95771642292
0.004425048828125	-0.0034808349609375	2209.17896842236
0	-0.0035076904296875	2209.4002204218
0.004425048828125	-0.0028509521484375	2209.62147242124
0.00885009765625	-0.00227691650390625	2209.84272442068
0.013275146484375	-0.0017681884765625	2210.06397642013
0.0177001953125	-0.00131622314453125	2210.28522841957
0.022125244140625	-0.00091217041015625	2210.50648041901
0.02655029296875	-0.00054962158203125	2210.72773241845
0.030975341796875	-0.00022412109375	2210.94898441789
0.035400390625	6.842041015625E-05	2211.17023641733
0.039825439453125	0.000332183837890625	2211.39148841677
0.04425048828125	0.00056976318359375	2211.61274041621
0.048675537109375	0.000784912109375	2211.83399241566
0.0531005859375	0.00097900390625	2212.0552444151
0.057525634765625	0.00115447998046875	2212.27649641454
0.06195068359375	0.0013116455078125	2212.49774841398
0.066375732421875	0.00145263671875	2212.71900041342
0.07080078125	0.00157989501953125	2212.94025241286
0.075225830078125	0.0016949462890625	2213.1615044123
0.07965087890625	0.00179656982421875	2213.38275641175
0.084075927734375	0.00188934326171875	2213.60400841119
0.0885009765625	0.0019708251953125	2213.82526041063
0.092926025390625	0.0020452880859375	2214.04651241007
0.09735107421875	0.00211181640625	2214.26776440951
0.101776123046875	0.00217041015625	2214.48901640895
0.106201171875	0.0022222900390625	2214.71026840839
0.110626220703125	0.00226806640625	2214.93152040784
0.11505126953125	0.002308349609375	2215.15277240728
0.119476318359375	0.00234222412109375	2215.37402440672
0.1239013671875	0.002373046875	2215.59527640616
0.128326416015625	0.00239990234375	2215.8165284056
0.13275146484375	0.0024224853515625	2216.03778040504
0.137176513671875	0.00244171142578125	2216.25903240448
0.1416015625	0.00245758056640625	2216.48028440392
0.146026611328125	0.00247100830078125	2216.70153640337
0.15045166015625	0.00248138427734375	2216.92278840281
0.154876708984375	0.00248992919921875	2217.14404040225
0.1593017578125	0.00249542236328125	2217.36529240169
0.163726806640625	0.00249969482421875	2217.58654440113
0.16815185546875	0.00250213623046875	2217.80779640057
0.172576904296875	0.00250396728515625	2218.02904840002
0.177001953125	0.00250335693359375	2218.25030039946
0.181427001953125	0.00250244140625	2218.4715523989
0.18585205078125	0.0025	2218.69280439834
0.190277099609375	0.00249725341796875	2218.91405639778
0.1947021484375	0.00249267578125	2219.13530839722
0.199127197265625	0.00248779296875	2219.35656039666
0.20355224609375	0.00248260498046875	2219.5778123961
0.207977294921875	0.0024761962890625	2219.79906439555
0.21240234375	0.00246917724609375	2220.02031639499
0.216827392578125	0.00246246337890625	2220.24156839443
0.22125244140625	0.002454833984375	2220.46282039387
0.225677490234375	0.0024481201171875	2220.68407239331
0.2301025390625	0.0024407958984375	2220.90532439275
0.234527587890625	0.002431640625	2221.12657639219
0.23895263671875	0.0024237060546875	2221.34782839164
0.243377685546875	0.00241546630859375	2221.56908039108
0.247802734375	0.00240814208984375	2221.79033239052
0.252227783203125	0.00239959716796875	2222.01158438996
0.25665283203125	0.00239166259765625	2222.2328363894
0.261077880859375	0.0023834228515625	2222.45408838884
0.2655029296875	0.0023748779296875	2222.67534038828
0.269927978515625	0.00236724853515625	2222.89659238773
0.27435302734375	0.0023590087890625	2223.11784438717
0.278778076171875	0.00235198974609375	2223.33909638661
0.283203125	0.00234405517578125	2223.56034838605
0.287628173828125	0.00233734130859375	2223.78160038549
0.29205322265625	0.0023297119140625	2224.00285238493
0.296478271484375	0.002322998046875	2224.22410438437
0.3009033203125	0.002315673828125	2224.44535638382
0.305328369140625	0.00230865478515625	2224.66660838326
0.30975341796875	0.0023016357421875	2224.8878603827
0.314178466796875	0.00229766845703125	2225.10911238214
0.318603515625	0.00229034423828125	2225.33036438158
0.323028564453125	0.002283935546875	2225.55161638102
0.32745361328125	0.0022772216796875	2225.77286838046
0.331878662109375	0.0022711181640625	2225.99412037991
0.3363037109375	0.0022650146484375	2226.21537237935
0.340728759765625	0.00225921630859375	2226.43662437879
0.34515380859375	0.00225341796875	2226.65787637823
0.349578857421875	0.00224761962890625	2226.87912837767
0.35400390625	0.00224029541015625	2227.10038037711
0.358428955078125	0.002235107421875	2227.32163237655
0.36285400390625	0.002230224609375	2227.54288437599
0.367279052734375	0.00222564697265625	2227.76413637544
0.3717041015625	0.0022210693359375	2227.98538837488
0.376129150390625	0.0022161865234375	2228.20664037432
0.38055419921875	0.00221160888671875	2228.42789237376
0.384979248046875	0.0022076416015625	2228.6491443732
0.389404296875	0.002203369140625	2228.87039637264
0.393829345703125	0.0021978759765625	2229.09164837208
0.39825439453125	0.0021929931640625	2229.31290037153
0.402679443359375	0.002188720703125	2229.53415237097
0.4071044921875	0.00218475341796875	2229.75540437041
0.411529541015625	0.00218109130859375	2229.97665636985
0.41595458984375	0.0021771240234375	2230.19790836929
0.420379638671875	0.0021734619140625	2230.41916036873
0.4248046875	0.002169189453125	2230.64041236817
0.429229736328125	0.0021649169921875	2230.86166436762
0.43365478515625	0.00216033935546875	2231.08291636706
0.438079833984375	0.00215667724609375	2231.3041683665
0.4425048828125	0.002152099609375	2231.52542036594
0.446929931640625	0.00214874267578125	2231.74667236538
0.45135498046875	0.002144775390625	2231.96792436482
0.455780029296875	0.00214080810546875	2232.18917636426
0.460205078125	0.00213714599609375	2232.41042836371
0.464630126953125	0.00213348388671875	2232.63168036315
0.46905517578125	0.00212982177734375	2232.85293236259
0.473480224609375	0.00212677001953125	2233.07418436203
0.4779052734375	0.00212310791015625	2233.29543636147
0.482330322265625	0.00212005615234375	2233.51668836091
0.48675537109375	0.00211700439453125	2233.73794036035
0.491180419921875	0.00211334228515625	2233.9591923598
0.49560546875	0.002110595703125	2234.18044435924
0.500030517578125	0.00210693359375	2234.40169635868
0.50445556640625	0.00210418701171875	2234.62294835812
0.508880615234375	0.0021014404296875	2234.84420035756
0.5133056640625	0.00209869384765625	2235.065452357
0.517730712890625	0.002095947265625	2235.28670435644
0.52215576171875	0.002093505859375	2235.50795635588
0.526580810546875	0.00209136962890625	2235.72920835533
0.531005859375	0.002088623046875	2235.95046035477
0.535430908203125	0.00208648681640625	2236.17171235421
0.53985595703125	0.00208404541015625	2236.39296435365
0.544281005859375	0.00208221435546875	2236.61421635309
0.5487060546875	0.0020794677734375	2236.83546835253
0.553131103515625	0.0020782470703125	2237.05672035197
0.55755615234375	0.00207611083984375	2237.27797235142
0.561981201171875	0.00207427978515625	2237.49922435086
0.56640625	0.00207275390625	2237.7204763503
0.570831298828125	0.00207122802734375	2237.94172834974
0.57525634765625	0.00207000732421875	2238.16298034918
0.579681396484375	0.00206878662109375	2238.38423234862
0.5841064453125	0.00206787109375	2238.60548434806
0.588531494140625	0.00206573486328125	2238.82673634751
0.59295654296875	0.0020654296875	2239.04798834695
0.597381591796875	0.0020654296875	2239.26924034639
0.601806640625	0.00206512451171875	2239.49049234583
0.606231689453125	0.0020648193359375	2239.71174434527
0.61065673828125	0.00206512451171875	2239.93299634471
0.615081787109375	0.0020654296875	2240.15424834415
0.6195068359375	0.0020660400390625	2240.3755003436
0.623931884765625	0.00206634521484375	2240.59675234304
0.62835693359375	0.0020703125	2240.81800434248
0.632781982421875	0.00207061767578125	2241.03925634192
0.63720703125	0.002071533203125	2241.26050834136
0.641632080078125	0.00207305908203125	2241.4817603408
0.64605712890625	0.00207366943359375	2241.70301234024
0.650482177734375	0.0020751953125	2241.92426433969
0.6549072265625	0.00207672119140625	2242.14551633913
0.659332275390625	0.00207855224609375	2242.36676833857
0.66375732421875	0.00208099365234375	2242.58802033801
0.668182373046875	0.002083740234375	2242.80927233745
0.672607421875	0.002086181640625	2243.03052433689
0.677032470703125	0.00208953857421875	2243.25177633633
0.68145751953125	0.0020928955078125	2243.47302833577
0.685882568359375	0.00209625244140625	2243.69428033522
0.6903076171875	0.00209930419921875	2243.91553233466
0.694732666015625	0.00210357666015625	2244.1367843341
0.69915771484375	0.002108154296875	2244.35803633354
0.703582763671875	0.00211181640625	2244.57928833298
0.7080078125	0.00211669921875	2244.80054033242
0.712432861328125	0.00212158203125	2245.02179233187
0.71685791015625	0.00212677001953125	2245.24304433131
0.721282958984375	0.002132568359375	2245.46429633075
0.7257080078125	0.0021380615234375	2245.68554833019
0.730133056640625	0.00214385986328125	2245.90680032963
0.73455810546875	0.0021502685546875	2246.12805232907
0.738983154296875	0.00215728759765625	2246.34930432851
0.743408203125	0.0021624755859375	2246.57055632795
0.747833251953125	0.00217010498046875	2246.7918083274
0.75225830078125	0.00217681884765625	2247.01306032684
0.756683349609375	0.00218505859375	2247.23431232628
0.7611083984375	0.002193603515625	2247.45556432572
0.765533447265625	0.0022021484375	2247.67681632516
0.76995849609375	0.00221099853515625	2247.8980683246
0.774383544921875	0.002220458984375	2248.11932032404
0.77880859375	0.00222991943359375	2248.34057232349
0.783233642578125	0.002239990234375	2248.56182432293
0.78765869140625	0.00225067138671875	2248.78307632237
0.792083740234375	0.0022613525390625	2249.00432832181
0.7965087890625	0.00227264404296875	2249.22558032125
0.800933837890625	0.00228485107421875	2249.44683232069
0.80535888671875	0.00229766845703125	2249.66808432013
0.809783935546875	0.00231109619140625	2249.88933631958
0.814208984375	0.0023248291015625	2250.11058831902
0.818634033203125	0.0023388671875	2250.33184031846
0.82305908203125	0.00235321044921875	2250.5530923179
0.827484130859375	0.0023687744140625	2250.77434431734
0.8319091796875	0.00238494873046875	2250.99559631678
0.836334228515625	0.00240203857421875	2251.21684831622
0.84075927734375	0.00241973876953125	2251.43810031566
0.845184326171875	0.002437744140625	2251.65935231511
0.849609375	0.00245635986328125	2251.88060431455
0.854034423828125	0.002476806640625	2252.10185631399
0.85845947265625	0.0024969482421875	2252.32310831343
0.862884521484375	0.00251800537109375	2252.54436031287
0.8673095703125	0.00253936767578125	2252.76561231231
0.871734619140625	0.00256317138671875	2252.98686431176
0.87615966796875	0.00258697509765625	2253.2081163112
0.880584716796875	0.00261138916015625	2253.42936831064
0.885009765625	0.00263702392578125	2253.65062031008
0.889434814453125	0.00266357421875	2253.87187230952
0.89385986328125	0.00269073486328125	2254.09312430896
0.898284912109375	0.00271881103515625	2254.3143763084
0.9027099609375	0.0027471923828125	2254.53562830784
0.907135009765625	0.0027777099609375	2254.75688030729
0.91156005859375	0.0028076171875	2254.97813230673
0.915985107421875	0.0028387451171875	2255.19938430617
0.92041015625	0.00287109375	2255.42063630561
0.924835205078125	0.0029046630859375	2255.64188830505
0.92926025390625	0.0029388427734375	2255.86314030449
0.933685302734375	0.00297332763671875	2256.08439230393
0.9381103515625	0.003011474609375	2256.30564430338
0.942535400390625	0.00304779052734375	2256.52689630282
0.94696044921875	0.00308563232421875	2256.74814830226
0.951385498046875	0.0031243896484375	2256.9694003017
0.955810546875	0.0031646728515625	2257.19065230114
0.960235595703125	0.003206787109375	2257.41190430058
0.96466064453125	0.003250732421875	2257.63315630002
0.969085693359375	0.00329498291015625	2257.85440829947
0.9735107421875	0.0033428955078125	2258.07566029891
0.977935791015625	0.00339111328125	2258.29691229835
0.98236083984375	0.00344390869140625	2258.51816429779
0.986785888671875	0.0034991455078125	2258.73941629723
0.9912109375	0.00355712890625	2258.96066829667
0.995635986328125	0.00361907958984375	2259.18192029611
1.00006103515625	0.0036846923828125	2259.40317229556
0.995635986328125	0.00309814453125	2259.624424295
0.9912109375	0.0026031494140625	2259.84567629444
0.986785888671875	0.0021759033203125	2260.06692829388
0.98236083984375	0.0017999267578125	2260.28818029332
0.977935791015625	0.001466064453125	2260.50943229276
0.9735107421875	0.001168212890625	2260.7306842922
0.969085693359375	0.00089874267578125	2260.95193629165
0.96466064453125	0.00065460205078125	2261.17318829109
0.960235595703125	0.000432952880859375	2261.39444029053
0.955810546875	0.000231231689453125	2261.61569228997
0.951385498046875	4.77294921875E-05	2261.83694428941
0.94696044921875	-0.000120025634765625	2262.05819628885
0.942535400390625	-0.00027288818359375	2262.27944828829
0.9381103515625	-0.00041259765625	2262.50070028773
0.933685302734375	-0.000542266845703125	2262.72195228718
0.92926025390625	-0.000657806396484375	2262.94320428662
0.924835205078125	-0.00076324462890625	2263.16445628606
0.92041015625	-0.000859375	2263.3857082855
0.915985107421875	-0.00094696044921875	2263.60696028494
0.91156005859375	-0.001026611328125	2263.82821228438
0.907135009765625	-0.00109832763671875	2264.04946428382
0.9027099609375	-0.00116424560546875	2264.27071628327
0.898284912109375	-0.00122406005859375	2264.49196828271
0.89385986328125	-0.001278076171875	2264.71322028215
0.889434814453125	-0.00132781982421875	2264.93447228159
0.885009765625	-0.0013726806640625	2265.15572428103
0.880584716796875	-0.00141326904296875	2265.37697628047
0.87615966796875	-0.00145050048828125	2265.59822827991
0.871734619140625	-0.00148468017578125	2265.81948027936
0.8673095703125	-0.0015155029296875	2266.0407322788
0.862884521484375	-0.001544189453125	2266.26198427824
0.85845947265625	-0.00156982421875	2266.48323627768
0.854034423828125	-0.0015936279296875	2266.70448827712
0.849609375	-0.00161590576171875	2266.92574027656
0.845184326171875	-0.0016363525390625	2267.146992276
0.84075927734375	-0.00165496826171875	2267.36824427545
0.836334228515625	-0.00167144775390625	2267.58949627489
0.8319091796875	-0.001688232421875	2267.81074827433
0.827484130859375	-0.001702880859375	2268.03200027377
0.82305908203125	-0.00171661376953125	2268.25325227321
0.818634033203125	-0.0017291259765625	2268.47450427265
0.814208984375	-0.0017413330078125	2268.69575627209
0.809783935546875	-0.00175201416015625	2268.91700827154
0.80535888671875	-0.00176239013671875	2269.13826027098
0.800933837890625	-0.00177215576171875	2269.35951227042
0.7965087890625	-0.00178131103515625	2269.58076426986
0.792083740234375	-0.0017901611328125	2269.8020162693
0.78765869140625	-0.00179840087890625	2270.02326826874
0.783233642578125	-0.0018060302734375	2270.24452026818
0.77880859375	-0.0018133544921875	2270.46577226762
0.774383544921875	-0.001820068359375	2270.68702426707
0.76995849609375	-0.00182647705078125	2270.90827626651
0.765533447265625	-0.00183319091796875	2271.12952826595
0.7611083984375	-0.00183929443359375	2271.35078026539
0.756683349609375	-0.00184539794921875	2271.57203226483
0.75225830078125	-0.00185150146484375	2271.79328426427
0.747833251953125	-0.001856689453125	2272.01453626371
0.743408203125	-0.0018621826171875	2272.23578826316
0.738983154296875	-0.00186553955078125	2272.4570402626
0.73455810546875	-0.00187103271484375	2272.67829226204
0.730133056640625	-0.00187652587890625	2272.89954426148
0.7257080078125	-0.00188140869140625	2273.12079626092
0.721282958984375	-0.001885986328125	2273.34204826036
0.71685791015625	-0.0018902587890625	2273.5633002598
0.712432861328125	-0.00189453125	2273.78455225925
0.7080078125	-0.00189910888671875	2274.00580425869
0.703582763671875	-0.00190338134765625	2274.22705625813
0.69915771484375	-0.00190673828125	2274.44830825757
0.694732666015625	-0.00191131591796875	2274.66956025701
0.6903076171875	-0.001915283203125	2274.89081225645
0.685882568359375	-0.00191925048828125	2275.11206425589
0.68145751953125	-0.0019232177734375	2275.33331625534
0.677032470703125	-0.0019268798828125	2275.55456825478
0.672607421875	-0.001929931640625	2275.77582025422
0.668182373046875	-0.00193359375	2275.99707225366
0.66375732421875	-0.00193756103515625	2276.2183242531
0.659332275390625	-0.00194122314453125	2276.43957625254
0.6549072265625	-0.0019451904296875	2276.66082825198
0.650482177734375	-0.0019488525390625	2276.88208025143
0.64605712890625	-0.00195281982421875	2277.10333225087
0.641632080078125	-0.001956787109375	2277.32458425031
0.63720703125	-0.001961669921875	2277.54583624975
0.632781982421875	-0.00196533203125	2277.76708824919
0.62835693359375	-0.00196929931640625	2277.98834024863
0.623931884765625	-0.001976318359375	2278.20959224807
0.6195068359375	-0.0019805908203125	2278.43084424751
0.615081787109375	-0.0019842529296875	2278.65209624696
0.61065673828125	-0.00198822021484375	2278.8733482464
0.606231689453125	-0.00199249267578125	2279.09460024584
0.601806640625	-0.0019970703125	2279.31585224528
0.597381591796875	-0.00200164794921875	2279.53710424472
0.59295654296875	-0.0020062255859375	2279.75835624416
0.588531494140625	-0.0020111083984375	2279.97960824361
0.5841064453125	-0.00201446533203125	2280.20086024305
0.579681396484375	-0.00201934814453125	2280.42211224249
0.57525634765625	-0.0020245361328125	2280.64336424193
0.570831298828125	-0.00202972412109375	2280.86461624137
0.56640625	-0.0020355224609375	2281.08586824081
0.561981201171875	-0.002041015625	2281.30712024025
0.55755615234375	-0.00204620361328125	2281.52837223969
0.553131103515625	-0.002052001953125	2281.74962423914
0.5487060546875	-0.0020574951171875	2281.97087623858
0.544281005859375	-0.00206207275390625	2282.19212823802
0.53985595703125	-0.0020684814453125	2282.41338023746
0.535430908203125	-0.00207366943359375	2282.6346322369
0.531005859375	-0.002080078125	2282.85588423634
0.526580810546875	-0.00208587646484375	2283.07713623578
0.52215576171875	-0.00209228515625	2283.29838823523
0.517730712890625	-0.002098388671875	2283.51964023467
0.5133056640625	-0.00210479736328125	2283.74089223411
0.508880615234375	-0.00211151123046875	2283.96214423355
0.50445556640625	-0.00211822509765625	2284.18339623299
0.500030517578125	-0.0021246337890625	2284.40464823243
0.49560546875	-0.00213134765625	2284.62590023187
0.491180419921875	-0.0021380615234375	2284.84715223132
0.48675537109375	-0.00214447021484375	2285.06840423076
0.482330322265625	-0.00215240478515625	2285.2896562302
0.4779052734375	-0.002159423828125	2285.51090822964
0.473480224609375	-0.00216644287109375	2285.73216022908
0.46905517578125	-0.00217315673828125	2285.95341222852
0.464630126953125	-0.0021795654296875	2286.17466422796
0.460205078125	-0.0021868896484375	2286.3959162274
0.455780029296875	-0.00219390869140625	2286.61716822685
0.45135498046875	-0.002200927734375	2286.83842022629
0.446929931640625	-0.00220916748046875	2287.05967222573
0.4425048828125	-0.002216796875	2287.28092422517
0.438079833984375	-0.00222381591796875	2287.50217622461
0.43365478515625	-0.0022314453125	2287.72342822405
0.429229736328125	-0.00223876953125	2287.9446802235
0.4248046875	-0.00224639892578125	2288.16593222294
0.420379638671875	-0.0022540283203125	2288.38718422238
0.41595458984375	-0.0022613525390625	2288.60843622182
0.411529541015625	-0.00226837158203125	2288.82968822126
0.4071044921875	-0.0022760009765625	2289.0509402207
0.402679443359375	-0.0022833251953125	2289.27219222014
0.39825439453125	-0.0022906494140625	2289.49344421958
0.393829345703125	-0.00229827880859375	2289.71469621903
0.389404296875	-0.0023046875	2289.93594821847
0.384979248046875	-0.00231231689453125	2290.15720021791
0.38055419921875	-0.0023193359375	2290.37845221735
0.376129150390625	-0.00232666015625	2290.59970421679
0.3717041015625	-0.002333984375	2290.82095621623
0.367279052734375	-0.00234100341796875	2291.04220821567
0.36285400390625	-0.0023486328125	2291.26346021512
0.358428955078125	-0.0023553466796875	2291.48471221456
0.35400390625	-0.00236297607421875	2291.705964214
0.349578857421875	-0.00236846923828125	2291.92721621344
0.34515380859375	-0.002376708984375	2292.14846821288
0.340728759765625	-0.00238433837890625	2292.36972021232
0.3363037109375	-0.00239166259765625	2292.59097221176
0.331878662109375	-0.00239898681640625	2292.81222421121
0.32745361328125	-0.0024072265625	2293.03347621065
0.323028564453125	-0.00241485595703125	2293.25472821009
0.318603515625	-0.002421875	2293.47598020953
0.314178466796875	-0.00243011474609375	2293.69723220897
0.30975341796875	-0.002440185546875	2293.91848420841
0.305328369140625	-0.0024481201171875	2294.13973620785
0.3009033203125	-0.00245574951171875	2294.3609882073
0.296478271484375	-0.00246368408203125	2294.58224020674
0.29205322265625	-0.002470703125	2294.80349220618
0.287628173828125	-0.00247894287109375	2295.02474420562
0.283203125	-0.00248748779296875	2295.24599620506
0.278778076171875	-0.00249603271484375	2295.4672482045
0.27435302734375	-0.0025042724609375	2295.68850020394
0.269927978515625	-0.00251190185546875	2295.90975220339
0.2655029296875	-0.00252105712890625	2296.13100420283
0.261077880859375	-0.0025299072265625	2296.35225620227
0.25665283203125	-0.00253875732421875	2296.57350820171
0.252227783203125	-0.0025482177734375	2296.79476020115
0.247802734375	-0.00255828857421875	2297.01601220059
0.243377685546875	-0.00256683349609375	2297.23726420003
0.23895263671875	-0.002576904296875	2297.45851619947
0.234527587890625	-0.00258697509765625	2297.67976819892
0.2301025390625	-0.0025958251953125	2297.90102019836
0.225677490234375	-0.00260650634765625	2298.1222721978
0.22125244140625	-0.0026165771484375	2298.34352419724
0.216827392578125	-0.00262664794921875	2298.56477619668
0.21240234375	-0.00263763427734375	2298.78602819612
0.207977294921875	-0.00264923095703125	2299.00728019556
0.20355224609375	-0.00265960693359375	2299.22853219501
0.199127197265625	-0.0026708984375	2299.44978419445
0.1947021484375	-0.00268218994140625	2299.67103619389
0.190277099609375	-0.00269439697265625	2299.89228819333
0.18585205078125	-0.0027056884765625	2300.11354019277
0.181427001953125	-0.00271759033203125	2300.33479219221
0.177001953125	-0.00272979736328125	2300.55604419165
0.172576904296875	-0.00274200439453125	2300.7772961911
0.16815185546875	-0.00275482177734375	2300.99854819054
0.163726806640625	-0.0027679443359375	2301.21980018998
0.1593017578125	-0.0027813720703125	2301.44105218942
0.154876708984375	-0.00279388427734375	2301.66230418886
0.15045166015625	-0.0028076171875	2301.8835561883
0.146026611328125	-0.0028216552734375	2302.10480818774
0.1416015625	-0.002835693359375	2302.32606018719
0.137176513671875	-0.00285064697265625	2302.54731218663
0.13275146484375	-0.00286529541015625	2302.76856418607
0.128326416015625	-0.002880859375	2302.98981618551
0.1239013671875	-0.00289581298828125	2303.21106818495
0.119476318359375	-0.00291168212890625	2303.43232018439
0.11505126953125	-0.002926025390625	2303.65357218383
0.110626220703125	-0.0029425048828125	2303.87482418328
0.106201171875	-0.002958984375	2304.09607618272
0.101776123046875	-0.00297607421875	2304.31732818216
0.09735107421875	-0.0029937744140625	2304.5385801816
0.092926025390625	-0.0030108642578125	2304.75983218104
0.0885009765625	-0.00302978515625	2304.98108418048
0.084075927734375	-0.00304779052734375	2305.20233617992
0.07965087890625	-0.00306640625	2305.42358817936
0.075225830078125	-0.00308502197265625	2305.64484017881
0.07080078125	-0.0031048583984375	2305.86609217825
0.066375732421875	-0.003123779296875	2306.08734417769
0.06195068359375	-0.00314453125	2306.30859617713
0.057525634765625	-0.00316558837890625	2306.52984817657
0.0531005859375	-0.00318634033203125	2306.75110017601
0.048675537109375	-0.0032073974609375	2306.97235217545
0.04425048828125	-0.0032293701171875	2307.1936041749
0.039825439453125	-0.00325164794921875	2307.41485617434
0.035400390625	-0.00327362060546875	2307.63610817378
0.030975341796875	-0.0032958984375	2307.85736017322
0.02655029296875	-0.003319091796875	2308.07861217266
0.022125244140625	-0.003343505859375	2308.2998641721
0.0177001953125	-0.00336761474609375	2308.52111617154
0.013275146484375	-0.00339141845703125	2308.74236817099
0.00885009765625	-0.00341644287109375	2308.96362017043
0.004425048828125	-0.0034423828125	2309.18487216987
0	-0.00346832275390625	2309.40612416931
0.004425048828125	-0.0028118896484375	2309.62737616875
0.00885009765625	-0.002237548828125	2309.84862816819
0.013275146484375	-0.00172943115234375	2310.06988016763
0.0177001953125	-0.0012774658203125	2310.29113216708
0.022125244140625	-0.0008740234375	2310.51238416652
0.02655029296875	-0.00051300048828125	2310.73363616596
0.030975341796875	-0.00018890380859375	2310.9548881654
0.035400390625	0.00010284423828125	2311.17614016484
0.039825439453125	0.00036517333984375	2311.39739216428
0.04425048828125	0.000601806640625	2311.61864416372
0.048675537109375	0.00081512451171875	2311.83989616317
0.0531005859375	0.00100799560546875	2312.06114816261
0.057525634765625	0.001181640625	2312.28240016205
0.06195068359375	0.001337890625	2312.50365216149
0.066375732421875	0.00147796630859375	2312.72490416093
0.07080078125	0.00160400390625	2312.94615616037
0.075225830078125	0.001717529296875	2313.16740815981
0.07965087890625	0.00181793212890625	2313.38866015925
0.084075927734375	0.00190948486328125	2313.6099121587
0.0885009765625	0.001990966796875	2313.83116415814
0.092926025390625	0.0020635986328125	2314.05241615758
0.09735107421875	0.00212890625	2314.27366815702
0.101776123046875	0.00218658447265625	2314.49492015646
0.106201171875	0.00223724365234375	2314.7161721559
0.110626220703125	0.0022821044921875	2314.93742415535
0.11505126953125	0.0023223876953125	2315.15867615479
0.119476318359375	0.002354736328125	2315.37992815423
0.1239013671875	0.00238494873046875	2315.60118015367
0.128326416015625	0.00241058349609375	2315.82243215311
0.13275146484375	0.00243255615234375	2316.04368415255
0.137176513671875	0.00245147705078125	2316.26493615199
0.1416015625	0.00246612548828125	2316.48618815143
0.146026611328125	0.00247955322265625	2316.70744015088
0.15045166015625	0.00248931884765625	2316.92869215032
0.154876708984375	0.00249664306640625	2317.14994414976
0.1593017578125	0.00250213623046875	2317.3711961492
0.163726806640625	0.00250579833984375	2317.59244814864
0.16815185546875	0.00250823974609375	2317.81370014808
0.172576904296875	0.002508544921875	2318.03495214752
0.177001953125	0.0025079345703125	2318.25620414697
0.181427001953125	0.002506103515625	2318.47745614641
0.18585205078125	0.002503662109375	2318.69870814585
0.190277099609375	0.00250091552734375	2318.91996014529
0.1947021484375	0.002496337890625	2319.14121214473
0.199127197265625	0.0024908447265625	2319.36246414417
0.20355224609375	0.00248504638671875	2319.58371614361
0.207977294921875	0.00247772216796875	2319.80496814306
0.21240234375	0.00247100830078125	2320.0262201425
0.216827392578125	0.00246368408203125	2320.24747214194
0.22125244140625	0.00245635986328125	2320.46872414138
0.225677490234375	0.00244842529296875	2320.68997614082
0.2301025390625	0.0024407958984375	2320.91122814026
0.234527587890625	0.0024310302734375	2321.1324801397
0.23895263671875	0.00242340087890625	2321.35373213914
0.243377685546875	0.0024151611328125	2321.57498413859
0.247802734375	0.0024066162109375	2321.79623613803
0.252227783203125	0.00239837646484375	2322.01748813747
0.25665283203125	0.00238983154296875	2322.23874013691
0.261077880859375	0.0023822021484375	2322.45999213635
0.2655029296875	0.002373046875	2322.68124413579
0.269927978515625	0.0023651123046875	2322.90249613524
0.27435302734375	0.00235748291015625	2323.12374813468
0.278778076171875	0.00234954833984375	2323.34500013412
0.283203125	0.002342529296875	2323.56625213356
0.287628173828125	0.00233489990234375	2323.787504133
0.29205322265625	0.00232757568359375	2324.00875613244
0.296478271484375	0.00231964111328125	2324.23000813188
0.3009033203125	0.00231231689453125	2324.45126013132
0.305328369140625	0.00230560302734375	2324.67251213077
0.30975341796875	0.00229827880859375	2324.89376413021
0.314178466796875	0.00229400634765625	2325.11501612965
0.318603515625	0.00228668212890625	2325.33626812909
0.323028564453125	0.0022802734375	2325.55752012853
0.32745361328125	0.0022735595703125	2325.77877212797
0.331878662109375	0.00226715087890625	2326.00002412741
0.3363037109375	0.0022607421875	2326.22127612686
0.340728759765625	0.0022552490234375	2326.4425281263
0.34515380859375	0.0022491455078125	2326.66378012574
0.349578857421875	0.00224334716796875	2326.88503212518
0.35400390625	0.002236328125	2327.10628412462
0.358428955078125	0.0022314453125	2327.32753612406
0.36285400390625	0.00222625732421875	2327.5487881235
0.367279052734375	0.00222137451171875	2327.77004012295
0.3717041015625	0.00221649169921875	2327.99129212239
0.376129150390625	0.0022113037109375	2328.21254412183
0.38055419921875	0.0022064208984375	2328.43379612127
0.384979248046875	0.00220184326171875	2328.65504812071
0.389404296875	0.0021978759765625	2328.87630012015
0.393829345703125	0.0021929931640625	2329.09755211959
0.39825439453125	0.0021881103515625	2329.31880411904
0.402679443359375	0.0021844482421875	2329.54005611848
0.4071044921875	0.0021807861328125	2329.76130811792
0.411529541015625	0.00217620849609375	2329.98256011736
0.41595458984375	0.0021722412109375	2330.2038121168
0.420379638671875	0.00216796875	2330.42506411624
0.4248046875	0.0021636962890625	2330.64631611568
0.429229736328125	0.0021600341796875	2330.86756811513
0.43365478515625	0.0021551513671875	2331.08882011457
0.438079833984375	0.00215087890625	2331.31007211401
0.4425048828125	0.00214752197265625	2331.53132411345
0.446929931640625	0.0021441650390625	2331.75257611289
0.45135498046875	0.00213958740234375	2331.97382811233
0.455780029296875	0.00213653564453125	2332.19508011177
0.460205078125	0.00213226318359375	2332.41633211121
0.464630126953125	0.0021282958984375	2332.63758411066
0.46905517578125	0.0021246337890625	2332.8588361101
0.473480224609375	0.0021209716796875	2333.08008810954
0.4779052734375	0.0021173095703125	2333.30134010898
0.482330322265625	0.00211456298828125	2333.52259210842
0.48675537109375	0.0021112060546875	2333.74384410786
0.491180419921875	0.002108154296875	2333.9650961073
0.49560546875	0.0021051025390625	2334.18634810675
0.500030517578125	0.00210174560546875	2334.40760010619
0.50445556640625	0.0020989990234375	2334.62885210563
0.508880615234375	0.00209625244140625	2334.85010410507
0.5133056640625	0.00209320068359375	2335.07135610451
0.517730712890625	0.00209075927734375	2335.29260810395
0.52215576171875	0.00208770751953125	2335.51386010339
0.526580810546875	0.0020855712890625	2335.73511210284
0.531005859375	0.0020831298828125	2335.95636410228
0.535430908203125	0.00208099365234375	2336.17761610172
0.53985595703125	0.00207855224609375	2336.39886810116
0.544281005859375	0.002076416015625	2336.6201201006
0.5487060546875	0.00207366943359375	2336.84137210004
0.553131103515625	0.0020721435546875	2337.06262409948
0.55755615234375	0.0020703125	2337.28387609893
0.561981201171875	0.00206878662109375	2337.50512809837
0.56640625	0.002066650390625	2337.72638009781
0.570831298828125	0.00206512451171875	2337.94763209725
0.57525634765625	0.00206390380859375	2338.16888409669
0.579681396484375	0.0020623779296875	2338.39013609613
0.5841064453125	0.00206146240234375	2338.61138809557
0.588531494140625	0.00205841064453125	2338.83264009502
0.59295654296875	0.00205841064453125	2339.05389209446
0.597381591796875	0.00205810546875	2339.2751440939
0.601806640625	0.00205780029296875	2339.49639609334
0.606231689453125	0.0020574951171875	2339.71764809278
0.61065673828125	0.0020574951171875	2339.93890009222
0.615081787109375	0.00205841064453125	2340.16015209166
0.6195068359375	0.00205841064453125	2340.3814040911
0.623931884765625	0.00205902099609375	2340.60265609055
0.62835693359375	0.00206268310546875	2340.82390808999
0.632781982421875	0.00206329345703125	2341.04516008943
0.63720703125	0.0020635986328125	2341.26641208887
0.641632080078125	0.00206451416015625	2341.48766408831
0.64605712890625	0.00206573486328125	2341.70891608775
0.650482177734375	0.0020672607421875	2341.93016808719
0.6549072265625	0.002069091796875	2342.15142008664
0.659332275390625	0.0020703125	2342.37267208608
0.66375732421875	0.00207305908203125	2342.59392408552
0.668182373046875	0.0020751953125	2342.81517608496
0.672607421875	0.0020782470703125	2343.0364280844
0.677032470703125	0.00208099365234375	2343.25768008384
0.68145751953125	0.00208404541015625	2343.47893208328
0.685882568359375	0.00208770751953125	2343.70018408273
0.6903076171875	0.0020916748046875	2343.92143608217
0.694732666015625	0.00209564208984375	2344.14268808161
0.69915771484375	0.00209930419921875	2344.36394008105
0.703582763671875	0.00210296630859375	2344.58519208049
0.7080078125	0.00210723876953125	2344.80644407993
0.712432861328125	0.00211212158203125	2345.02769607937
0.71685791015625	0.00211700439453125	2345.24894807882
0.721282958984375	0.0021221923828125	2345.47020007826
0.7257080078125	0.00212860107421875	2345.6914520777
0.730133056640625	0.00213409423828125	2345.91270407714
0.73455810546875	0.00214019775390625	2346.13395607658
0.738983154296875	0.00214691162109375	2346.35520807602
0.743408203125	0.00215240478515625	2346.57646007546
0.747833251953125	0.00215972900390625	2346.79771207491
0.75225830078125	0.002166748046875	2347.01896407435
0.756683349609375	0.0021746826171875	2347.24021607379
0.7611083984375	0.0021832275390625	2347.46146807323
0.765533447265625	0.002191162109375	2347.68272007267
0.76995849609375	0.0022003173828125	2347.90397207211
0.774383544921875	0.00220855712890625	2348.12522407155
0.77880859375	0.00221832275390625	2348.34647607099
0.783233642578125	0.00222808837890625	2348.56772807044
0.78765869140625	0.00223846435546875	2348.78898006988
0.792083740234375	0.00224945068359375	2349.01023206932
0.7965087890625	0.0022607421875	2349.23148406876
0.800933837890625	0.00227264404296875	2349.4527360682
0.80535888671875	0.00228515625	2349.67398806764
0.809783935546875	0.00229827880859375	2349.89524006709
0.814208984375	0.00231201171875	2350.11649206653
0.818634033203125	0.002325439453125	2350.33774406597
0.82305908203125	0.00233978271484375	2350.55899606541
0.827484130859375	0.002354736328125	2350.78024806485
0.8319091796875	0.00237091064453125	2351.00150006429
0.836334228515625	0.00238739013671875	2351.22275206373
0.84075927734375	0.00240509033203125	2351.44400406317
0.845184326171875	0.00242279052734375	2351.66525606262
0.849609375	0.00244140625	2351.88650806206
0.854034423828125	0.0024615478515625	2352.1077600615
0.85845947265625	0.002481689453125	2352.32901206094
0.862884521484375	0.0025018310546875	2352.55026406038
0.8673095703125	0.0025238037109375	2352.77151605982
0.871734619140625	0.00254669189453125	2352.99276805926
0.87615966796875	0.002569580078125	2353.21402005871
0.880584716796875	0.0025946044921875	2353.43527205815
0.885009765625	0.0026202392578125	2353.65652405759
0.889434814453125	0.00264617919921875	2353.87777605703
0.89385986328125	0.0026727294921875	2354.09902805647
0.898284912109375	0.00270111083984375	2354.32028005591
0.9027099609375	0.0027288818359375	2354.54153205535
0.907135009765625	0.00275848388671875	2354.7627840548
0.91156005859375	0.002789306640625	2354.98403605424
0.915985107421875	0.0028204345703125	2355.20528805368
0.92041015625	0.0028515625	2355.42654005312
0.924835205078125	0.00288482666015625	2355.64779205256
0.92926025390625	0.002918701171875	2355.869044052
0.933685302734375	0.00295318603515625	2356.09029605144
0.9381103515625	0.00299102783203125	2356.31154805088
0.942535400390625	0.00302764892578125	2356.53280005033
0.94696044921875	0.0030657958984375	2356.75405204977
0.951385498046875	0.0031048583984375	2356.97530404921
0.955810546875	0.0031451416015625	2357.19655604865
0.960235595703125	0.003187255859375	2357.41780804809
0.96466064453125	0.00323150634765625	2357.63906004753
0.969085693359375	0.00327728271484375	2357.86031204698
0.9735107421875	0.00332489013671875	2358.08156404642
0.977935791015625	0.00337249755859375	2358.30281604586
0.98236083984375	0.0034259033203125	2358.5240680453
0.986785888671875	0.00348175048828125	2358.74532004474
0.9912109375	0.003541259765625	2358.96657204418
0.995635986328125	0.00360382080078125	2359.18782404362
1.00006103515625	0.00366943359375	2359.40907604306
0.995635986328125	0.00308441162109375	2359.63032804251
0.9912109375	0.0025909423828125	2359.85158004195
0.986785888671875	0.0021649169921875	2360.07283204139
0.98236083984375	0.001790771484375	2360.29408404083
0.977935791015625	0.00145721435546875	2360.51533604027
0.9735107421875	0.0011614990234375	2360.73658803971
0.969085693359375	0.00089263916015625	2360.95784003915
0.96466064453125	0.0006494140625	2361.1790920386
0.960235595703125	0.000428436279296875	2361.40034403804
0.955810546875	0.00022802734375	2361.62159603748
0.951385498046875	4.4952392578125E-05	2361.84284803692
0.94696044921875	-0.000121826171875	2362.06410003636
0.942535400390625	-0.0002740478515625	2362.2853520358
0.9381103515625	-0.00041339111328125	2362.50660403524
0.933685302734375	-0.00054229736328125	2362.72785603469
0.92926025390625	-0.000657501220703125	2362.94910803413
0.924835205078125	-0.00076263427734375	2363.17036003357
0.92041015625	-0.000858154296875	2363.39161203301
0.915985107421875	-0.00094482421875	2363.61286403245
0.91156005859375	-0.00102386474609375	2363.83411603189
0.907135009765625	-0.00109619140625	2364.05536803133
0.9027099609375	-0.001160888671875	2364.27662003078
0.898284912109375	-0.001220703125	2364.49787203022
0.89385986328125	-0.0012744140625	2364.71912402966
0.889434814453125	-0.00132354736328125	2364.9403760291
0.885009765625	-0.00136810302734375	2365.16162802854
0.880584716796875	-0.00140838623046875	2365.38288002798
0.87615966796875	-0.0014453125	2365.60413202742
0.871734619140625	-0.0014794921875	2365.82538402687
0.8673095703125	-0.00150970458984375	2366.04663602631
0.862884521484375	-0.00153778076171875	2366.26788802575
0.85845947265625	-0.0015625	2366.48914002519
0.854034423828125	-0.00158599853515625	2366.71039202463
0.849609375	-0.0016082763671875	2366.93164402407
0.845184326171875	-0.00162841796875	2367.15289602351
0.84075927734375	-0.00164642333984375	2367.37414802295
0.836334228515625	-0.00166412353515625	2367.5954000224
0.8319091796875	-0.00167999267578125	2367.81665202184
0.827484130859375	-0.0016943359375	2368.03790402128
0.82305908203125	-0.00170806884765625	2368.25915602072
0.818634033203125	-0.00171966552734375	2368.48040802016
0.814208984375	-0.00173126220703125	2368.7016600196
0.809783935546875	-0.0017425537109375	2368.92291201904
0.80535888671875	-0.00175323486328125	2369.14416401849
0.800933837890625	-0.00176300048828125	2369.36541601793
0.7965087890625	-0.0017718505859375	2369.58666801737
0.792083740234375	-0.0017803955078125	2369.80792001681
0.78765869140625	-0.001788330078125	2370.02917201625
0.783233642578125	-0.001795654296875	2370.25042401569
0.77880859375	-0.0018023681640625	2370.47167601513
0.774383544921875	-0.00180938720703125	2370.69292801458
0.76995849609375	-0.00181640625	2370.91418001402
0.765533447265625	-0.001822509765625	2371.13543201346
0.7611083984375	-0.00182861328125	2371.3566840129
0.756683349609375	-0.00183441162109375	2371.57793601234
0.75225830078125	-0.00184051513671875	2371.79918801178
0.747833251953125	-0.00184600830078125	2372.02044001122
0.743408203125	-0.0018511962890625	2372.24169201067
0.738983154296875	-0.00185516357421875	2372.46294401011
0.73455810546875	-0.0018603515625	2372.68419600955
0.730133056640625	-0.00186553955078125	2372.90544800899
0.7257080078125	-0.00186981201171875	2373.12670000843
0.721282958984375	-0.00187469482421875	2373.34795200787
0.71685791015625	-0.00187957763671875	2373.56920400731
0.712432861328125	-0.00188385009765625	2373.79045600676
0.7080078125	-0.00188812255859375	2374.0117080062
0.703582763671875	-0.00189208984375	2374.23296000564
0.69915771484375	-0.001895751953125	2374.45421200508
0.694732666015625	-0.00189971923828125	2374.67546400452
0.6903076171875	-0.0019036865234375	2374.89671600396
0.685882568359375	-0.00190826416015625	2375.1179680034
0.68145751953125	-0.00191192626953125	2375.33922000284
0.677032470703125	-0.00191558837890625	2375.56047200229
0.672607421875	-0.0019195556640625	2375.78172400173
0.668182373046875	-0.0019232177734375	2376.00297600117
0.66375732421875	-0.0019268798828125	2376.22422800061
0.659332275390625	-0.00193084716796875	2376.44548000005
0.6549072265625	-0.0019342041015625	2376.66673199949
0.650482177734375	-0.0019384765625	2376.88798399893
0.64605712890625	-0.00194244384765625	2377.10923599838
0.641632080078125	-0.00194610595703125	2377.33048799782
0.63720703125	-0.00195098876953125	2377.55173999726
0.632781982421875	-0.00195465087890625	2377.7729919967
0.62835693359375	-0.001959228515625	2377.99424399614
0.623931884765625	-0.00196624755859375	2378.21549599558
0.6195068359375	-0.00197021484375	2378.43674799502
0.615081787109375	-0.00197357177734375	2378.65799999447
0.61065673828125	-0.00197845458984375	2378.87925199391
0.606231689453125	-0.001982421875	2379.10050399335
0.601806640625	-0.00198699951171875	2379.32175599279
0.597381591796875	-0.0019915771484375	2379.54300799223
0.59295654296875	-0.001995849609375	2379.76425999167
0.588531494140625	-0.00200103759765625	2379.98551199111
0.5841064453125	-0.00200469970703125	2380.20676399056
0.579681396484375	-0.00200958251953125	2380.42801599
0.57525634765625	-0.00201507568359375	2380.64926798944
0.570831298828125	-0.00201995849609375	2380.87051998888
0.56640625	-0.002025146484375	2381.09177198832
0.561981201171875	-0.00203033447265625	2381.31302398776
0.55755615234375	-0.00203643798828125	2381.5342759872
0.553131103515625	-0.00204132080078125	2381.75552798665
0.5487060546875	-0.00204742431640625	2381.97677998609
0.544281005859375	-0.00205169677734375	2382.19803198553
0.53985595703125	-0.00205780029296875	2382.41928398497
0.535430908203125	-0.0020635986328125	2382.64053598441
0.531005859375	-0.0020697021484375	2382.86178798385
0.526580810546875	-0.0020758056640625	2383.08303998329
0.52215576171875	-0.0020819091796875	2383.30429198273
0.517730712890625	-0.002088623046875	2383.52554398218
0.5133056640625	-0.00209442138671875	2383.74679598162
0.508880615234375	-0.0021014404296875	2383.96804798106
0.50445556640625	-0.0021075439453125	2384.1892999805
0.500030517578125	-0.00211456298828125	2384.41055197994
0.49560546875	-0.00212127685546875	2384.63180397938
0.491180419921875	-0.00212799072265625	2384.85305597883
0.48675537109375	-0.0021343994140625	2385.07430797827
0.482330322265625	-0.0021417236328125	2385.29555997771
0.4779052734375	-0.00214874267578125	2385.51681197715
0.473480224609375	-0.00215576171875	2385.73806397659
0.46905517578125	-0.0021630859375	2385.95931597603
0.464630126953125	-0.002169189453125	2386.18056797547
0.460205078125	-0.0021771240234375	2386.40181997491
0.455780029296875	-0.002183837890625	2386.62307197436
0.45135498046875	-0.00219146728515625	2386.8443239738
0.446929931640625	-0.0021990966796875	2387.06557597324
0.4425048828125	-0.00220672607421875	2387.28682797268
0.438079833984375	-0.0022137451171875	2387.50807997212
0.43365478515625	-0.00222137451171875	2387.72933197156
0.429229736328125	-0.0022283935546875	2387.950583971
0.4248046875	-0.002236328125	2388.17183597045
0.420379638671875	-0.00224395751953125	2388.39308796989
0.41595458984375	-0.0022515869140625	2388.61433996933
0.411529541015625	-0.0022589111328125	2388.83559196877
0.4071044921875	-0.0022662353515625	2389.05684396821
0.402679443359375	-0.0022735595703125	2389.27809596765
0.39825439453125	-0.0022808837890625	2389.49934796709
0.393829345703125	-0.00228851318359375	2389.72059996654
0.389404296875	-0.002294921875	2389.94185196598
0.384979248046875	-0.00230255126953125	2390.16310396542
0.38055419921875	-0.0023095703125	2390.38435596486
0.376129150390625	-0.00231719970703125	2390.6056079643
0.3717041015625	-0.00232391357421875	2390.82685996374
0.367279052734375	-0.00233123779296875	2391.04811196318
0.36285400390625	-0.0023382568359375	2391.26936396262
0.358428955078125	-0.00234619140625	2391.49061596207
0.35400390625	-0.00235382080078125	2391.71186796151
0.349578857421875	-0.0023590087890625	2391.93311996095
0.34515380859375	-0.002366943359375	2392.15437196039
0.340728759765625	-0.002374267578125	2392.37562395983
0.3363037109375	-0.002381591796875	2392.59687595927
0.331878662109375	-0.00238922119140625	2392.81812795872
0.32745361328125	-0.00239654541015625	2393.03937995816
0.323028564453125	-0.00240447998046875	2393.2606319576
0.318603515625	-0.002412109375	2393.48188395704
0.314178466796875	-0.00241973876953125	2393.70313595648
0.30975341796875	-0.0024298095703125	2393.92438795592
0.305328369140625	-0.00243682861328125	2394.14563995536
0.3009033203125	-0.002445068359375	2394.3668919548
0.296478271484375	-0.002452392578125	2394.58814395425
0.29205322265625	-0.00246063232421875	2394.80939595369
0.287628173828125	-0.0024688720703125	2395.03064795313
0.283203125	-0.00247711181640625	2395.25189995257
0.278778076171875	-0.00248443603515625	2395.47315195201
0.27435302734375	-0.00249298095703125	2395.69440395145
0.269927978515625	-0.0025018310546875	2395.91565595089
0.2655029296875	-0.00251007080078125	2396.13690795034
0.261077880859375	-0.0025189208984375	2396.35815994978
0.25665283203125	-0.002528076171875	2396.57941194922
0.252227783203125	-0.00253753662109375	2396.80066394866
0.247802734375	-0.0025469970703125	2397.0219159481
0.243377685546875	-0.00255615234375	2397.24316794754
0.23895263671875	-0.00256591796875	2397.46441994698
0.234527587890625	-0.00257568359375	2397.68567194643
0.2301025390625	-0.00258453369140625	2397.90692394587
0.225677490234375	-0.0025946044921875	2398.12817594531
0.22125244140625	-0.00260467529296875	2398.34942794475
0.216827392578125	-0.00261566162109375	2398.57067994419
0.21240234375	-0.00262664794921875	2398.79193194363
0.207977294921875	-0.00263763427734375	2399.01318394307
0.20355224609375	-0.002647705078125	2399.23443594252
0.199127197265625	-0.0026593017578125	2399.45568794196
0.1947021484375	-0.0026708984375	2399.6769399414
0.190277099609375	-0.0026824951171875	2399.89819194084
0.18585205078125	-0.00269500732421875	2400.11944394028
0.181427001953125	-0.00270660400390625	2400.34069593972
0.177001953125	-0.00271881103515625	2400.56194793916
0.172576904296875	-0.00273162841796875	2400.78319993861
0.16815185546875	-0.0027435302734375	2401.00445193805
0.163726806640625	-0.00275634765625	2401.22570393749
0.1593017578125	-0.00277008056640625	2401.44695593693
0.154876708984375	-0.0027825927734375	2401.66820793637
0.15045166015625	-0.002796630859375	2401.88945993581
0.146026611328125	-0.0028106689453125	2402.11071193525
0.1416015625	-0.00282470703125	2402.33196393469
0.137176513671875	-0.00283935546875	2402.55321593414
0.13275146484375	-0.00285491943359375	2402.77446793358
0.128326416015625	-0.00286956787109375	2402.99571993302
0.1239013671875	-0.0028851318359375	2403.21697193246
0.119476318359375	-0.00290008544921875	2403.4382239319
0.11505126953125	-0.0029150390625	2403.65947593134
0.110626220703125	-0.0029315185546875	2403.88072793078
0.106201171875	-0.00294891357421875	2404.10197993023
0.101776123046875	-0.00296600341796875	2404.32323192967
0.09735107421875	-0.0029827880859375	2404.54448392911
0.092926025390625	-0.00300048828125	2404.76573592855
0.0885009765625	-0.00301910400390625	2404.98698792799
0.084075927734375	-0.0030377197265625	2405.20823992743
0.07965087890625	-0.003056640625	2405.42949192687
0.075225830078125	-0.003074951171875	2405.65074392632
0.07080078125	-0.00309417724609375	2405.87199592576
0.066375732421875	-0.00311370849609375	2406.0932479252
0.06195068359375	-0.00313446044921875	2406.31449992464
0.057525634765625	-0.003155517578125	2406.53575192408
0.0531005859375	-0.00317626953125	2406.75700392352
0.048675537109375	-0.00319732666015625	2406.97825592296
0.04425048828125	-0.0032177734375	2407.19950792241
0.039825439453125	-0.00324005126953125	2407.42075992185
0.035400390625	-0.00326202392578125	2407.64201192129
0.030975341796875	-0.003284912109375	2407.86326392073
0.02655029296875	-0.00330841064453125	2408.08451592017
0.022125244140625	-0.003331298828125	2408.30576791961
0.0177001953125	-0.0033563232421875	2408.52701991905
0.013275146484375	-0.00338134765625	2408.7482719185
0.00885009765625	-0.00340545654296875	2408.96952391794
0.004425048828125	-0.00343109130859375	2409.19077591738
0	-0.00345733642578125	2409.41202791682
0.004425048828125	-0.002801513671875	2409.63327991626
0.00885009765625	-0.002227783203125	2409.8545319157
0.013275146484375	-0.00172027587890625	2410.07578391514
0.0177001953125	-0.00126953125	2410.29703591458
0.022125244140625	-0.00086669921875	2410.51828791403
0.02655029296875	-0.00050537109375	2410.73953991347
0.030975341796875	-0.00018182373046875	2410.96079191291
0.035400390625	0.000109710693359375	2411.18204391235
0.039825439453125	0.000371673583984375	2411.40329591179
0.04425048828125	0.00060791015625	2411.62454791123
0.048675537109375	0.0008209228515625	2411.84579991067
0.0531005859375	0.0010137939453125	2412.06705191012
0.057525634765625	0.0011871337890625	2412.28830390956
0.06195068359375	0.0013427734375	2412.509555909
0.066375732421875	0.0014825439453125	2412.73080790844
0.07080078125	0.0016082763671875	2412.95205990788
0.075225830078125	0.00172119140625	2413.17331190732
0.07965087890625	0.0018212890625	2413.39456390676
0.084075927734375	0.001912841796875	2413.61581590621
0.0885009765625	0.00199432373046875	2413.83706790565
0.092926025390625	0.0020672607421875	2414.05831990509
0.09735107421875	0.0021319580078125	2414.27957190453
0.101776123046875	0.00218963623046875	2414.50082390397
0.106201171875	0.00224090576171875	2414.72207590341
0.110626220703125	0.00228546142578125	2414.94332790285
0.11505126953125	0.0023248291015625	2415.1645799023
0.119476318359375	0.002357177734375	2415.38583190174
0.1239013671875	0.00238677978515625	2415.60708390118
0.128326416015625	0.0024127197265625	2415.82833590062
0.13275146484375	0.0024346923828125	2416.04958790006
0.137176513671875	0.0024530029296875	2416.2708398995
0.1416015625	0.00246826171875	2416.49209189894
0.146026611328125	0.0024810791015625	2416.71334389839
0.15045166015625	0.002490234375	2416.93459589783
0.154876708984375	0.00249786376953125	2417.15584789727
0.1593017578125	0.00250244140625	2417.37709989671
0.163726806640625	0.002506103515625	2417.59835189615
0.16815185546875	0.0025079345703125	2417.81960389559
0.172576904296875	0.0025091552734375	2418.04085589503
0.177001953125	0.0025079345703125	2418.26210789447
0.181427001953125	0.00250640869140625	2418.48335989392
0.18585205078125	0.002503662109375	2418.70461189336
0.190277099609375	0.0025006103515625	2418.9258638928
0.1947021484375	0.00249603271484375	2419.14711589224
0.199127197265625	0.00248992919921875	2419.36836789168
0.20355224609375	0.002484130859375	2419.58961989112
0.207977294921875	0.00247711181640625	2419.81087189057
0.21240234375	0.00246978759765625	2420.03212389001
0.216827392578125	0.00246185302734375	2420.25337588945
0.22125244140625	0.00245391845703125	2420.47462788889
0.225677490234375	0.00244659423828125	2420.69587988833
0.2301025390625	0.00243896484375	2420.91713188777
0.234527587890625	0.00242950439453125	2421.13838388721
0.23895263671875	0.0024212646484375	2421.35963588665
0.243377685546875	0.0024127197265625	2421.5808878861
0.247802734375	0.00240447998046875	2421.80213988554
0.252227783203125	0.0023956298828125	2422.02339188498
0.25665283203125	0.0023870849609375	2422.24464388442
0.261077880859375	0.002379150390625	2422.46589588386
0.2655029296875	0.0023699951171875	2422.6871478833
0.269927978515625	0.00236236572265625	2422.90839988274
0.27435302734375	0.0023541259765625	2423.12965188219
0.278778076171875	0.00234619140625	2423.35090388163
0.283203125	0.00233856201171875	2423.57215588107
0.287628173828125	0.00233154296875	2423.79340788051
0.29205322265625	0.0023236083984375	2424.01465987995
0.296478271484375	0.00231597900390625	2424.23591187939
0.3009033203125	0.00230926513671875	2424.45716387883
0.305328369140625	0.00230133056640625	2424.67841587828
0.30975341796875	0.00229461669921875	2424.89966787772
0.314178466796875	0.0022900390625	2425.12091987716
0.318603515625	0.00228271484375	2425.3421718766
0.323028564453125	0.00227630615234375	2425.56342387604
0.32745361328125	0.0022698974609375	2425.78467587548
0.331878662109375	0.00226348876953125	2426.00592787492
0.3363037109375	0.002257080078125	2426.22717987436
0.340728759765625	0.00225128173828125	2426.44843187381
0.34515380859375	0.002244873046875	2426.66968387325
0.349578857421875	0.0022393798828125	2426.89093587269
0.35400390625	0.0022320556640625	2427.11218787213
0.358428955078125	0.00222686767578125	2427.33343987157
0.36285400390625	0.0022216796875	2427.55469187101
0.367279052734375	0.00221649169921875	2427.77594387046
0.3717041015625	0.0022113037109375	2427.9971958699
0.376129150390625	0.00220703125	2428.21844786934
0.38055419921875	0.00220245361328125	2428.43969986878
0.384979248046875	0.00219757080078125	2428.66095186822
0.389404296875	0.00219329833984375	2428.88220386766
0.393829345703125	0.00218780517578125	2429.1034558671
0.39825439453125	0.002183837890625	2429.32470786654
0.402679443359375	0.0021795654296875	2429.54595986599
0.4071044921875	0.00217498779296875	2429.76721186543
0.411529541015625	0.00217071533203125	2429.98846386487
0.41595458984375	0.00216644287109375	2430.20971586431
0.420379638671875	0.0021624755859375	2430.43096786375
0.4248046875	0.002158203125	2430.65221986319
0.429229736328125	0.00215423583984375	2430.87347186263
0.43365478515625	0.00215057373046875	2431.09472386208
0.438079833984375	0.0021466064453125	2431.31597586152
0.4425048828125	0.00214202880859375	2431.53722786096
0.446929931640625	0.0021380615234375	2431.7584798604
0.45135498046875	0.00213409423828125	2431.97973185984
0.455780029296875	0.0021307373046875	2432.20098385928
0.460205078125	0.00212646484375	2432.42223585872
0.464630126953125	0.002122802734375	2432.64348785817
0.46905517578125	0.0021185302734375	2432.86473985761
0.473480224609375	0.002115478515625	2433.08599185705
0.4779052734375	0.0021124267578125	2433.30724385649
0.482330322265625	0.00210906982421875	2433.52849585593
0.48675537109375	0.00210601806640625	2433.74974785537
0.491180419921875	0.00210296630859375	2433.97099985481
0.49560546875	0.00209930419921875	2434.19225185426
0.500030517578125	0.00209686279296875	2434.4135038537
0.50445556640625	0.00209381103515625	2434.63475585314
0.508880615234375	0.0020904541015625	2434.85600785258
0.5133056640625	0.00208770751953125	2435.07725985202
0.517730712890625	0.0020849609375	2435.29851185146
0.52215576171875	0.00208282470703125	2435.5197638509
0.526580810546875	0.00208038330078125	2435.74101585035
0.531005859375	0.00207763671875	2435.96226784979
0.535430908203125	0.00207550048828125	2436.18351984923
0.53985595703125	0.00207305908203125	2436.40477184867
0.544281005859375	0.0020709228515625	2436.62602384811
0.5487060546875	0.00206756591796875	2436.84727584755
0.553131103515625	0.00206573486328125	2437.06852784699
0.55755615234375	0.00206451416015625	2437.28977984643
0.561981201171875	0.0020623779296875	2437.51103184588
0.56640625	0.002060546875	2437.73228384532
0.570831298828125	0.00205963134765625	2437.95353584476
0.57525634765625	0.00205810546875	2438.1747878442
0.579681396484375	0.00205657958984375	2438.39603984364
0.5841064453125	0.00205596923828125	2438.61729184308
0.588531494140625	0.00205322265625	2438.83854384252
0.59295654296875	0.00205230712890625	2439.05979584197
0.597381591796875	0.002052001953125	2439.28104784141
0.601806640625	0.00205108642578125	2439.50229984085
0.606231689453125	0.0020513916015625	2439.72355184029
0.61065673828125	0.00205169677734375	2439.94480383973
0.615081787109375	0.00205169677734375	2440.16605583917
0.6195068359375	0.0020513916015625	2440.38730783861
0.623931884765625	0.002052001953125	2440.60855983806
0.62835693359375	0.0020556640625	2440.8298118375
0.632781982421875	0.00205596923828125	2441.05106383694
0.63720703125	0.00205657958984375	2441.27231583638
0.641632080078125	0.0020574951171875	2441.49356783582
0.64605712890625	0.00205841064453125	2441.71481983526
0.650482177734375	0.00205963134765625	2441.9360718347
0.6549072265625	0.00206146240234375	2442.15732383415
0.659332275390625	0.0020635986328125	2442.37857583359
0.66375732421875	0.0020654296875	2442.59982783303
0.668182373046875	0.00206756591796875	2442.82107983247
0.672607421875	0.00207061767578125	2443.04233183191
0.677032470703125	0.0020733642578125	2443.26358383135
0.68145751953125	0.002076416015625	2443.48483583079
0.685882568359375	0.00207916259765625	2443.70608783024
0.6903076171875	0.00208251953125	2443.92733982968
0.694732666015625	0.00208587646484375	2444.14859182912
0.69915771484375	0.00209014892578125	2444.36984382856
0.703582763671875	0.002093505859375	2444.591095828
0.7080078125	0.00209747314453125	2444.81234782744
0.712432861328125	0.00210235595703125	2445.03359982688
0.71685791015625	0.00210784912109375	2445.25485182632
0.721282958984375	0.002113037109375	2445.47610382577
0.7257080078125	0.00211822509765625	2445.69735582521
0.730133056640625	0.0021240234375	2445.91860782465
0.73455810546875	0.002130126953125	2446.13985982409
0.738983154296875	0.00213653564453125	2446.36111182353
0.743408203125	0.00214141845703125	2446.58236382297
0.747833251953125	0.00214874267578125	2446.80361582241
0.75225830078125	0.00215545654296875	2447.02486782186
0.756683349609375	0.0021630859375	2447.2461198213
0.7611083984375	0.0021710205078125	2447.46737182074
0.765533447265625	0.0021795654296875	2447.68862382018
0.76995849609375	0.0021881103515625	2447.90987581962
0.774383544921875	0.002197265625	2448.13112781906
0.77880859375	0.00220672607421875	2448.3523798185
0.783233642578125	0.00221527099609375	2448.57363181795
0.78765869140625	0.00222564697265625	2448.79488381739
0.792083740234375	0.00223663330078125	2449.01613581683
0.7965087890625	0.00224761962890625	2449.23738781627
0.800933837890625	0.00225921630859375	2449.45863981571
0.80535888671875	0.00227142333984375	2449.67989181515
0.809783935546875	0.002283935546875	2449.90114381459
0.814208984375	0.00229705810546875	2450.12239581404
0.818634033203125	0.00231109619140625	2450.34364781348
0.82305908203125	0.002325439453125	2450.56489981292
0.827484130859375	0.002340087890625	2450.78615181236
0.8319091796875	0.0023553466796875	2451.0074038118
0.836334228515625	0.00237213134765625	2451.22865581124
0.84075927734375	0.00238922119140625	2451.44990781068
0.845184326171875	0.00240692138671875	2451.67115981013
0.849609375	0.0024249267578125	2451.89241180957
0.854034423828125	0.0024444580078125	2452.11366380901
0.85845947265625	0.0024639892578125	2452.33491580845
0.862884521484375	0.00248443603515625	2452.55616780789
0.8673095703125	0.00250579833984375	2452.77741980733
0.871734619140625	0.00252777099609375	2452.99867180677
0.87615966796875	0.00255096435546875	2453.21992380621
0.880584716796875	0.00257537841796875	2453.44117580566
0.885009765625	0.0026007080078125	2453.6624278051
0.889434814453125	0.00262664794921875	2453.88367980454
0.89385986328125	0.0026531982421875	2454.10493180398
0.898284912109375	0.00267974853515625	2454.32618380342
0.9027099609375	0.00270751953125	2454.54743580286
0.907135009765625	0.00273712158203125	2454.76868780231
0.91156005859375	0.00276702880859375	2454.98993980175
0.915985107421875	0.00279754638671875	2455.21119180119
0.92041015625	0.00282867431640625	2455.43244380063
0.924835205078125	0.00286163330078125	2455.65369580007
0.92926025390625	0.00289520263671875	2455.87494779951
0.933685302734375	0.00292938232421875	2456.09619979895
0.9381103515625	0.00296722412109375	2456.31745179839
0.942535400390625	0.003004150390625	2456.53870379784
0.94696044921875	0.00304107666015625	2456.75995579728
0.951385498046875	0.003079833984375	2456.98120779672
0.955810546875	0.0031201171875	2457.20245979616
0.960235595703125	0.00316131591796875	2457.4237117956
0.96466064453125	0.00320526123046875	2457.64496379504
0.969085693359375	0.003250732421875	2457.86621579448
0.9735107421875	0.00329925537109375	2458.08746779393
0.977935791015625	0.00334747314453125	2458.30871979337
0.98236083984375	0.00340087890625	2458.52997179281
0.986785888671875	0.0034576416015625	2458.75122379225
0.9912109375	0.0035174560546875	2458.97247579169
