Potential applied (V)	WE(1).Current (A)	Time (s)
0.004425048828125	-0.086767578125	2674.47716324759
0.00885009765625	-0.0831146240234375	2674.49928824754
0.013275146484375	-0.0798797607421875	2674.52141324748
0.0177001953125	-0.0769775390625	2674.54353824743
0.022125244140625	-0.0742584228515625	2674.56566324737
0.02655029296875	-0.0717193603515625	2674.58778824732
0.030975341796875	-0.0693267822265625	2674.60991324726
0.035400390625	-0.0670623779296875	2674.6320382472
0.039825439453125	-0.06490478515625	2674.65416324715
0.04425048828125	-0.062847900390625	2674.67628824709
0.048675537109375	-0.060894775390625	2674.69841324704
0.0531005859375	-0.05902099609375	2674.72053824698
0.057525634765625	-0.057220458984375	2674.74266324692
0.06195068359375	-0.0554901123046875	2674.76478824687
0.066375732421875	-0.05382080078125	2674.78691324681
0.07080078125	-0.0522125244140625	2674.80903824676
0.075225830078125	-0.050665283203125	2674.8311632467
0.07965087890625	-0.0491668701171875	2674.85328824664
0.084075927734375	-0.04771728515625	2674.87541324659
0.0885009765625	-0.0463226318359375	2674.89753824653
0.092926025390625	-0.04495849609375	2674.91966324648
0.09735107421875	-0.043646240234375	2674.94178824642
0.101776123046875	-0.0423675537109375	2674.96391324637
0.106201171875	-0.041131591796875	2674.98603824631
0.110626220703125	-0.0399200439453125	2675.00816324625
0.11505126953125	-0.03875732421875	2675.0302882462
0.119476318359375	-0.037615966796875	2675.05241324614
0.1239013671875	-0.0365020751953125	2675.07453824609
0.128326416015625	-0.035418701171875	2675.09666324603
0.13275146484375	-0.034375	2675.11878824597
0.137176513671875	-0.033343505859375	2675.14091324592
0.1416015625	-0.032342529296875	2675.16303824586
0.146026611328125	-0.03135986328125	2675.18516324581
0.15045166015625	-0.030401611328125	2675.20728824575
0.154876708984375	-0.0294677734375	2675.2294132457
0.1593017578125	-0.028558349609375	2675.25153824564
0.163726806640625	-0.0276641845703125	2675.27366324558
0.16815185546875	-0.0267974853515625	2675.29578824553
0.172576904296875	-0.0259490966796875	2675.31791324547
0.177001953125	-0.0251190185546875	2675.34003824542
0.181427001953125	-0.0243072509765625	2675.36216324536
0.18585205078125	-0.0235107421875	2675.3842882453
0.190277099609375	-0.022735595703125	2675.40641324525
0.1947021484375	-0.0219696044921875	2675.42853824519
0.199127197265625	-0.021221923828125	2675.45066324514
0.20355224609375	-0.02049560546875	2675.47278824508
0.207977294921875	-0.0197784423828125	2675.49491324502
0.21240234375	-0.0190765380859375	2675.51703824497
0.216827392578125	-0.018389892578125	2675.53916324491
0.22125244140625	-0.0177154541015625	2675.56128824486
0.225677490234375	-0.017059326171875	2675.5834132448
0.2301025390625	-0.0164093017578125	2675.60553824475
0.234527587890625	-0.015777587890625	2675.62766324469
0.23895263671875	-0.015155029296875	2675.64978824463
0.243377685546875	-0.014544677734375	2675.67191324458
0.247802734375	-0.013946533203125	2675.69403824452
0.252227783203125	-0.013360595703125	2675.71616324447
0.25665283203125	-0.01278076171875	2675.73828824441
0.261077880859375	-0.012213134765625	2675.76041324435
0.2655029296875	-0.0116546630859375	2675.7825382443
0.269927978515625	-0.0111083984375	2675.80466324424
0.27435302734375	-0.0105743408203125	2675.82678824419
0.278778076171875	-0.0100494384765625	2675.84891324413
0.283203125	-0.0095306396484375	2675.87103824407
0.287628173828125	-0.009027099609375	2675.89316324402
0.29205322265625	-0.008526611328125	2675.91528824396
0.296478271484375	-0.0080322265625	2675.93741324391
0.3009033203125	-0.00755615234375	2675.95953824385
0.305328369140625	-0.0070831298828125	2675.9816632438
0.30975341796875	-0.0066162109375	2676.00378824374
0.314178466796875	-0.006158447265625	2676.02591324368
0.318603515625	-0.005706787109375	2676.04803824363
0.323028564453125	-0.005267333984375	2676.07016324357
0.32745361328125	-0.00483673095703125	2676.09228824352
0.331878662109375	-0.004410400390625	2676.11441324346
0.3363037109375	-0.00399078369140625	2676.1365382434
0.340728759765625	-0.0035797119140625	2676.15866324335
0.34515380859375	-0.00317535400390625	2676.18078824329
0.349578857421875	-0.00278839111328125	2676.20291324324
0.35400390625	-0.00239776611328125	2676.22503824318
0.358428955078125	-0.00201202392578125	2676.24716324313
0.36285400390625	-0.0016326904296875	2676.26928824307
0.367279052734375	-0.00126007080078125	2676.29141324301
0.3717041015625	-0.00089385986328125	2676.31353824296
0.376129150390625	-0.00053375244140625	2676.3356632429
0.38055419921875	-0.000179656982421875	2676.35778824285
0.384979248046875	0.00016839599609375	2676.37991324279
0.389404296875	0.0005108642578125	2676.40203824273
0.393829345703125	0.0008465576171875	2676.42416324268
0.39825439453125	0.00117828369140625	2676.44628824262
0.402679443359375	0.00150360107421875	2676.46841324257
0.4071044921875	0.00182403564453125	2676.49053824251
0.411529541015625	0.0021392822265625	2676.51266324246
0.41595458984375	0.0024493408203125	2676.5347882424
0.420379638671875	0.00275299072265625	2676.55691324234
0.4248046875	0.0030517578125	2676.57903824229
0.429229736328125	0.00334625244140625	2676.60116324223
0.43365478515625	0.00363616943359375	2676.62328824218
0.438079833984375	0.0039208984375	2676.64541324212
0.4425048828125	0.004200439453125	2676.66753824206
0.446929931640625	0.00447509765625	2676.68966324201
0.45135498046875	0.00474578857421875	2676.71178824195
0.455780029296875	0.005010986328125	2676.7339132419
0.460205078125	0.005272216796875	2676.75603824184
0.464630126953125	0.005528564453125	2676.77816324178
0.46905517578125	0.00577911376953125	2676.80028824173
0.473480224609375	0.006026611328125	2676.82241324167
0.4779052734375	0.0062591552734375	2676.84453824162
0.482330322265625	0.0064971923828125	2676.86666324156
0.48675537109375	0.0067352294921875	2676.88878824151
0.491180419921875	0.006964111328125	2676.91091324145
0.49560546875	0.00718994140625	2676.93303824139
0.500030517578125	0.0074127197265625	2676.95516324134
0.50445556640625	0.00762939453125	2676.97728824128
0.508880615234375	0.0078399658203125	2676.99941324123
0.5133056640625	0.008050537109375	2677.02153824117
0.517730712890625	0.0082550048828125	2677.04366324111
0.52215576171875	0.0084625244140625	2677.06578824106
0.526580810546875	0.008660888671875	2677.087913241
0.531005859375	0.008856201171875	2677.11003824095
0.535430908203125	0.009051513671875	2677.13216324089
0.53985595703125	0.00924072265625	2677.15428824084
0.544281005859375	0.009423828125	2677.17641324078
0.5487060546875	0.0096038818359375	2677.19853824072
0.553131103515625	0.0097808837890625	2677.22066324067
0.55755615234375	0.009954833984375	2677.24278824061
0.561981201171875	0.0101287841796875	2677.26491324056
0.56640625	0.0102935791015625	2677.2870382405
0.570831298828125	0.0104583740234375	2677.30916324044
0.57525634765625	0.0106201171875	2677.33128824039
0.579681396484375	0.01077880859375	2677.35341324033
0.5841064453125	0.010931396484375	2677.37553824028
0.588531494140625	0.0110809326171875	2677.39766324022
0.59295654296875	0.0112274169921875	2677.41978824016
0.597381591796875	0.0113739013671875	2677.44191324011
0.601806640625	0.0115234375	2677.46403824005
0.606231689453125	0.0116668701171875	2677.48616324
0.61065673828125	0.0118011474609375	2677.50828823994
0.615081787109375	0.0119384765625	2677.53041323989
0.6195068359375	0.0120697021484375	2677.55253823983
0.623931884765625	0.012200927734375	2677.57466323977
0.62835693359375	0.0123321533203125	2677.59678823972
0.632781982421875	0.0124603271484375	2677.61891323966
0.63720703125	0.0125762939453125	2677.64103823961
0.641632080078125	0.0126953125	2677.66316323955
0.64605712890625	0.0128143310546875	2677.68528823949
0.650482177734375	0.01292724609375	2677.70741323944
0.6549072265625	0.013037109375	2677.72953823938
0.659332275390625	0.01314697265625	2677.75166323933
0.66375732421875	0.0132537841796875	2677.77378823927
0.668182373046875	0.0133575439453125	2677.79591323922
0.672607421875	0.0134613037109375	2677.81803823916
0.677032470703125	0.01356201171875	2677.8401632391
0.68145751953125	0.0136627197265625	2677.86228823905
0.685882568359375	0.0137603759765625	2677.88441323899
0.6903076171875	0.0138580322265625	2677.90653823894
0.694732666015625	0.013946533203125	2677.92866323888
0.69915771484375	0.0140350341796875	2677.95078823882
0.703582763671875	0.0141143798828125	2677.97291323877
0.7080078125	0.014202880859375	2677.99503823871
0.712432861328125	0.014288330078125	2678.01716323866
0.71685791015625	0.0143707275390625	2678.0392882386
0.721282958984375	0.014453125	2678.06141323854
0.7257080078125	0.014532470703125	2678.08353823849
0.730133056640625	0.0146087646484375	2678.10566323843
0.73455810546875	0.01468505859375	2678.12778823838
0.738983154296875	0.0147552490234375	2678.14991323832
0.743408203125	0.014825439453125	2678.17203823827
0.747833251953125	0.014892578125	2678.19416323821
0.75225830078125	0.014959716796875	2678.21628823815
0.756683349609375	0.01502685546875	2678.2384132381
0.7611083984375	0.0150909423828125	2678.26053823804
0.765533447265625	0.015155029296875	2678.28266323799
0.76995849609375	0.015216064453125	2678.30478823793
0.774383544921875	0.015277099609375	2678.32691323787
0.77880859375	0.01533203125	2678.34903823782
0.783233642578125	0.0153900146484375	2678.37116323776
0.78765869140625	0.0154449462890625	2678.39328823771
0.792083740234375	0.0154998779296875	2678.41541323765
0.7965087890625	0.0155517578125	2678.4375382376
0.800933837890625	0.015606689453125	2678.45966323754
0.80535888671875	0.015655517578125	2678.48178823748
0.809783935546875	0.015704345703125	2678.50391323743
0.814208984375	0.015753173828125	2678.52603823737
0.818634033203125	0.015802001953125	2678.54816323732
0.82305908203125	0.015850830078125	2678.57028823726
0.827484130859375	0.0158966064453125	2678.5924132372
0.8319091796875	0.0159393310546875	2678.61453823715
0.836334228515625	0.015985107421875	2678.63666323709
0.84075927734375	0.0160247802734375	2678.65878823704
0.845184326171875	0.0160675048828125	2678.68091323698
0.849609375	0.016107177734375	2678.70303823692
0.854034423828125	0.0161468505859375	2678.72516323687
0.85845947265625	0.0161865234375	2678.74728823681
0.862884521484375	0.01622314453125	2678.76941323676
0.8673095703125	0.016259765625	2678.7915382367
0.871734619140625	0.0162994384765625	2678.81366323665
0.87615966796875	0.0163360595703125	2678.83578823659
0.880584716796875	0.0163726806640625	2678.85791323653
0.885009765625	0.01640625	2678.88003823648
0.889434814453125	0.01644287109375	2678.90216323642
0.89385986328125	0.0164794921875	2678.92428823637
0.898284912109375	0.0165130615234375	2678.94641323631
0.9027099609375	0.016546630859375	2678.96853823625
0.907135009765625	0.0165802001953125	2678.9906632362
0.91156005859375	0.01661376953125	2679.01278823614
0.915985107421875	0.0166473388671875	2679.03491323609
0.92041015625	0.016680908203125	2679.05703823603
0.924835205078125	0.0167144775390625	2679.07916323598
0.92926025390625	0.016748046875	2679.10128823592
0.933685302734375	0.0167816162109375	2679.12341323586
0.9381103515625	0.0168212890625	2679.14553823581
0.942535400390625	0.016851806640625	2679.16766323575
0.94696044921875	0.0168853759765625	2679.1897882357
0.951385498046875	0.0169189453125	2679.21191323564
0.955810546875	0.01695556640625	2679.23403823558
0.960235595703125	0.0169891357421875	2679.25616323553
0.96466064453125	0.0170257568359375	2679.27828823547
0.969085693359375	0.0170623779296875	2679.30041323542
0.9735107421875	0.0170989990234375	2679.32253823536
0.977935791015625	0.0171356201171875	2679.34466323531
0.98236083984375	0.0171722412109375	2679.36678823525
0.986785888671875	0.0172119140625	2679.38891323519
0.9912109375	0.01724853515625	2679.41103823514
0.995635986328125	0.0172882080078125	2679.43316323508
1.00006103515625	0.017327880859375	2679.45528823503
0.995635986328125	0.01658935546875	2679.47741323497
0.9912109375	0.0158721923828125	2679.49953823491
0.986785888671875	0.0151824951171875	2679.52166323486
0.98236083984375	0.0145111083984375	2679.5437882348
0.977935791015625	0.013861083984375	2679.56591323475
0.9735107421875	0.013226318359375	2679.58803823469
0.969085693359375	0.0126068115234375	2679.61016323463
0.96466064453125	0.0120025634765625	2679.63228823458
0.960235595703125	0.0114105224609375	2679.65441323452
0.955810546875	0.0108367919921875	2679.67653823447
0.951385498046875	0.010272216796875	2679.69866323441
0.94696044921875	0.009722900390625	2679.72078823436
0.942535400390625	0.009185791015625	2679.7429132343
0.9381103515625	0.008660888671875	2679.76503823424
0.933685302734375	0.0081451416015625	2679.78716323419
0.92926025390625	0.0076446533203125	2679.80928823413
0.924835205078125	0.0071502685546875	2679.83141323408
0.92041015625	0.0066680908203125	2679.85353823402
0.915985107421875	0.0061981201171875	2679.87566323396
0.91156005859375	0.0057342529296875	2679.89778823391
0.907135009765625	0.0052825927734375	2679.91991323385
0.9027099609375	0.0048382568359375	2679.9420382338
0.898284912109375	0.00440460205078125	2679.96416323374
0.89385986328125	0.00397857666015625	2679.98628823369
0.889434814453125	0.00356201171875	2680.00841323363
0.885009765625	0.00315216064453125	2680.03053823357
0.880584716796875	0.00275421142578125	2680.05266323352
0.87615966796875	0.00236083984375	2680.07478823346
0.871734619140625	0.00197479248046875	2680.09691323341
0.8673095703125	0.0015966796875	2680.11903823335
0.862884521484375	0.00122528076171875	2680.14116323329
0.85845947265625	0.0008624267578125	2680.16328823324
0.854034423828125	0.0005059814453125	2680.18541323318
0.849609375	0.00015570068359375	2680.20753823313
0.845184326171875	-0.000187530517578125	2680.22966323307
0.84075927734375	-0.000523681640625	2680.25178823301
0.836334228515625	-0.0008538818359375	2680.27391323296
0.8319091796875	-0.0011773681640625	2680.2960382329
0.827484130859375	-0.00149505615234375	2680.31816323285
0.82305908203125	-0.00180633544921875	2680.34028823279
0.818634033203125	-0.00211151123046875	2680.36241323274
0.814208984375	-0.00241058349609375	2680.38453823268
0.809783935546875	-0.00270416259765625	2680.40666323262
0.80535888671875	-0.0029925537109375	2680.42878823257
0.800933837890625	-0.003275146484375	2680.45091323251
0.7965087890625	-0.00355224609375	2680.47303823246
0.792083740234375	-0.00382354736328125	2680.4951632324
0.78765869140625	-0.00408966064453125	2680.51728823234
0.783233642578125	-0.0043511962890625	2680.53941323229
0.77880859375	-0.0046063232421875	2680.56153823223
0.774383544921875	-0.00485687255859375	2680.58366323218
0.76995849609375	-0.0051031494140625	2680.60578823212
0.765533447265625	-0.00534393310546875	2680.62791323207
0.7611083984375	-0.00558074951171875	2680.65003823201
0.756683349609375	-0.00581268310546875	2680.67216323195
0.75225830078125	-0.00604034423828125	2680.6942882319
0.747833251953125	-0.0062408447265625	2680.71641323184
0.743408203125	-0.00645751953125	2680.73853823179
0.738983154296875	-0.006671142578125	2680.76066323173
0.73455810546875	-0.006878662109375	2680.78278823167
0.730133056640625	-0.0070831298828125	2680.80491323162
0.7257080078125	-0.0072845458984375	2680.82703823156
0.721282958984375	-0.00748291015625	2680.84916323151
0.71685791015625	-0.00767822265625	2680.87128823145
0.712432861328125	-0.007861328125	2680.89341323139
0.7080078125	-0.0080474853515625	2680.91553823134
0.703582763671875	-0.0082305908203125	2680.93766323128
0.69915771484375	-0.0084075927734375	2680.95978823123
0.694732666015625	-0.00858154296875	2680.98191323117
0.6903076171875	-0.00875244140625	2681.00403823112
0.685882568359375	-0.0089202880859375	2681.02616323106
0.68145751953125	-0.0090850830078125	2681.048288231
0.677032470703125	-0.009246826171875	2681.07041323095
0.672607421875	-0.0093994140625	2681.09253823089
0.668182373046875	-0.0095550537109375	2681.11466323084
0.66375732421875	-0.0097076416015625	2681.13678823078
0.659332275390625	-0.009857177734375	2681.15891323072
0.6549072265625	-0.010003662109375	2681.18103823067
0.650482177734375	-0.0101470947265625	2681.20316323061
0.64605712890625	-0.0102874755859375	2681.22528823056
0.641632080078125	-0.0104278564453125	2681.2474132305
0.63720703125	-0.010565185546875	2681.26953823045
0.632781982421875	-0.010699462890625	2681.29166323039
0.62835693359375	-0.0108306884765625	2681.31378823033
0.623931884765625	-0.0109588623046875	2681.33591323028
0.6195068359375	-0.011083984375	2681.35803823022
0.615081787109375	-0.0112091064453125	2681.38016323017
0.61065673828125	-0.011328125	2681.40228823011
0.606231689453125	-0.011444091796875	2681.42441323005
0.601806640625	-0.0115631103515625	2681.44653823
0.597381591796875	-0.0116790771484375	2681.46866322994
0.59295654296875	-0.0117919921875	2681.49078822989
0.588531494140625	-0.011907958984375	2681.51291322983
0.5841064453125	-0.0120208740234375	2681.53503822977
0.579681396484375	-0.0121307373046875	2681.55716322972
0.57525634765625	-0.012237548828125	2681.57928822966
0.570831298828125	-0.0123443603515625	2681.60141322961
0.56640625	-0.0124481201171875	2681.62353822955
0.561981201171875	-0.0125457763671875	2681.6456632295
0.55755615234375	-0.012646484375	2681.66778822944
0.553131103515625	-0.0127471923828125	2681.68991322938
0.5487060546875	-0.012847900390625	2681.71203822933
0.544281005859375	-0.0129425048828125	2681.73416322927
0.53985595703125	-0.0130401611328125	2681.75628822922
0.535430908203125	-0.0131317138671875	2681.77841322916
0.531005859375	-0.013226318359375	2681.8005382291
0.526580810546875	-0.01331787109375	2681.82266322905
0.52215576171875	-0.0134063720703125	2681.84478822899
0.517730712890625	-0.013494873046875	2681.86691322894
0.5133056640625	-0.01358642578125	2681.88903822888
0.508880615234375	-0.0136749267578125	2681.91116322882
0.50445556640625	-0.0137603759765625	2681.93328822877
0.500030517578125	-0.0138458251953125	2681.95541322871
0.49560546875	-0.0139312744140625	2681.97753822866
0.491180419921875	-0.014013671875	2681.9996632286
0.48675537109375	-0.014093017578125	2682.02178822855
0.482330322265625	-0.01417236328125	2682.04391322849
0.4779052734375	-0.014251708984375	2682.06603822843
0.473480224609375	-0.0143341064453125	2682.08816322838
0.46905517578125	-0.014410400390625	2682.11028822832
0.464630126953125	-0.01448974609375	2682.13241322827
0.460205078125	-0.014569091796875	2682.15453822821
0.455780029296875	-0.0146453857421875	2682.17666322816
0.45135498046875	-0.0147247314453125	2682.1987882281
0.446929931640625	-0.014794921875	2682.22091322804
0.4425048828125	-0.0148681640625	2682.24303822799
0.438079833984375	-0.0149444580078125	2682.26516322793
0.43365478515625	-0.015020751953125	2682.28728822788
0.429229736328125	-0.015093994140625	2682.30941322782
0.4248046875	-0.015167236328125	2682.33153822776
0.420379638671875	-0.015240478515625	2682.35366322771
0.41595458984375	-0.0153106689453125	2682.37578822765
0.411529541015625	-0.0153778076171875	2682.3979132276
0.4071044921875	-0.0154510498046875	2682.42003822754
0.402679443359375	-0.015521240234375	2682.44216322748
0.39825439453125	-0.01558837890625	2682.46428822743
0.393829345703125	-0.0156585693359375	2682.48641322737
0.389404296875	-0.0157257080078125	2682.50853822732
0.384979248046875	-0.0157928466796875	2682.53066322726
0.38055419921875	-0.01585693359375	2682.55278822721
0.376129150390625	-0.0159271240234375	2682.57491322715
0.3717041015625	-0.0159912109375	2682.59703822709
0.367279052734375	-0.0160614013671875	2682.61916322704
0.36285400390625	-0.0161285400390625	2682.64128822698
0.358428955078125	-0.0161956787109375	2682.66341322693
0.35400390625	-0.0162628173828125	2682.68553822687
0.349578857421875	-0.0163238525390625	2682.70766322681
0.34515380859375	-0.016387939453125	2682.72978822676
0.340728759765625	-0.016455078125	2682.7519132267
0.3363037109375	-0.016522216796875	2682.77403822665
0.331878662109375	-0.0165863037109375	2682.79616322659
0.32745361328125	-0.016650390625	2682.81828822654
0.323028564453125	-0.0167144775390625	2682.84041322648
0.318603515625	-0.0167755126953125	2682.86253822642
0.314178466796875	-0.016839599609375	2682.88466322637
0.30975341796875	-0.0169097900390625	2682.90678822631
0.305328369140625	-0.016973876953125	2682.92891322626
0.3009033203125	-0.0170379638671875	2682.9510382262
0.296478271484375	-0.0170989990234375	2682.97316322614
0.29205322265625	-0.0171600341796875	2682.99528822609
0.287628173828125	-0.0172210693359375	2683.01741322603
0.283203125	-0.0172821044921875	2683.03953822598
0.278778076171875	-0.01734619140625	2683.06166322592
0.27435302734375	-0.0174072265625	2683.08378822586
0.269927978515625	-0.0174713134765625	2683.10591322581
0.2655029296875	-0.0175323486328125	2683.12803822575
0.261077880859375	-0.017596435546875	2683.1501632257
0.25665283203125	-0.017657470703125	2683.17228822564
0.252227783203125	-0.0177215576171875	2683.19441322559
0.247802734375	-0.0177825927734375	2683.21653822553
0.243377685546875	-0.0178436279296875	2683.23866322547
0.23895263671875	-0.0179046630859375	2683.26078822542
0.234527587890625	-0.01796875	2683.28291322536
0.2301025390625	-0.0180267333984375	2683.30503822531
0.225677490234375	-0.0180877685546875	2683.32716322525
0.22125244140625	-0.01815185546875	2683.34928822519
0.216827392578125	-0.018212890625	2683.37141322514
0.21240234375	-0.0182769775390625	2683.39353822508
0.207977294921875	-0.0183349609375	2683.41566322503
0.20355224609375	-0.01839599609375	2683.43778822497
0.199127197265625	-0.018463134765625	2683.45991322491
0.1947021484375	-0.018524169921875	2683.48203822486
0.190277099609375	-0.018585205078125	2683.5041632248
0.18585205078125	-0.0186431884765625	2683.52628822475
0.181427001953125	-0.0187103271484375	2683.54841322469
0.177001953125	-0.0187713623046875	2683.57053822464
0.172576904296875	-0.0188323974609375	2683.59266322458
0.16815185546875	-0.0188934326171875	2683.61478822452
0.163726806640625	-0.0189544677734375	2683.63691322447
0.1593017578125	-0.0190185546875	2683.65903822441
0.154876708984375	-0.01907958984375	2683.68116322436
0.15045166015625	-0.0191436767578125	2683.7032882243
0.146026611328125	-0.0192047119140625	2683.72541322424
0.1416015625	-0.019268798828125	2683.74753822419
0.137176513671875	-0.019329833984375	2683.76966322413
0.13275146484375	-0.0193939208984375	2683.79178822408
0.128326416015625	-0.0194580078125	2683.81391322402
0.1239013671875	-0.0195220947265625	2683.83603822397
0.119476318359375	-0.019580078125	2683.85816322391
0.11505126953125	-0.0196441650390625	2683.88028822385
0.110626220703125	-0.0197113037109375	2683.9024132238
0.106201171875	-0.0197723388671875	2683.92453822374
0.101776123046875	-0.0198394775390625	2683.94666322369
0.09735107421875	-0.019903564453125	2683.96878822363
0.092926025390625	-0.019970703125	2683.99091322357
0.0885009765625	-0.0200347900390625	2684.01303822352
0.084075927734375	-0.020098876953125	2684.03516322346
0.07965087890625	-0.020166015625	2684.05728822341
0.075225830078125	-0.0202301025390625	2684.07941322335
0.07080078125	-0.020294189453125	2684.10153822329
0.066375732421875	-0.020355224609375	2684.12366322324
0.06195068359375	-0.02042236328125	2684.14578822318
0.057525634765625	-0.020489501953125	2684.16791322313
0.0531005859375	-0.020556640625	2684.19003822307
0.048675537109375	-0.02061767578125	2684.21216322302
0.04425048828125	-0.020684814453125	2684.23428822296
0.039825439453125	-0.020751953125	2684.2564132229
0.035400390625	-0.0208221435546875	2684.27853822285
0.030975341796875	-0.02088623046875	2684.30066322279
0.02655029296875	-0.0209564208984375	2684.32278822274
0.022125244140625	-0.0210235595703125	2684.34491322268
0.0177001953125	-0.0210906982421875	2684.36703822262
0.013275146484375	-0.021160888671875	2684.38916322257
0.00885009765625	-0.02122802734375	2684.41128822251
0.004425048828125	-0.0212982177734375	2684.43341322246
0	-0.0213653564453125	2684.4555382224
0.004425048828125	-0.020635986328125	2684.47766322235
0.00885009765625	-0.019927978515625	2684.49978822229
0.013275146484375	-0.0192352294921875	2684.52191322223
0.0177001953125	-0.018560791015625	2684.54403822218
0.022125244140625	-0.017901611328125	2684.56616322212
0.02655029296875	-0.017254638671875	2684.58828822207
0.030975341796875	-0.016619873046875	2684.61041322201
0.035400390625	-0.01600341796875	2684.63253822195
0.039825439453125	-0.0153961181640625	2684.6546632219
0.04425048828125	-0.014794921875	2684.67678822184
0.048675537109375	-0.014208984375	2684.69891322179
0.0531005859375	-0.01363525390625	2684.72103822173
0.057525634765625	-0.0130706787109375	2684.74316322167
0.06195068359375	-0.01251220703125	2684.76528822162
0.066375732421875	-0.011968994140625	2684.78741322156
0.07080078125	-0.011431884765625	2684.80953822151
0.075225830078125	-0.010906982421875	2684.83166322145
0.07965087890625	-0.01038818359375	2684.8537882214
0.084075927734375	-0.0098785400390625	2684.87591322134
0.0885009765625	-0.009375	2684.89803822128
0.092926025390625	-0.008880615234375	2684.92016322123
0.09735107421875	-0.0083953857421875	2684.94228822117
0.101776123046875	-0.0079132080078125	2684.96441322112
0.106201171875	-0.0074462890625	2684.98653822106
0.110626220703125	-0.006982421875	2685.00866322101
0.11505126953125	-0.006524658203125	2685.03078822095
0.119476318359375	-0.0060760498046875	2685.05291322089
0.1239013671875	-0.0056304931640625	2685.07503822084
0.128326416015625	-0.0051971435546875	2685.09716322078
0.13275146484375	-0.00476806640625	2685.11928822073
0.137176513671875	-0.00434417724609375	2685.14141322067
0.1416015625	-0.0039276123046875	2685.16353822061
0.146026611328125	-0.0035162353515625	2685.18566322056
0.15045166015625	-0.00311126708984375	2685.2077882205
0.154876708984375	-0.00272308349609375	2685.22991322045
0.1593017578125	-0.00233001708984375	2685.25203822039
0.163726806640625	-0.00194122314453125	2685.27416322033
0.16815185546875	-0.00155853271484375	2685.29628822028
0.172576904296875	-0.0011810302734375	2685.31841322022
0.177001953125	-0.00080963134765625	2685.34053822017
0.181427001953125	-0.000443450927734375	2685.36266322011
0.18585205078125	-8.2733154296875E-05	2685.38478822006
0.190277099609375	0.000272857666015625	2685.40691322
0.1947021484375	0.000623779296875	2685.42903821994
0.199127197265625	0.00096893310546875	2685.45116321989
0.20355224609375	0.001309814453125	2685.47328821983
0.207977294921875	0.00164581298828125	2685.49541321978
0.21240234375	0.00197723388671875	2685.51753821972
0.216827392578125	0.0023040771484375	2685.53966321966
0.22125244140625	0.0026251220703125	2685.56178821961
0.225677490234375	0.00294189453125	2685.58391321955
0.2301025390625	0.00325347900390625	2685.6060382195
0.234527587890625	0.003560791015625	2685.62816321944
0.23895263671875	0.00386444091796875	2685.65028821938
0.243377685546875	0.0041644287109375	2685.67241321933
0.247802734375	0.0044586181640625	2685.69453821927
0.252227783203125	0.00474884033203125	2685.71666321922
0.25665283203125	0.0050347900390625	2685.73878821916
0.261077880859375	0.00531646728515625	2685.76091321911
0.2655029296875	0.0055938720703125	2685.78303821905
0.269927978515625	0.0058673095703125	2685.80516321899
0.27435302734375	0.00613616943359375	2685.82728821894
0.278778076171875	0.0063873291015625	2685.84941321888
0.283203125	0.0066497802734375	2685.87153821883
0.287628173828125	0.0069091796875	2685.89366321877
0.29205322265625	0.007159423828125	2685.91578821871
0.296478271484375	0.00740966796875	2685.93791321866
0.3009033203125	0.00765380859375	2685.9600382186
0.305328369140625	0.007891845703125	2685.98216321855
0.30975341796875	0.0081298828125	2686.00428821849
0.314178466796875	0.008367919921875	2686.02641321844
0.318603515625	0.0085968017578125	2686.04853821838
0.323028564453125	0.0088226318359375	2686.07066321832
0.32745361328125	0.00904541015625	2686.09278821827
0.331878662109375	0.0092620849609375	2686.11491321821
0.3363037109375	0.0094757080078125	2686.13703821816
0.340728759765625	0.0096893310546875	2686.1591632181
0.34515380859375	0.0098968505859375	2686.18128821804
0.349578857421875	0.0101043701171875	2686.20341321799
0.35400390625	0.010302734375	2686.22553821793
0.358428955078125	0.0105010986328125	2686.24766321788
0.36285400390625	0.0106964111328125	2686.26978821782
0.367279052734375	0.0108917236328125	2686.29191321776
0.3717041015625	0.0110748291015625	2686.31403821771
0.376129150390625	0.011260986328125	2686.33616321765
0.38055419921875	0.011444091796875	2686.3582882176
0.384979248046875	0.01162109375	2686.38041321754
0.389404296875	0.0117950439453125	2686.40253821749
0.393829345703125	0.0119659423828125	2686.42466321743
0.39825439453125	0.0121368408203125	2686.44678821737
0.402679443359375	0.0123046875	2686.46891321732
0.4071044921875	0.0124664306640625	2686.49103821726
0.411529541015625	0.0126251220703125	2686.51316321721
0.41595458984375	0.01278076171875	2686.53528821715
0.420379638671875	0.012933349609375	2686.55741321709
0.4248046875	0.0130889892578125	2686.57953821704
0.429229736328125	0.0132354736328125	2686.60166321698
0.43365478515625	0.0133819580078125	2686.62378821693
0.438079833984375	0.013525390625	2686.64591321687
0.4425048828125	0.0136627197265625	2686.66803821682
0.446929931640625	0.0137969970703125	2686.69016321676
0.45135498046875	0.013934326171875	2686.7122882167
0.455780029296875	0.0140625	2686.73441321665
0.460205078125	0.014190673828125	2686.75653821659
0.464630126953125	0.01431884765625	2686.77866321654
0.46905517578125	0.014447021484375	2686.80078821648
0.473480224609375	0.0145721435546875	2686.82291321642
0.4779052734375	0.014691162109375	2686.84503821637
0.482330322265625	0.01480712890625	2686.86716321631
0.48675537109375	0.014923095703125	2686.88928821626
0.491180419921875	0.0150360107421875	2686.9114132162
0.49560546875	0.0151458740234375	2686.93353821614
0.500030517578125	0.015252685546875	2686.95566321609
0.50445556640625	0.0153564453125	2686.97778821603
0.508880615234375	0.015460205078125	2686.99991321598
0.5133056640625	0.0155609130859375	2687.02203821592
0.517730712890625	0.015655517578125	2687.04416321587
0.52215576171875	0.0157501220703125	2687.06628821581
0.526580810546875	0.0158447265625	2687.08841321575
0.531005859375	0.0159332275390625	2687.1105382157
0.535430908203125	0.0160247802734375	2687.13266321564
0.53985595703125	0.0161102294921875	2687.15478821559
0.544281005859375	0.0161956787109375	2687.17691321553
0.5487060546875	0.0162841796875	2687.19903821547
0.553131103515625	0.0163665771484375	2687.22116321542
0.55755615234375	0.01644287109375	2687.24328821536
0.561981201171875	0.0165191650390625	2687.26541321531
0.56640625	0.0165924072265625	2687.28753821525
0.570831298828125	0.0166656494140625	2687.3096632152
0.57525634765625	0.0167388916015625	2687.33178821514
0.579681396484375	0.01680908203125	2687.35391321508
0.5841064453125	0.0168792724609375	2687.37603821503
0.588531494140625	0.016943359375	2687.39816321497
0.59295654296875	0.017010498046875	2687.42028821492
0.597381591796875	0.0170745849609375	2687.44241321486
0.601806640625	0.0171356201171875	2687.4645382148
0.606231689453125	0.0171905517578125	2687.48666321475
0.61065673828125	0.01724853515625	2687.50878821469
0.615081787109375	0.017303466796875	2687.53091321464
0.6195068359375	0.0173583984375	2687.55303821458
0.623931884765625	0.017413330078125	2687.57516321452
0.62835693359375	0.0174713134765625	2687.59728821447
0.632781982421875	0.0175201416015625	2687.61941321441
0.63720703125	0.0175689697265625	2687.64153821436
0.641632080078125	0.01761474609375	2687.6636632143
0.64605712890625	0.0176605224609375	2687.68578821425
0.650482177734375	0.017706298828125	2687.70791321419
0.6549072265625	0.0177459716796875	2687.73003821413
0.659332275390625	0.0177886962890625	2687.75216321408
0.66375732421875	0.017828369140625	2687.77428821402
0.668182373046875	0.0178680419921875	2687.79641321397
0.672607421875	0.01790771484375	2687.81853821391
0.677032470703125	0.0179443359375	2687.84066321385
0.68145751953125	0.01798095703125	2687.8627882138
0.685882568359375	0.018011474609375	2687.88491321374
0.6903076171875	0.0180450439453125	2687.90703821369
0.694732666015625	0.01807861328125	2687.92916321363
0.69915771484375	0.0181060791015625	2687.95128821358
0.703582763671875	0.0181396484375	2687.97341321352
0.7080078125	0.0181671142578125	2687.99553821346
0.712432861328125	0.018194580078125	2688.01766321341
0.71685791015625	0.018218994140625	2688.03978821335
0.721282958984375	0.018243408203125	2688.0619132133
0.7257080078125	0.0182708740234375	2688.08403821324
0.730133056640625	0.018292236328125	2688.10616321318
0.73455810546875	0.0183135986328125	2688.12828821313
0.738983154296875	0.0183349609375	2688.15041321307
0.743408203125	0.018353271484375	2688.17253821302
0.747833251953125	0.01837158203125	2688.19466321296
0.75225830078125	0.0183929443359375	2688.21678821291
0.756683349609375	0.018408203125	2688.23891321285
0.7611083984375	0.018426513671875	2688.26103821279
0.765533447265625	0.0184417724609375	2688.28316321274
0.76995849609375	0.0184600830078125	2688.30528821268
0.774383544921875	0.018475341796875	2688.32741321263
0.77880859375	0.018487548828125	2688.34953821257
0.783233642578125	0.0184967041015625	2688.37166321251
0.78765869140625	0.018511962890625	2688.39378821246
0.792083740234375	0.0185211181640625	2688.4159132124
0.7965087890625	0.0185333251953125	2688.43803821235
0.800933837890625	0.01854248046875	2688.46016321229
0.80535888671875	0.0185516357421875	2688.48228821223
0.809783935546875	0.018560791015625	2688.50441321218
0.814208984375	0.0185699462890625	2688.52653821212
0.818634033203125	0.0185760498046875	2688.54866321207
0.82305908203125	0.0185821533203125	2688.57078821201
0.827484130859375	0.01859130859375	2688.59291321196
0.8319091796875	0.018597412109375	2688.6150382119
0.836334228515625	0.0186065673828125	2688.63716321184
0.84075927734375	0.018609619140625	2688.65928821179
0.845184326171875	0.01861572265625	2688.68141321173
0.849609375	0.0186187744140625	2688.70353821168
0.854034423828125	0.0186248779296875	2688.72566321162
0.85845947265625	0.0186309814453125	2688.74778821156
0.862884521484375	0.018634033203125	2688.76991321151
0.8673095703125	0.01864013671875	2688.79203821145
0.871734619140625	0.0186431884765625	2688.8141632114
0.87615966796875	0.0186492919921875	2688.83628821134
0.880584716796875	0.0186553955078125	2688.85841321129
0.885009765625	0.018658447265625	2688.88053821123
0.889434814453125	0.01866455078125	2688.90266321117
0.89385986328125	0.018670654296875	2688.92478821112
0.898284912109375	0.0186767578125	2688.94691321106
0.9027099609375	0.0186798095703125	2688.96903821101
0.907135009765625	0.018682861328125	2688.99116321095
0.91156005859375	0.01868896484375	2689.01328821089
0.915985107421875	0.0186920166015625	2689.03541321084
0.92041015625	0.018701171875	2689.05753821078
0.924835205078125	0.0187042236328125	2689.07966321073
0.92926025390625	0.0187103271484375	2689.10178821067
0.933685302734375	0.018719482421875	2689.12391321061
0.9381103515625	0.018731689453125	2689.14603821056
0.942535400390625	0.01873779296875	2689.1681632105
0.94696044921875	0.01875	2689.19028821045
0.951385498046875	0.0187591552734375	2689.21241321039
0.955810546875	0.018768310546875	2689.23453821034
0.960235595703125	0.0187774658203125	2689.25666321028
0.96466064453125	0.0187896728515625	2689.27878821022
0.969085693359375	0.0188018798828125	2689.30091321017
0.9735107421875	0.018817138671875	2689.32303821011
0.977935791015625	0.018829345703125	2689.34516321006
0.98236083984375	0.018841552734375	2689.36728821
0.986785888671875	0.01885986328125	2689.38941320994
0.9912109375	0.0188751220703125	2689.41153820989
0.995635986328125	0.0188934326171875	2689.43366320983
1.00006103515625	0.018914794921875	2689.45578820978
0.995635986328125	0.0181488037109375	2689.47791320972
0.9912109375	0.0174102783203125	2689.50003820967
0.986785888671875	0.01669921875	2689.52216320961
0.98236083984375	0.01600341796875	2689.54428820955
0.977935791015625	0.01533203125	2689.5664132095
0.9735107421875	0.0146759033203125	2689.58853820944
0.969085693359375	0.0140380859375	2689.61066320939
0.96466064453125	0.0134124755859375	2689.63278820933
0.960235595703125	0.0128021240234375	2689.65491320927
0.955810546875	0.01220703125	2689.67703820922
0.951385498046875	0.0116241455078125	2689.69916320916
0.94696044921875	0.011053466796875	2689.72128820911
0.942535400390625	0.0105010986328125	2689.74341320905
0.9381103515625	0.0099578857421875	2689.76553820899
0.933685302734375	0.009423828125	2689.78766320894
0.92926025390625	0.0089019775390625	2689.80978820888
0.924835205078125	0.008392333984375	2689.83191320883
0.92041015625	0.007891845703125	2689.85403820877
0.915985107421875	0.0074066162109375	2689.87616320872
0.91156005859375	0.006927490234375	2689.89828820866
0.907135009765625	0.00645751953125	2689.9204132086
0.9027099609375	0.0059967041015625	2689.94253820855
0.898284912109375	0.0055450439453125	2689.96466320849
0.89385986328125	0.0051055908203125	2689.98678820844
0.889434814453125	0.00467376708984375	2690.00891320838
0.885009765625	0.00424835205078125	2690.03103820832
0.880584716796875	0.00383331298828125	2690.05316320827
0.87615966796875	0.00342559814453125	2690.07528820821
0.871734619140625	0.0030255126953125	2690.09741320816
0.8673095703125	0.00263580322265625	2690.1195382081
0.862884521484375	0.002249755859375	2690.14166320805
0.85845947265625	0.00187225341796875	2690.16378820799
0.854034423828125	0.0015008544921875	2690.18591320793
0.849609375	0.00113677978515625	2690.20803820788
0.845184326171875	0.00078033447265625	2690.23016320782
0.84075927734375	0.00042938232421875	2690.25228820777
0.836334228515625	8.575439453125E-05	2690.27441320771
0.8319091796875	-0.00025152587890625	2690.29653820765
0.827484130859375	-0.000582275390625	2690.3186632076
0.82305908203125	-0.0009063720703125	2690.34078820754
0.818634033203125	-0.00122528076171875	2690.36291320749
0.814208984375	-0.00153778076171875	2690.38503820743
0.809783935546875	-0.00184417724609375	2690.40716320737
0.80535888671875	-0.0021453857421875	2690.42928820732
0.800933837890625	-0.00244049072265625	2690.45141320726
0.7965087890625	-0.0027294921875	2690.47353820721
0.792083740234375	-0.0030126953125	2690.49566320715
0.78765869140625	-0.003291015625	2690.5177882071
0.783233642578125	-0.0035650634765625	2690.53991320704
0.77880859375	-0.0038323974609375	2690.56203820698
0.774383544921875	-0.004095458984375	2690.58416320693
0.76995849609375	-0.00435302734375	2690.60628820687
0.765533447265625	-0.004605712890625	2690.62841320682
0.7611083984375	-0.0048541259765625	2690.65053820676
0.756683349609375	-0.00509735107421875	2690.6726632067
0.75225830078125	-0.005335693359375	2690.69478820665
0.747833251953125	-0.0055694580078125	2690.71691320659
0.743408203125	-0.0057989501953125	2690.73903820654
0.738983154296875	-0.00602142333984375	2690.76116320648
0.73455810546875	-0.006219482421875	2690.78328820643
0.730133056640625	-0.00643310546875	2690.80541320637
0.7257080078125	-0.006646728515625	2690.82753820631
0.721282958984375	-0.006854248046875	2690.84966320626
0.71685791015625	-0.0070587158203125	2690.8717882062
0.712432861328125	-0.007257080078125	2690.89391320615
0.7080078125	-0.007452392578125	2690.91603820609
0.703582763671875	-0.0076446533203125	2690.93816320603
0.69915771484375	-0.0078277587890625	2690.96028820598
0.694732666015625	-0.0080108642578125	2690.98241320592
0.6903076171875	-0.00819091796875	2691.00453820587
0.685882568359375	-0.008367919921875	2691.02666320581
0.68145751953125	-0.0085418701171875	2691.04878820576
0.677032470703125	-0.0087127685546875	2691.0709132057
0.672607421875	-0.008880615234375	2691.09303820564
0.668182373046875	-0.0090423583984375	2691.11516320559
0.66375732421875	-0.0092041015625	2691.13728820553
0.659332275390625	-0.0093597412109375	2691.15941320548
0.6549072265625	-0.0095123291015625	2691.18153820542
0.650482177734375	-0.0096649169921875	2691.20366320536
0.64605712890625	-0.0098114013671875	2691.22578820531
0.641632080078125	-0.0099578857421875	2691.24791320525
0.63720703125	-0.010101318359375	2691.2700382052
0.632781982421875	-0.0102386474609375	2691.29216320514
0.62835693359375	-0.0103790283203125	2691.31428820508
0.623931884765625	-0.0105194091796875	2691.33641320503
0.6195068359375	-0.0106536865234375	2691.35853820497
0.615081787109375	-0.0107879638671875	2691.38066320492
0.61065673828125	-0.0109161376953125	2691.40278820486
0.606231689453125	-0.0110382080078125	2691.42491320481
0.601806640625	-0.011163330078125	2691.44703820475
0.597381591796875	-0.0112884521484375	2691.46916320469
0.59295654296875	-0.011407470703125	2691.49128820464
0.588531494140625	-0.0115264892578125	2691.51341320458
0.5841064453125	-0.0116424560546875	2691.53553820453
0.579681396484375	-0.0117523193359375	2691.55766320447
0.57525634765625	-0.0118621826171875	2691.57978820441
0.570831298828125	-0.0119720458984375	2691.60191320436
0.56640625	-0.0120819091796875	2691.6240382043
0.561981201171875	-0.012188720703125	2691.64616320425
0.55755615234375	-0.012298583984375	2691.66828820419
0.553131103515625	-0.012408447265625	2691.69041320413
0.5487060546875	-0.0125091552734375	2691.71253820408
0.544281005859375	-0.01260986328125	2691.73466320402
0.53985595703125	-0.01270751953125	2691.75678820397
0.535430908203125	-0.0128082275390625	2691.77891320391
0.531005859375	-0.0129058837890625	2691.80103820386
0.526580810546875	-0.01300048828125	2691.8231632038
0.52215576171875	-0.01309814453125	2691.84528820374
0.517730712890625	-0.0131927490234375	2691.86741320369
0.5133056640625	-0.0132843017578125	2691.88953820363
0.508880615234375	-0.013372802734375	2691.91166320358
0.50445556640625	-0.0134613037109375	2691.93378820352
0.500030517578125	-0.0135528564453125	2691.95591320346
0.49560546875	-0.013641357421875	2691.97803820341
0.491180419921875	-0.0137298583984375	2692.00016320335
0.48675537109375	-0.0138153076171875	2692.0222882033
0.482330322265625	-0.013897705078125	2692.04441320324
0.4779052734375	-0.013983154296875	2692.06653820319
0.473480224609375	-0.0140655517578125	2692.08866320313
0.46905517578125	-0.01414794921875	2692.11078820307
0.464630126953125	-0.0142303466796875	2692.13291320302
0.460205078125	-0.0143096923828125	2692.15503820296
0.455780029296875	-0.0143890380859375	2692.17716320291
0.45135498046875	-0.01446533203125	2692.19928820285
0.446929931640625	-0.0145477294921875	2692.22141320279
0.4425048828125	-0.0146240234375	2692.24353820274
0.438079833984375	-0.0147003173828125	2692.26566320268
0.43365478515625	-0.014776611328125	2692.28778820263
0.429229736328125	-0.014849853515625	2692.30991320257
0.4248046875	-0.0149261474609375	2692.33203820251
0.420379638671875	-0.0149993896484375	2692.35416320246
0.41595458984375	-0.01507568359375	2692.3762882024
0.411529541015625	-0.0151458740234375	2692.39841320235
0.4071044921875	-0.0152191162109375	2692.42053820229
0.402679443359375	-0.01529541015625	2692.44266320224
0.39825439453125	-0.015362548828125	2692.46478820218
0.393829345703125	-0.015435791015625	2692.48691320212
0.389404296875	-0.0155059814453125	2692.50903820207
0.384979248046875	-0.0155792236328125	2692.53116320201
0.38055419921875	-0.0156463623046875	2692.55328820196
0.376129150390625	-0.015716552734375	2692.5754132019
0.3717041015625	-0.01578369140625	2692.59753820184
0.367279052734375	-0.0158538818359375	2692.61966320179
0.36285400390625	-0.0159210205078125	2692.64178820173
0.358428955078125	-0.0159912109375	2692.66391320168
0.35400390625	-0.0160552978515625	2692.68603820162
0.349578857421875	-0.0161224365234375	2692.70816320157
0.34515380859375	-0.0161865234375	2692.73028820151
0.340728759765625	-0.0162567138671875	2692.75241320145
0.3363037109375	-0.01632080078125	2692.7745382014
0.331878662109375	-0.016387939453125	2692.79666320134
0.32745361328125	-0.0164520263671875	2692.81878820129
0.323028564453125	-0.01651611328125	2692.84091320123
0.318603515625	-0.016583251953125	2692.86303820117
0.314178466796875	-0.0166473388671875	2692.88516320112
0.30975341796875	-0.016717529296875	2692.90728820106
0.305328369140625	-0.0167816162109375	2692.92941320101
0.3009033203125	-0.0168487548828125	2692.95153820095
0.296478271484375	-0.016912841796875	2692.9736632009
0.29205322265625	-0.016973876953125	2692.99578820084
0.287628173828125	-0.0170440673828125	2693.01791320078
0.283203125	-0.017108154296875	2693.04003820073
0.278778076171875	-0.017169189453125	2693.06216320067
0.27435302734375	-0.017230224609375	2693.08428820062
0.269927978515625	-0.017291259765625	2693.10641320056
0.2655029296875	-0.0173583984375	2693.1285382005
0.261077880859375	-0.0174163818359375	2693.15066320045
0.25665283203125	-0.01748046875	2693.17278820039
0.252227783203125	-0.0175445556640625	2693.19491320034
0.247802734375	-0.017608642578125	2693.21703820028
0.243377685546875	-0.0176727294921875	2693.23916320022
0.23895263671875	-0.0177337646484375	2693.26128820017
0.234527587890625	-0.0177947998046875	2693.28341320011
0.2301025390625	-0.01785888671875	2693.30553820006
0.225677490234375	-0.017919921875	2693.3276632
0.22125244140625	-0.0179779052734375	2693.34978819995
0.216827392578125	-0.0180419921875	2693.37191319989
0.21240234375	-0.01810302734375	2693.39403819983
0.207977294921875	-0.0181640625	2693.41616319978
0.20355224609375	-0.0182281494140625	2693.43828819972
0.199127197265625	-0.0182891845703125	2693.46041319967
0.1947021484375	-0.0183502197265625	2693.48253819961
0.190277099609375	-0.018414306640625	2693.50466319955
0.18585205078125	-0.018475341796875	2693.5267881995
0.181427001953125	-0.0185394287109375	2693.54891319944
0.177001953125	-0.018597412109375	2693.57103819939
0.172576904296875	-0.01866455078125	2693.59316319933
0.16815185546875	-0.0187225341796875	2693.61528819928
0.163726806640625	-0.0187835693359375	2693.63741319922
0.1593017578125	-0.0188446044921875	2693.65953819916
0.154876708984375	-0.0189056396484375	2693.68166319911
0.15045166015625	-0.0189697265625	2693.70378819905
0.146026611328125	-0.01903076171875	2693.725913199
0.1416015625	-0.019091796875	2693.74803819894
0.137176513671875	-0.0191558837890625	2693.77016319888
0.13275146484375	-0.0192138671875	2693.79228819883
0.128326416015625	-0.0192779541015625	2693.81441319877
0.1239013671875	-0.0193389892578125	2693.83653819872
0.119476318359375	-0.019403076171875	2693.85866319866
0.11505126953125	-0.019464111328125	2693.8807881986
0.110626220703125	-0.019525146484375	2693.90291319855
0.106201171875	-0.019586181640625	2693.92503819849
0.101776123046875	-0.019647216796875	2693.94716319844
0.09735107421875	-0.0197113037109375	2693.96928819838
0.092926025390625	-0.019775390625	2693.99141319833
0.0885009765625	-0.0198394775390625	2694.01353819827
0.084075927734375	-0.0199005126953125	2694.03566319821
0.07965087890625	-0.01995849609375	2694.05778819816
0.075225830078125	-0.02001953125	2694.0799131981
0.07080078125	-0.0200836181640625	2694.10203819805
0.066375732421875	-0.0201507568359375	2694.12416319799
0.06195068359375	-0.02021484375	2694.14628819793
0.057525634765625	-0.0202789306640625	2694.16841319788
0.0531005859375	-0.0203399658203125	2694.19053819782
0.048675537109375	-0.020404052734375	2694.21266319777
0.04425048828125	-0.020465087890625	2694.23478819771
0.039825439453125	-0.0205322265625	2694.25691319766
0.035400390625	-0.0205963134765625	2694.2790381976
0.030975341796875	-0.020660400390625	2694.30116319754
0.02655029296875	-0.020721435546875	2694.32328819749
0.022125244140625	-0.02078857421875	2694.34541319743
0.0177001953125	-0.020855712890625	2694.36753819738
0.013275146484375	-0.0209228515625	2694.38966319732
0.00885009765625	-0.020989990234375	2694.41178819726
0.004425048828125	-0.0210540771484375	2694.43391319721
0	-0.0211181640625	2694.45603819715
0.004425048828125	-0.0203887939453125	2694.4781631971
0.00885009765625	-0.0196807861328125	2694.50028819704
0.013275146484375	-0.0189849853515625	2694.52241319698
0.0177001953125	-0.018310546875	2694.54453819693
0.022125244140625	-0.0176513671875	2694.56666319687
0.02655029296875	-0.0170074462890625	2694.58878819682
0.030975341796875	-0.0163726806640625	2694.61091319676
0.035400390625	-0.015753173828125	2694.63303819671
0.039825439453125	-0.015142822265625	2694.65516319665
0.04425048828125	-0.014544677734375	2694.67728819659
0.048675537109375	-0.0139617919921875	2694.69941319654
0.0531005859375	-0.013385009765625	2694.72153819648
0.057525634765625	-0.0128204345703125	2694.74366319643
0.06195068359375	-0.0122650146484375	2694.76578819637
0.066375732421875	-0.01171875	2694.78791319631
0.07080078125	-0.011181640625	2694.81003819626
0.075225830078125	-0.01065673828125	2694.8321631962
0.07965087890625	-0.010137939453125	2694.85428819615
0.084075927734375	-0.0096282958984375	2694.87641319609
0.0885009765625	-0.0091278076171875	2694.89853819604
0.092926025390625	-0.0086334228515625	2694.92066319598
0.09735107421875	-0.008148193359375	2694.94278819592
0.101776123046875	-0.007672119140625	2694.96491319587
0.106201171875	-0.0072021484375	2694.98703819581
0.110626220703125	-0.0067413330078125	2695.00916319576
0.11505126953125	-0.0062835693359375	2695.0312881957
0.119476318359375	-0.0058380126953125	2695.05341319564
0.1239013671875	-0.0053955078125	2695.07553819559
0.128326416015625	-0.00496185302734375	2695.09766319553
0.13275146484375	-0.00453369140625	2695.11978819548
0.137176513671875	-0.004112548828125	2695.14191319542
0.1416015625	-0.00369659423828125	2695.16403819536
0.146026611328125	-0.00328643798828125	2695.18616319531
0.15045166015625	-0.00289459228515625	2695.20828819525
0.154876708984375	-0.002496337890625	2695.2304131952
0.1593017578125	-0.0021038818359375	2695.25253819514
0.163726806640625	-0.001717529296875	2695.27466319509
0.16815185546875	-0.00133636474609375	2695.29678819503
0.172576904296875	-0.0009613037109375	2695.31891319497
0.177001953125	-0.00059173583984375	2695.34103819492
0.181427001953125	-0.000227325439453125	2695.36316319486
0.18585205078125	0.000131561279296875	2695.38528819481
0.190277099609375	0.00048541259765625	2695.40741319475
0.1947021484375	0.00083404541015625	2695.42953819469
0.199127197265625	0.0011773681640625	2695.45166319464
0.20355224609375	0.00151641845703125	2695.47378819458
0.207977294921875	0.00185089111328125	2695.49591319453
0.21240234375	0.00217987060546875	2695.51803819447
0.216827392578125	0.0025042724609375	2695.54016319442
0.22125244140625	0.00282379150390625	2695.56228819436
0.225677490234375	0.003138427734375	2695.5844131943
0.2301025390625	0.0034478759765625	2695.60653819425
0.234527587890625	0.003753662109375	2695.62866319419
0.23895263671875	0.00405609130859375	2695.65078819414
0.243377685546875	0.00435272216796875	2695.67291319408
0.247802734375	0.00464630126953125	2695.69503819402
0.252227783203125	0.00493438720703125	2695.71716319397
0.25665283203125	0.00521820068359375	2695.73928819391
0.261077880859375	0.005498046875	2695.76141319386
0.2655029296875	0.0057733154296875	2695.7835381938
0.269927978515625	0.0060455322265625	2695.80566319375
0.27435302734375	0.0063018798828125	2695.82778819369
0.278778076171875	0.0065643310546875	2695.84991319363
0.283203125	0.00682373046875	2695.87203819358
0.287628173828125	0.0070770263671875	2695.89416319352
0.29205322265625	0.007330322265625	2695.91628819347
0.296478271484375	0.0075775146484375	2695.93841319341
0.3009033203125	0.007818603515625	2695.96053819335
0.305328369140625	0.008056640625	2695.9826631933
0.30975341796875	0.0082916259765625	2696.00478819324
0.314178466796875	0.008526611328125	2696.02691319319
0.318603515625	0.00875244140625	2696.04903819313
0.323028564453125	0.008978271484375	2696.07116319307
0.32745361328125	0.009197998046875	2696.09328819302
0.331878662109375	0.0094146728515625	2696.11541319296
0.3363037109375	0.0096282958984375	2696.13753819291
0.340728759765625	0.0098388671875	2696.15966319285
0.34515380859375	0.01004638671875	2696.1817881928
0.349578857421875	0.010247802734375	2696.20391319274
0.35400390625	0.010443115234375	2696.22603819268
0.358428955078125	0.01064453125	2696.24816319263
0.36285400390625	0.0108367919921875	2696.27028819257
0.367279052734375	0.0110260009765625	2696.29241319252
0.3717041015625	0.0112091064453125	2696.31453819246
0.376129150390625	0.011395263671875	2696.3366631924
0.38055419921875	0.0115753173828125	2696.35878819235
0.384979248046875	0.0117523193359375	2696.38091319229
0.389404296875	0.0119232177734375	2696.40303819224
0.393829345703125	0.0120941162109375	2696.42516319218
0.39825439453125	0.012261962890625	2696.44728819213
0.402679443359375	0.0124267578125	2696.46941319207
0.4071044921875	0.0125885009765625	2696.49153819201
0.411529541015625	0.0127471923828125	2696.51366319196
0.41595458984375	0.01290283203125	2696.5357881919
0.420379638671875	0.013055419921875	2696.55791319185
0.4248046875	0.0132049560546875	2696.58003819179
0.429229736328125	0.0133514404296875	2696.60216319173
0.43365478515625	0.013494873046875	2696.62428819168
0.438079833984375	0.01363525390625	2696.64641319162
0.4425048828125	0.013775634765625	2696.66853819157
0.446929931640625	0.0139129638671875	2696.69066319151
0.45135498046875	0.0140411376953125	2696.71278819145
0.455780029296875	0.014166259765625	2696.7349131914
0.460205078125	0.0142974853515625	2696.75703819134
0.464630126953125	0.014422607421875	2696.77916319129
0.46905517578125	0.0145477294921875	2696.80128819123
0.473480224609375	0.0146697998046875	2696.82341319118
0.4779052734375	0.0147918701171875	2696.84553819112
0.482330322265625	0.01490478515625	2696.86766319106
0.48675537109375	0.0150146484375	2696.88978819101
0.491180419921875	0.0151275634765625	2696.91191319095
0.49560546875	0.015234375	2696.9340381909
0.500030517578125	0.0153411865234375	2696.95616319084
0.50445556640625	0.015447998046875	2696.97828819078
0.508880615234375	0.015545654296875	2697.00041319073
0.5133056640625	0.015643310546875	2697.02253819067
0.517730712890625	0.01573486328125	2697.04466319062
0.52215576171875	0.01583251953125	2697.06678819056
0.526580810546875	0.015924072265625	2697.08891319051
0.531005859375	0.016015625	2697.11103819045
0.535430908203125	0.01610107421875	2697.13316319039
0.53985595703125	0.0161895751953125	2697.15528819034
0.544281005859375	0.0162750244140625	2697.17741319028
0.5487060546875	0.0163604736328125	2697.19953819023
0.553131103515625	0.016436767578125	2697.22166319017
0.55755615234375	0.0165130615234375	2697.24378819011
0.561981201171875	0.01658935546875	2697.26591319006
0.56640625	0.0166656494140625	2697.28803819
0.570831298828125	0.0167388916015625	2697.31016318995
0.57525634765625	0.01680908203125	2697.33228818989
0.579681396484375	0.0168792724609375	2697.35441318983
0.5841064453125	0.0169464111328125	2697.37653818978
0.588531494140625	0.0170135498046875	2697.39866318972
0.59295654296875	0.0170745849609375	2697.42078818967
0.597381591796875	0.017138671875	2697.44291318961
0.601806640625	0.017193603515625	2697.46503818956
0.606231689453125	0.0172515869140625	2697.4871631895
0.61065673828125	0.0173065185546875	2697.50928818944
0.615081787109375	0.017364501953125	2697.53141318939
0.6195068359375	0.0174163818359375	2697.55353818933
0.623931884765625	0.0174713134765625	2697.57566318928
0.62835693359375	0.0175262451171875	2697.59778818922
0.632781982421875	0.017578125	2697.61991318916
0.63720703125	0.0176239013671875	2697.64203818911
0.641632080078125	0.0176727294921875	2697.66416318905
0.64605712890625	0.0177154541015625	2697.686288189
0.650482177734375	0.01776123046875	2697.70841318894
0.6549072265625	0.017803955078125	2697.73053818889
0.659332275390625	0.0178436279296875	2697.75266318883
0.66375732421875	0.01788330078125	2697.77478818877
0.668182373046875	0.017919921875	2697.79691318872
0.672607421875	0.01795654296875	2697.81903818866
0.677032470703125	0.0179901123046875	2697.84116318861
0.68145751953125	0.0180267333984375	2697.86328818855
0.685882568359375	0.018060302734375	2697.88541318849
0.6903076171875	0.0180938720703125	2697.90753818844
0.694732666015625	0.0181243896484375	2697.92966318838
0.69915771484375	0.0181549072265625	2697.95178818833
0.703582763671875	0.018182373046875	2697.97391318827
0.7080078125	0.0182098388671875	2697.99603818821
0.712432861328125	0.0182373046875	2698.01816318816
0.71685791015625	0.01826171875	2698.0402881881
0.721282958984375	0.0182861328125	2698.06241318805
0.7257080078125	0.018304443359375	2698.08453818799
0.730133056640625	0.0183258056640625	2698.10666318794
0.73455810546875	0.0183502197265625	2698.12878818788
0.738983154296875	0.01837158203125	2698.15091318782
0.743408203125	0.018389892578125	2698.17303818777
0.747833251953125	0.018408203125	2698.19516318771
0.75225830078125	0.018426513671875	2698.21728818766
0.756683349609375	0.0184417724609375	2698.2394131876
0.7611083984375	0.01845703125	2698.26153818754
0.765533447265625	0.0184722900390625	2698.28366318749
0.76995849609375	0.018487548828125	2698.30578818743
0.774383544921875	0.018499755859375	2698.32791318738
0.77880859375	0.018511962890625	2698.35003818732
0.783233642578125	0.0185272216796875	2698.37216318726
0.78765869140625	0.018536376953125	2698.39428818721
0.792083740234375	0.0185455322265625	2698.41641318715
0.7965087890625	0.0185577392578125	2698.4385381871
0.800933837890625	0.0185638427734375	2698.46066318704
0.80535888671875	0.0185760498046875	2698.48278818699
0.809783935546875	0.0185821533203125	2698.50491318693
0.814208984375	0.01859130859375	2698.52703818687
0.818634033203125	0.0186004638671875	2698.54916318682
0.82305908203125	0.0186065673828125	2698.57128818676
0.827484130859375	0.01861572265625	2698.59341318671
0.8319091796875	0.0186187744140625	2698.61553818665
0.836334228515625	0.0186279296875	2698.6376631866
0.84075927734375	0.0186309814453125	2698.65978818654
0.845184326171875	0.0186370849609375	2698.68191318648
0.849609375	0.01864013671875	2698.70403818643
0.854034423828125	0.0186431884765625	2698.72616318637
0.85845947265625	0.018646240234375	2698.74828818632
0.862884521484375	0.01865234375	2698.77041318626
0.8673095703125	0.018658447265625	2698.7925381862
0.871734619140625	0.0186614990234375	2698.81466318615
0.87615966796875	0.0186676025390625	2698.83678818609
0.880584716796875	0.0186737060546875	2698.85891318604
0.885009765625	0.0186767578125	2698.88103818598
0.889434814453125	0.0186798095703125	2698.90316318592
0.89385986328125	0.0186859130859375	2698.92528818587
0.898284912109375	0.01868896484375	2698.94741318581
0.9027099609375	0.0186920166015625	2698.96953818576
0.907135009765625	0.018695068359375	2698.9916631857
0.91156005859375	0.0186981201171875	2699.01378818565
0.915985107421875	0.0187042236328125	2699.03591318559
0.92041015625	0.0187103271484375	2699.05803818553
0.924835205078125	0.0187164306640625	2699.08016318548
0.92926025390625	0.0187225341796875	2699.10228818542
0.933685302734375	0.018731689453125	2699.12441318537
0.9381103515625	0.018743896484375	2699.14653818531
0.942535400390625	0.01875	2699.16866318525
0.94696044921875	0.0187591552734375	2699.1907881852
0.951385498046875	0.0187652587890625	2699.21291318514
0.955810546875	0.0187774658203125	2699.23503818509
0.960235595703125	0.01878662109375	2699.25716318503
0.96466064453125	0.018798828125	2699.27928818498
0.969085693359375	0.01881103515625	2699.30141318492
0.9735107421875	0.0188232421875	2699.32353818486
0.977935791015625	0.01883544921875	2699.34566318481
0.98236083984375	0.0188507080078125	2699.36778818475
0.986785888671875	0.018865966796875	2699.3899131847
0.9912109375	0.0188873291015625	2699.41203818464
0.995635986328125	0.018902587890625	2699.43416318458
1.00006103515625	0.018927001953125	2699.45628818453
0.995635986328125	0.018157958984375	2699.47841318447
0.9912109375	0.0174224853515625	2699.50053818442
0.986785888671875	0.01671142578125	2699.52266318436
0.98236083984375	0.016021728515625	2699.5447881843
0.977935791015625	0.0153472900390625	2699.56691318425
0.9735107421875	0.014691162109375	2699.58903818419
0.969085693359375	0.0140533447265625	2699.61116318414
0.96466064453125	0.013427734375	2699.63328818408
0.960235595703125	0.0128173828125	2699.65541318403
0.955810546875	0.0122222900390625	2699.67753818397
0.951385498046875	0.0116424560546875	2699.69966318391
0.94696044921875	0.01107177734375	2699.72178818386
0.942535400390625	0.0105194091796875	2699.7439131838
0.9381103515625	0.0099761962890625	2699.76603818375
0.933685302734375	0.009442138671875	2699.78816318369
0.92926025390625	0.0089202880859375	2699.81028818363
0.924835205078125	0.00841064453125	2699.83241318358
0.92041015625	0.0079132080078125	2699.85453818352
0.915985107421875	0.007427978515625	2699.87666318347
0.91156005859375	0.0069488525390625	2699.89878818341
0.907135009765625	0.0064788818359375	2699.92091318335
0.9027099609375	0.00601806640625	2699.9430381833
0.898284912109375	0.0055694580078125	2699.96516318324
0.89385986328125	0.005126953125	2699.98728818319
0.889434814453125	0.00469512939453125	2700.00941318313
0.885009765625	0.00427154541015625	2700.03153818308
0.880584716796875	0.003856201171875	2700.05366318302
0.87615966796875	0.00344818115234375	2700.07578818296
0.871734619140625	0.00304840087890625	2700.09791318291
0.8673095703125	0.00265838623046875	2700.12003818285
0.862884521484375	0.00227325439453125	2700.1421631828
0.85845947265625	0.00189605712890625	2700.16428818274
0.854034423828125	0.00152496337890625	2700.18641318268
0.849609375	0.00116119384765625	2700.20853818263
0.845184326171875	0.000804443359375	2700.23066318257
0.84075927734375	0.00045391845703125	2700.25278818252
0.836334228515625	0.000110260009765625	2700.27491318246
0.8319091796875	-0.000227081298828125	2700.29703818241
0.827484130859375	-0.0005572509765625	2700.31916318235
0.82305908203125	-0.0008819580078125	2700.34128818229
0.818634033203125	-0.00120025634765625	2700.36341318224
0.814208984375	-0.00151275634765625	2700.38553818218
0.809783935546875	-0.0018182373046875	2700.40766318213
0.80535888671875	-0.00212005615234375	2700.42978818207
0.800933837890625	-0.00241485595703125	2700.45191318201
0.7965087890625	-0.00270416259765625	2700.47403818196
0.792083740234375	-0.00298828125	2700.4961631819
0.78765869140625	-0.00326690673828125	2700.51828818185
0.783233642578125	-0.00354095458984375	2700.54041318179
0.77880859375	-0.0038079833984375	2700.56253818173
0.774383544921875	-0.00407073974609375	2700.58466318168
0.76995849609375	-0.00432830810546875	2700.60678818162
0.765533447265625	-0.004581298828125	2700.62891318157
0.7611083984375	-0.00482940673828125	2700.65103818151
0.756683349609375	-0.005072021484375	2700.67316318146
0.75225830078125	-0.00531036376953125	2700.6952881814
0.747833251953125	-0.00554443359375	2700.71741318134
0.743408203125	-0.00577423095703125	2700.73953818129
0.738983154296875	-0.0059967041015625	2700.76166318123
0.73455810546875	-0.00621734619140625	2700.78378818118
0.730133056640625	-0.00640869140625	2700.80591318112
0.7257080078125	-0.006622314453125	2700.82803818106
0.721282958984375	-0.006829833984375	2700.85016318101
0.71685791015625	-0.0070343017578125	2700.87228818095
0.712432861328125	-0.007232666015625	2700.8944131809
0.7080078125	-0.007427978515625	2700.91653818084
0.703582763671875	-0.0076202392578125	2700.93866318079
0.69915771484375	-0.007806396484375	2700.96078818073
0.694732666015625	-0.007989501953125	2700.98291318067
0.6903076171875	-0.008172607421875	2701.00503818062
0.685882568359375	-0.0083465576171875	2701.02716318056
0.68145751953125	-0.0085205078125	2701.04928818051
0.677032470703125	-0.00869140625	2701.07141318045
0.672607421875	-0.008856201171875	2701.09353818039
0.668182373046875	-0.0090240478515625	2701.11566318034
0.66375732421875	-0.0091827392578125	2701.13778818028
0.659332275390625	-0.0093414306640625	2701.15991318023
0.6549072265625	-0.0094940185546875	2701.18203818017
0.650482177734375	-0.0096435546875	2701.20416318011
0.64605712890625	-0.0097930908203125	2701.22628818006
0.641632080078125	-0.0099395751953125	2701.24841318
0.63720703125	-0.0100830078125	2701.27053817995
0.632781982421875	-0.0102203369140625	2701.29266317989
0.62835693359375	-0.010357666015625	2701.31478817984
0.623931884765625	-0.010498046875	2701.33691317978
0.6195068359375	-0.01063232421875	2701.35903817972
0.615081787109375	-0.0107635498046875	2701.38116317967
0.61065673828125	-0.010894775390625	2701.40328817961
0.606231689453125	-0.011016845703125	2701.42541317956
0.601806640625	-0.0111419677734375	2701.4475381795
0.597381591796875	-0.01126708984375	2701.46966317944
0.59295654296875	-0.0113861083984375	2701.49178817939
0.588531494140625	-0.0115081787109375	2701.51391317933
0.5841064453125	-0.01162109375	2701.53603817928
0.579681396484375	-0.0117340087890625	2701.55816317922
0.57525634765625	-0.0118438720703125	2701.58028817917
0.570831298828125	-0.011956787109375	2701.60241317911
0.56640625	-0.0120635986328125	2701.62453817905
0.561981201171875	-0.01217041015625	2701.646663179
0.55755615234375	-0.012274169921875	2701.66878817894
0.553131103515625	-0.0123779296875	2701.69091317889
0.5487060546875	-0.012481689453125	2701.71303817883
0.544281005859375	-0.0125823974609375	2701.73516317877
0.53985595703125	-0.0126861572265625	2701.75728817872
0.535430908203125	-0.012786865234375	2701.77941317866
0.531005859375	-0.0128814697265625	2701.80153817861
0.526580810546875	-0.0129791259765625	2701.82366317855
0.52215576171875	-0.01307373046875	2701.8457881785
0.517730712890625	-0.013165283203125	2701.86791317844
0.5133056640625	-0.0132598876953125	2701.89003817838
0.508880615234375	-0.013348388671875	2701.91216317833
0.50445556640625	-0.01343994140625	2701.93428817827
0.500030517578125	-0.0135284423828125	2701.95641317822
0.49560546875	-0.013616943359375	2701.97853817816
0.491180419921875	-0.0137054443359375	2702.0006631781
0.48675537109375	-0.0137908935546875	2702.02278817805
0.482330322265625	-0.0138763427734375	2702.04491317799
0.4779052734375	-0.0139617919921875	2702.06703817794
0.473480224609375	-0.014044189453125	2702.08916317788
0.46905517578125	-0.01412353515625	2702.11128817782
0.464630126953125	-0.0142059326171875	2702.13341317777
0.460205078125	-0.0142852783203125	2702.15553817771
0.455780029296875	-0.0143646240234375	2702.17766317766
0.45135498046875	-0.0144439697265625	2702.1997881776
0.446929931640625	-0.0145233154296875	2702.22191317755
0.4425048828125	-0.014599609375	2702.24403817749
0.438079833984375	-0.0146759033203125	2702.26616317743
0.43365478515625	-0.014752197265625	2702.28828817738
0.429229736328125	-0.0148284912109375	2702.31041317732
0.4248046875	-0.0149017333984375	2702.33253817727
0.420379638671875	-0.0149749755859375	2702.35466317721
0.41595458984375	-0.01505126953125	2702.37678817715
0.411529541015625	-0.01512451171875	2702.3989131771
0.4071044921875	-0.01519775390625	2702.42103817704
0.402679443359375	-0.0152679443359375	2702.44316317699
0.39825439453125	-0.015338134765625	2702.46528817693
0.393829345703125	-0.015411376953125	2702.48741317688
0.389404296875	-0.0154815673828125	2702.50953817682
0.384979248046875	-0.0155487060546875	2702.53166317676
0.38055419921875	-0.015618896484375	2702.55378817671
0.376129150390625	-0.0156890869140625	2702.57591317665
0.3717041015625	-0.01575927734375	2702.5980381766
0.367279052734375	-0.0158233642578125	2702.62016317654
0.36285400390625	-0.0158935546875	2702.64228817648
0.358428955078125	-0.0159637451171875	2702.66441317643
0.35400390625	-0.01602783203125	2702.68653817637
0.349578857421875	-0.016094970703125	2702.70866317632
0.34515380859375	-0.016162109375	2702.73078817626
0.340728759765625	-0.0162261962890625	2702.7529131762
0.3363037109375	-0.0162933349609375	2702.77503817615
0.331878662109375	-0.0163604736328125	2702.79716317609
0.32745361328125	-0.016424560546875	2702.81928817604
0.323028564453125	-0.0164886474609375	2702.84141317598
0.318603515625	-0.0165557861328125	2702.86353817593
0.314178466796875	-0.01661376953125	2702.88566317587
0.30975341796875	-0.01668701171875	2702.90778817581
0.305328369140625	-0.016754150390625	2702.92991317576
0.3009033203125	-0.016815185546875	2702.9520381757
0.296478271484375	-0.01688232421875	2702.97416317565
0.29205322265625	-0.0169464111328125	2702.99628817559
0.287628173828125	-0.017010498046875	2703.01841317553
0.283203125	-0.0170745849609375	2703.04053817548
0.278778076171875	-0.017138671875	2703.06266317542
0.27435302734375	-0.01719970703125	2703.08478817537
0.269927978515625	-0.0172637939453125	2703.10691317531
0.2655029296875	-0.017327880859375	2703.12903817526
0.261077880859375	-0.017388916015625	2703.1511631752
0.25665283203125	-0.0174530029296875	2703.17328817514
0.252227783203125	-0.01751708984375	2703.19541317509
0.247802734375	-0.017578125	2703.21753817503
0.243377685546875	-0.0176422119140625	2703.23966317498
0.23895263671875	-0.0177032470703125	2703.26178817492
0.234527587890625	-0.0177642822265625	2703.28391317486
0.2301025390625	-0.0178253173828125	2703.30603817481
0.225677490234375	-0.017889404296875	2703.32816317475
0.22125244140625	-0.017950439453125	2703.3502881747
0.216827392578125	-0.0180084228515625	2703.37241317464
0.21240234375	-0.018072509765625	2703.39453817458
0.207977294921875	-0.018133544921875	2703.41666317453
0.20355224609375	-0.0181976318359375	2703.43878817447
0.199127197265625	-0.0182586669921875	2703.46091317442
0.1947021484375	-0.01832275390625	2703.48303817436
0.190277099609375	-0.0183837890625	2703.50516317431
0.18585205078125	-0.0184478759765625	2703.52728817425
0.181427001953125	-0.0185089111328125	2703.54941317419
0.177001953125	-0.0185699462890625	2703.57153817414
0.172576904296875	-0.018634033203125	2703.59366317408
0.16815185546875	-0.0186920166015625	2703.61578817403
0.163726806640625	-0.0187530517578125	2703.63791317397
0.1593017578125	-0.0188140869140625	2703.66003817391
0.154876708984375	-0.018878173828125	2703.68216317386
0.15045166015625	-0.018939208984375	2703.7042881738
0.146026611328125	-0.019000244140625	2703.72641317375
0.1416015625	-0.019061279296875	2703.74853817369
0.137176513671875	-0.0191192626953125	2703.77066317364
0.13275146484375	-0.0191802978515625	2703.79278817358
0.128326416015625	-0.019244384765625	2703.81491317352
0.1239013671875	-0.0193084716796875	2703.83703817347
0.119476318359375	-0.0193695068359375	2703.85916317341
0.11505126953125	-0.0194305419921875	2703.88128817336
0.110626220703125	-0.0194915771484375	2703.9034131733
0.106201171875	-0.0195556640625	2703.92553817324
0.101776123046875	-0.01961669921875	2703.94766317319
0.09735107421875	-0.019677734375	2703.96978817313
0.092926025390625	-0.01973876953125	2703.99191317308
0.0885009765625	-0.0198028564453125	2704.01403817302
0.084075927734375	-0.019866943359375	2704.03616317296
0.07965087890625	-0.019927978515625	2704.05828817291
0.075225830078125	-0.019989013671875	2704.08041317285
0.07080078125	-0.0200531005859375	2704.1025381728
0.066375732421875	-0.020111083984375	2704.12466317274
0.06195068359375	-0.0201751708984375	2704.14678817269
0.057525634765625	-0.0202392578125	2704.16891317263
0.0531005859375	-0.0203033447265625	2704.19103817257
0.048675537109375	-0.0203643798828125	2704.21316317252
0.04425048828125	-0.0204254150390625	2704.23528817246
0.039825439453125	-0.0204925537109375	2704.25741317241
0.035400390625	-0.020556640625	2704.27953817235
0.030975341796875	-0.0206207275390625	2704.30166317229
0.02655029296875	-0.0206878662109375	2704.32378817224
0.022125244140625	-0.0207489013671875	2704.34591317218
0.0177001953125	-0.0208160400390625	2704.36803817213
0.013275146484375	-0.0208831787109375	2704.39016317207
0.00885009765625	-0.0209503173828125	2704.41228817202
0.004425048828125	-0.021014404296875	2704.43441317196
0	-0.0210845947265625	2704.4565381719
0.004425048828125	-0.02034912109375	2704.47866317185
0.00885009765625	-0.01964111328125	2704.50078817179
0.013275146484375	-0.0189453125	2704.52291317174
0.0177001953125	-0.0182708740234375	2704.54503817168
0.022125244140625	-0.0176116943359375	2704.56716317162
0.02655029296875	-0.0169677734375	2704.58928817157
0.030975341796875	-0.0163330078125	2704.61141317151
0.035400390625	-0.01571044921875	2704.63353817146
0.039825439453125	-0.01510009765625	2704.6556631714
0.04425048828125	-0.0145050048828125	2704.67778817135
0.048675537109375	-0.0139190673828125	2704.69991317129
0.0531005859375	-0.0133453369140625	2704.72203817123
0.057525634765625	-0.0127777099609375	2704.74416317118
0.06195068359375	-0.012225341796875	2704.76628817112
0.066375732421875	-0.011676025390625	2704.78841317107
0.07080078125	-0.011138916015625	2704.81053817101
0.075225830078125	-0.0106170654296875	2704.83266317095
0.07965087890625	-0.0100982666015625	2704.8547881709
0.084075927734375	-0.009588623046875	2704.87691317084
0.0885009765625	-0.009088134765625	2704.89903817079
0.092926025390625	-0.00859375	2704.92116317073
0.09735107421875	-0.0081085205078125	2704.94328817067
0.101776123046875	-0.0076324462890625	2704.96541317062
0.106201171875	-0.0071624755859375	2704.98753817056
0.110626220703125	-0.0066986083984375	2705.00966317051
0.11505126953125	-0.006243896484375	2705.03178817045
0.119476318359375	-0.0057952880859375	2705.0539131704
0.1239013671875	-0.005352783203125	2705.07603817034
0.128326416015625	-0.00492095947265625	2705.09816317028
0.13275146484375	-0.00449249267578125	2705.12028817023
0.137176513671875	-0.0040704345703125	2705.14241317017
0.1416015625	-0.00365570068359375	2705.16453817012
0.146026611328125	-0.00324676513671875	2705.18666317006
0.15045166015625	-0.00285400390625	2705.20878817
0.154876708984375	-0.00245574951171875	2705.23091316995
0.1593017578125	-0.00206390380859375	2705.25303816989
0.163726806640625	-0.0016778564453125	2705.27516316984
0.16815185546875	-0.00129730224609375	2705.29728816978
0.172576904296875	-0.00092193603515625	2705.31941316973
0.177001953125	-0.0005523681640625	2705.34153816967
0.181427001953125	-0.00018792724609375	2705.36366316961
0.18585205078125	0.000170318603515625	2705.38578816956
0.190277099609375	0.000523681640625	2705.4079131695
0.1947021484375	0.000872802734375	2705.43003816945
0.199127197265625	0.00121612548828125	2705.45216316939
0.20355224609375	0.00155548095703125	2705.47428816933
0.207977294921875	0.00188934326171875	2705.49641316928
0.21240234375	0.00221832275390625	2705.51853816922
0.216827392578125	0.00254241943359375	2705.54066316917
0.22125244140625	0.0028619384765625	2705.56278816911
0.225677490234375	0.00317657470703125	2705.58491316905
0.2301025390625	0.00348602294921875	2705.607038169
0.234527587890625	0.00379150390625	2705.62916316894
0.23895263671875	0.004093017578125	2705.65128816889
0.243377685546875	0.0043902587890625	2705.67341316883
0.247802734375	0.00468231201171875	2705.69553816878
0.252227783203125	0.0049700927734375	2705.71766316872
0.25665283203125	0.00525360107421875	2705.73978816866
0.261077880859375	0.00553253173828125	2705.76191316861
0.2655029296875	0.00580810546875	2705.78403816855
0.269927978515625	0.0060797119140625	2705.8061631685
0.27435302734375	0.00633544921875	2705.82828816844
0.278778076171875	0.006597900390625	2705.85041316838
0.283203125	0.0068572998046875	2705.87253816833
0.287628173828125	0.007110595703125	2705.89466316827
0.29205322265625	0.00736083984375	2705.91678816822
0.296478271484375	0.007611083984375	2705.93891316816
0.3009033203125	0.00784912109375	2705.96103816811
0.305328369140625	0.008087158203125	2705.98316316805
0.30975341796875	0.0083221435546875	2706.00528816799
0.314178466796875	0.00855712890625	2706.02741316794
0.318603515625	0.008782958984375	2706.04953816788
0.323028564453125	0.0090087890625	2706.07166316783
0.32745361328125	0.009228515625	2706.09378816777
0.331878662109375	0.009442138671875	2706.11591316771
0.3363037109375	0.00965576171875	2706.13803816766
0.340728759765625	0.0098663330078125	2706.1601631676
0.34515380859375	0.0100738525390625	2706.18228816755
0.349578857421875	0.0102752685546875	2706.20441316749
0.35400390625	0.0104736328125	2706.22653816743
0.358428955078125	0.0106719970703125	2706.24866316738
0.36285400390625	0.0108642578125	2706.27078816732
0.367279052734375	0.0110504150390625	2706.29291316727
0.3717041015625	0.011236572265625	2706.31503816721
0.376129150390625	0.0114227294921875	2706.33716316716
0.38055419921875	0.0115997314453125	2706.3592881671
0.384979248046875	0.011773681640625	2706.38141316704
0.389404296875	0.0119476318359375	2706.40353816699
0.393829345703125	0.0121185302734375	2706.42566316693
0.39825439453125	0.0122833251953125	2706.44778816688
0.402679443359375	0.0124481201171875	2706.46991316682
0.4071044921875	0.01260986328125	2706.49203816676
0.411529541015625	0.0127685546875	2706.51416316671
0.41595458984375	0.012921142578125	2706.53628816665
0.420379638671875	0.01307373046875	2706.5584131666
0.4248046875	0.0132232666015625	2706.58053816654
0.429229736328125	0.0133697509765625	2706.60266316649
0.43365478515625	0.0135101318359375	2706.62478816643
0.438079833984375	0.0136505126953125	2706.64691316637
0.4425048828125	0.0137908935546875	2706.66903816632
0.446929931640625	0.0139251708984375	2706.69116316626
0.45135498046875	0.0140533447265625	2706.71328816621
0.455780029296875	0.0141815185546875	2706.73541316615
0.460205078125	0.0143096923828125	2706.75753816609
0.464630126953125	0.014434814453125	2706.77966316604
0.46905517578125	0.0145599365234375	2706.80178816598
0.473480224609375	0.0146820068359375	2706.82391316593
0.4779052734375	0.014801025390625	2706.84603816587
0.482330322265625	0.0149169921875	2706.86816316581
0.48675537109375	0.01502685546875	2706.89028816576
0.491180419921875	0.0151397705078125	2706.9124131657
0.49560546875	0.0152435302734375	2706.93453816565
0.500030517578125	0.015350341796875	2706.95666316559
0.50445556640625	0.0154510498046875	2706.97878816554
0.508880615234375	0.0155517578125	2707.00091316548
0.5133056640625	0.0156494140625	2707.02303816542
0.517730712890625	0.0157470703125	2707.04516316537
0.52215576171875	0.0158416748046875	2707.06728816531
0.526580810546875	0.0159332275390625	2707.08941316526
0.531005859375	0.016021728515625	2707.1115381652
0.535430908203125	0.0161102294921875	2707.13366316514
0.53985595703125	0.01619873046875	2707.15578816509
0.544281005859375	0.0162841796875	2707.17791316503
0.5487060546875	0.0163665771484375	2707.20003816498
0.553131103515625	0.01644287109375	2707.22216316492
0.55755615234375	0.016522216796875	2707.24428816487
0.561981201171875	0.016595458984375	2707.26641316481
0.56640625	0.016668701171875	2707.28853816475
0.570831298828125	0.0167449951171875	2707.3106631647
0.57525634765625	0.016815185546875	2707.33278816464
0.579681396484375	0.01688232421875	2707.35491316459
0.5841064453125	0.0169525146484375	2707.37703816453
0.588531494140625	0.0170166015625	2707.39916316447
0.59295654296875	0.0170806884765625	2707.42128816442
0.597381591796875	0.0171417236328125	2707.44341316436
0.601806640625	0.01719970703125	2707.46553816431
0.606231689453125	0.0172576904296875	2707.48766316425
0.61065673828125	0.0173126220703125	2707.5097881642
0.615081787109375	0.0173675537109375	2707.53191316414
0.6195068359375	0.0174224853515625	2707.55403816408
0.623931884765625	0.0174713134765625	2707.57616316403
0.62835693359375	0.017529296875	2707.59828816397
0.632781982421875	0.017578125	2707.62041316392
0.63720703125	0.0176239013671875	2707.64253816386
0.641632080078125	0.017669677734375	2707.6646631638
0.64605712890625	0.0177154541015625	2707.68678816375
0.650482177734375	0.0177581787109375	2707.70891316369
0.6549072265625	0.0178009033203125	2707.73103816364
0.659332275390625	0.017840576171875	2707.75316316358
0.66375732421875	0.017877197265625	2707.77528816352
0.668182373046875	0.0179168701171875	2707.79741316347
0.672607421875	0.01795654296875	2707.81953816341
0.677032470703125	0.017987060546875	2707.84166316336
0.68145751953125	0.018023681640625	2707.8637881633
0.685882568359375	0.0180572509765625	2707.88591316325
0.6903076171875	0.0180877685546875	2707.90803816319
0.694732666015625	0.0181182861328125	2707.93016316313
0.69915771484375	0.0181488037109375	2707.95228816308
0.703582763671875	0.01817626953125	2707.97441316302
0.7080078125	0.0182037353515625	2707.99653816297
0.712432861328125	0.0182281494140625	2708.01866316291
0.71685791015625	0.0182525634765625	2708.04078816285
0.721282958984375	0.01827392578125	2708.0629131628
0.7257080078125	0.0183013916015625	2708.08503816274
0.730133056640625	0.01832275390625	2708.10716316269
0.73455810546875	0.0183441162109375	2708.12928816263
0.738983154296875	0.018365478515625	2708.15141316257
0.743408203125	0.0183837890625	2708.17353816252
0.747833251953125	0.0183990478515625	2708.19566316246
0.75225830078125	0.0184173583984375	2708.21778816241
0.756683349609375	0.0184326171875	2708.23991316235
0.7611083984375	0.018450927734375	2708.2620381623
0.765533447265625	0.018463134765625	2708.28416316224
0.76995849609375	0.0184783935546875	2708.30628816218
0.774383544921875	0.018487548828125	2708.32841316213
0.77880859375	0.0185028076171875	2708.35053816207
0.783233642578125	0.0185150146484375	2708.37266316202
0.78765869140625	0.0185272216796875	2708.39478816196
0.792083740234375	0.0185394287109375	2708.4169131619
0.7965087890625	0.018548583984375	2708.43903816185
0.800933837890625	0.0185577392578125	2708.46116316179
0.80535888671875	0.01856689453125	2708.48328816174
0.809783935546875	0.018572998046875	2708.50541316168
0.814208984375	0.018585205078125	2708.52753816163
0.818634033203125	0.01859130859375	2708.54966316157
0.82305908203125	0.018597412109375	2708.57178816151
0.827484130859375	0.018603515625	2708.59391316146
0.8319091796875	0.018609619140625	2708.6160381614
0.836334228515625	0.0186126708984375	2708.63816316135
0.84075927734375	0.01861572265625	2708.66028816129
0.845184326171875	0.018621826171875	2708.68241316123
0.849609375	0.0186279296875	2708.70453816118
0.854034423828125	0.0186309814453125	2708.72666316112
0.85845947265625	0.0186370849609375	2708.74878816107
0.862884521484375	0.01864013671875	2708.77091316101
0.8673095703125	0.0186431884765625	2708.79303816095
0.871734619140625	0.018646240234375	2708.8151631609
0.87615966796875	0.0186492919921875	2708.83728816084
0.880584716796875	0.0186553955078125	2708.85941316079
0.885009765625	0.018658447265625	2708.88153816073
0.889434814453125	0.0186614990234375	2708.90366316068
0.89385986328125	0.01866455078125	2708.92578816062
0.898284912109375	0.018670654296875	2708.94791316056
0.9027099609375	0.0186737060546875	2708.97003816051
0.907135009765625	0.0186798095703125	2708.99216316045
0.91156005859375	0.018682861328125	2709.0142881604
0.915985107421875	0.01868896484375	2709.03641316034
0.92041015625	0.0186920166015625	2709.05853816028
0.924835205078125	0.0186981201171875	2709.08066316023
0.92926025390625	0.018701171875	2709.10278816017
0.933685302734375	0.0187103271484375	2709.12491316012
0.9381103515625	0.0187225341796875	2709.14703816006
0.942535400390625	0.0187286376953125	2709.16916316001
0.94696044921875	0.0187408447265625	2709.19128815995
0.951385498046875	0.0187469482421875	2709.21341315989
0.955810546875	0.018756103515625	2709.23553815984
0.960235595703125	0.018768310546875	2709.25766315978
0.96466064453125	0.018780517578125	2709.27978815973
0.969085693359375	0.018792724609375	2709.30191315967
0.9735107421875	0.0188079833984375	2709.32403815961
0.977935791015625	0.018817138671875	2709.34616315956
0.98236083984375	0.0188323974609375	2709.3682881595
0.986785888671875	0.01884765625	2709.39041315945
0.9912109375	0.018865966796875	2709.41253815939
