Potential applied (V)	WE(1).Current (A)	Time (s)
0.004425048828125	-1.005859375E-06	1667.58264578976
0.00885009765625	2.542724609375E-06	1667.59370878973
0.013275146484375	4.1046142578125E-06	1667.6047717897
0.0177001953125	4.9713134765625E-06	1667.61583478967
0.022125244140625	5.682373046875E-06	1667.62689778965
0.02655029296875	6.201171875E-06	1667.63796078962
0.030975341796875	6.6864013671875E-06	1667.64902378959
0.035400390625	6.9915771484375E-06	1667.66008678956
0.039825439453125	7.2540283203125E-06	1667.67114978954
0.04425048828125	7.8277587890625E-06	1667.68221278951
0.048675537109375	7.9986572265625E-06	1667.69327578948
0.0531005859375	8.1146240234375E-06	1667.70433878945
0.057525634765625	8.331298828125E-06	1667.71540178942
0.06195068359375	8.4075927734375E-06	1667.7264647894
0.066375732421875	8.599853515625E-06	1667.73752778937
0.07080078125	8.80126953125E-06	1667.74859078934
0.075225830078125	9.0667724609375E-06	1667.75965378931
0.07965087890625	8.984375E-06	1667.77071678928
0.084075927734375	9.1156005859375E-06	1667.78177978926
0.0885009765625	9.3719482421875E-06	1667.79284278923
0.092926025390625	9.674072265625E-06	1667.8039057892
0.09735107421875	9.6038818359375E-06	1667.81496878917
0.101776123046875	9.796142578125E-06	1667.82603178914
0.106201171875	9.906005859375E-06	1667.83709478912
0.110626220703125	9.86328125E-06	1667.84815778909
0.11505126953125	1.0205078125E-05	1667.85922078906
0.119476318359375	1.00189208984375E-05	1667.87028378903
0.1239013671875	1.026611328125E-05	1667.881346789
0.128326416015625	1.058349609375E-05	1667.89240978898
0.13275146484375	1.0333251953125E-05	1667.90347278895
0.137176513671875	1.06353759765625E-05	1667.91453578892
0.1416015625	1.05316162109375E-05	1667.92559878889
0.146026611328125	1.05621337890625E-05	1667.93666178886
0.15045166015625	1.06964111328125E-05	1667.94772478884
0.154876708984375	1.06231689453125E-05	1667.95878778881
0.1593017578125	1.0546875E-05	1667.96985078878
0.163726806640625	1.05224609375E-05	1667.98091378875
0.16815185546875	1.0650634765625E-05	1667.99197678872
0.172576904296875	1.0400390625E-05	1668.0030397887
0.177001953125	1.068115234375E-05	1668.01410278867
0.181427001953125	1.0455322265625E-05	1668.02516578864
0.18585205078125	1.058349609375E-05	1668.03622878861
0.190277099609375	1.03668212890625E-05	1668.04729178859
0.1947021484375	1.05255126953125E-05	1668.05835478856
0.199127197265625	1.04522705078125E-05	1668.06941778853
0.20355224609375	1.0369873046875E-05	1668.0804807885
0.207977294921875	1.0491943359375E-05	1668.09154378847
0.21240234375	1.0455322265625E-05	1668.10260678845
0.216827392578125	1.03485107421875E-05	1668.11366978842
0.22125244140625	1.0357666015625E-05	1668.12473278839
0.225677490234375	1.02752685546875E-05	1668.13579578836
0.2301025390625	1.0430908203125E-05	1668.14685878833
0.234527587890625	1.03363037109375E-05	1668.15792178831
0.23895263671875	1.0302734375E-05	1668.16898478828
0.243377685546875	1.02142333984375E-05	1668.18004778825
0.247802734375	1.03057861328125E-05	1668.19111078822
0.252227783203125	1.0076904296875E-05	1668.20217378819
0.25665283203125	1.01104736328125E-05	1668.21323678817
0.261077880859375	1.04034423828125E-05	1668.22429978814
0.2655029296875	1.02386474609375E-05	1668.23536278811
0.269927978515625	1.02325439453125E-05	1668.24642578808
0.27435302734375	1.00494384765625E-05	1668.25748878805
0.278778076171875	1.025390625E-05	1668.26855178803
0.283203125	9.967041015625E-06	1668.279614788
0.287628173828125	1.029052734375E-05	1668.29067778797
0.29205322265625	1.0003662109375E-05	1668.30174078794
0.296478271484375	1.0308837890625E-05	1668.31280378792
0.3009033203125	1.0223388671875E-05	1668.32386678789
0.305328369140625	1.0040283203125E-05	1668.33492978786
0.30975341796875	1.00189208984375E-05	1668.34599278783
0.314178466796875	1.00921630859375E-05	1668.3570557878
0.318603515625	1.00677490234375E-05	1668.36811878778
0.323028564453125	1.00067138671875E-05	1668.37918178775
0.32745361328125	1.0174560546875E-05	1668.39024478772
0.331878662109375	9.8541259765625E-06	1668.40130778769
0.3363037109375	1.0302734375E-05	1668.41237078766
0.340728759765625	1.0333251953125E-05	1668.42343378764
0.34515380859375	1.01715087890625E-05	1668.43449678761
0.349578857421875	1.02325439453125E-05	1668.44555978758
0.35400390625	1.03912353515625E-05	1668.45662278755
0.358428955078125	1.0528564453125E-05	1668.46768578752
0.36285400390625	1.05743408203125E-05	1668.4787487875
0.367279052734375	1.07391357421875E-05	1668.48981178747
0.3717041015625	1.0626220703125E-05	1668.50087478744
0.376129150390625	1.0772705078125E-05	1668.51193778741
0.38055419921875	1.0675048828125E-05	1668.52300078738
0.384979248046875	1.10198974609375E-05	1668.53406378736
0.389404296875	1.08062744140625E-05	1668.54512678733
0.393829345703125	1.1126708984375E-05	1668.5561897873
0.39825439453125	1.12152099609375E-05	1668.56725278727
0.402679443359375	1.12274169921875E-05	1668.57831578724
0.4071044921875	1.1041259765625E-05	1668.58937878722
0.411529541015625	1.10382080078125E-05	1668.60044178719
0.41595458984375	1.1212158203125E-05	1668.61150478716
0.420379638671875	1.11968994140625E-05	1668.62256778713
0.4248046875	1.129150390625E-05	1668.63363078711
0.429229736328125	1.168212890625E-05	1668.64469378708
0.43365478515625	1.13922119140625E-05	1668.65575678705
0.438079833984375	1.160888671875E-05	1668.66681978702
0.4425048828125	1.1724853515625E-05	1668.67788278699
0.446929931640625	1.15631103515625E-05	1668.68894578697
0.45135498046875	1.19537353515625E-05	1668.70000878694
0.455780029296875	1.20269775390625E-05	1668.71107178691
0.460205078125	1.19903564453125E-05	1668.72213478688
0.464630126953125	1.19598388671875E-05	1668.73319778685
0.46905517578125	1.22467041015625E-05	1668.74426078683
0.473480224609375	1.22528076171875E-05	1668.7553237868
0.4779052734375	1.23687744140625E-05	1668.76638678677
0.482330322265625	1.26953125E-05	1668.77744978674
0.48675537109375	1.2799072265625E-05	1668.78851278671
0.491180419921875	1.27838134765625E-05	1668.79957578669
0.49560546875	1.29547119140625E-05	1668.81063878666
0.500030517578125	1.30157470703125E-05	1668.82170178663
0.50445556640625	1.31591796875E-05	1668.8327647866
0.508880615234375	1.31927490234375E-05	1668.84382778657
0.5133056640625	1.337890625E-05	1668.85489078655
0.517730712890625	1.36199951171875E-05	1668.86595378652
0.52215576171875	1.38153076171875E-05	1668.87701678649
0.526580810546875	1.390380859375E-05	1668.88807978646
0.531005859375	1.4141845703125E-05	1668.89914278643
0.535430908203125	1.4215087890625E-05	1668.91020578641
0.53985595703125	1.4312744140625E-05	1668.92126878638
0.544281005859375	1.4788818359375E-05	1668.93233178635
0.5487060546875	1.4495849609375E-05	1668.94339478632
0.553131103515625	1.47369384765625E-05	1668.9544577863
0.55755615234375	1.50970458984375E-05	1668.96552078627
0.561981201171875	1.52069091796875E-05	1668.97658378624
0.56640625	1.5667724609375E-05	1668.98764678621
0.570831298828125	1.55914306640625E-05	1668.99870978618
0.57525634765625	1.59881591796875E-05	1669.00977278616
0.579681396484375	1.6033935546875E-05	1669.02083578613
0.5841064453125	1.6326904296875E-05	1669.0318987861
0.588531494140625	1.65130615234375E-05	1669.04296178607
0.59295654296875	1.6693115234375E-05	1669.05402478604
0.597381591796875	1.7022705078125E-05	1669.06508778602
0.601806640625	1.73248291015625E-05	1669.07615078599
0.606231689453125	1.7572021484375E-05	1669.08721378596
0.61065673828125	1.776123046875E-05	1669.09827678593
0.615081787109375	1.8096923828125E-05	1669.1093397859
0.6195068359375	1.85272216796875E-05	1669.12040278588
0.623931884765625	1.87744140625E-05	1669.13146578585
0.62835693359375	1.88446044921875E-05	1669.14252878582
0.632781982421875	1.939697265625E-05	1669.15359178579
0.63720703125	1.95068359375E-05	1669.16465478576
0.641632080078125	2.001953125E-05	1669.17571778574
0.64605712890625	2.01385498046875E-05	1669.18678078571
0.650482177734375	2.0733642578125E-05	1669.19784378568
0.6549072265625	2.09320068359375E-05	1669.20890678565
0.659332275390625	2.1563720703125E-05	1669.21996978562
0.66375732421875	2.1563720703125E-05	1669.2310327856
0.668182373046875	2.205810546875E-05	1669.24209578557
0.672607421875	2.2503662109375E-05	1669.25315878554
0.677032470703125	2.2833251953125E-05	1669.26422178551
0.68145751953125	2.31597900390625E-05	1669.27528478548
0.685882568359375	2.373046875E-05	1669.28634778546
0.6903076171875	2.4285888671875E-05	1669.29741078543
0.694732666015625	2.46917724609375E-05	1669.3084737854
0.69915771484375	2.52960205078125E-05	1669.31953678537
0.703582763671875	2.591552734375E-05	1669.33059978535
0.69915771484375	9.7259521484375E-06	1669.34166278532
0.694732666015625	5.511474609375E-06	1669.35272578529
0.6903076171875	2.69775390625E-06	1669.36378878526
0.685882568359375	4.33349609375E-07	1669.37485178523
0.68145751953125	-7.3333740234375E-07	1669.38591478521
0.677032470703125	-2.095947265625E-06	1669.39697778518
0.672607421875	-2.899169921875E-06	1669.40804078515
0.668182373046875	-4.00726318359375E-06	1669.41910378512
0.66375732421875	-4.6044921875E-06	1669.43016678509
0.659332275390625	-5.21636962890625E-06	1669.44122978507
0.6549072265625	-5.96282958984375E-06	1669.45229278504
0.650482177734375	-6.38092041015625E-06	1669.46335578501
0.64605712890625	-6.7657470703125E-06	1669.47441878498
0.641632080078125	-7.1746826171875E-06	1669.48548178495
0.63720703125	-7.489013671875E-06	1669.49654478493
0.632781982421875	-7.8277587890625E-06	1669.5076077849
0.62835693359375	-7.9803466796875E-06	1669.51867078487
0.623931884765625	-8.270263671875E-06	1669.52973378484
0.6195068359375	-8.45947265625E-06	1669.54079678481
0.615081787109375	-8.514404296875E-06	1669.55185978479
0.61065673828125	-8.807373046875E-06	1669.56292278476
0.606231689453125	-8.795166015625E-06	1669.57398578473
0.601806640625	-9.1278076171875E-06	1669.5850487847
0.597381591796875	-9.14306640625E-06	1669.59611178468
0.59295654296875	-9.185791015625E-06	1669.60717478465
0.588531494140625	-9.2529296875E-06	1669.61823778462
0.5841064453125	-9.5794677734375E-06	1669.62930078459
0.579681396484375	-9.63134765625E-06	1669.64036378456
0.57525634765625	-9.5977783203125E-06	1669.65142678454
0.570831298828125	-9.9884033203125E-06	1669.66248978451
0.56640625	-9.6405029296875E-06	1669.67355278448
0.561981201171875	-9.8724365234375E-06	1669.68461578445
0.55755615234375	-9.8602294921875E-06	1669.69567878442
0.553131103515625	-9.8785400390625E-06	1669.7067417844
0.5487060546875	-9.8358154296875E-06	1669.71780478437
0.544281005859375	-9.9639892578125E-06	1669.72886778434
0.53985595703125	-1.01470947265625E-05	1669.73993078431
0.535430908203125	-9.94873046875E-06	1669.75099378428
0.531005859375	-1.002197265625E-05	1669.76205678426
0.526580810546875	-1.00341796875E-05	1669.77311978423
0.52215576171875	-1.00555419921875E-05	1669.7841827842
0.517730712890625	-1.0235595703125E-05	1669.79524578417
0.5133056640625	-1.0089111328125E-05	1669.80630878414
0.508880615234375	-1.00006103515625E-05	1669.81737178412
0.50445556640625	-1.01165771484375E-05	1669.82843478409
0.500030517578125	-1.015625E-05	1669.83949778406
0.49560546875	-1.00128173828125E-05	1669.85056078403
0.491180419921875	-1.00982666015625E-05	1669.861623784
0.48675537109375	-1.0076904296875E-05	1669.87268678398
0.482330322265625	-1.0040283203125E-05	1669.88374978395
0.4779052734375	-1.025390625E-05	1669.89481278392
0.473480224609375	-1.01837158203125E-05	1669.90587578389
0.46905517578125	-9.9822998046875E-06	1669.91693878387
0.464630126953125	-1.02386474609375E-05	1669.92800178384
0.460205078125	-1.03424072265625E-05	1669.93906478381
0.455780029296875	-1.004638671875E-05	1669.95012778378
0.45135498046875	-1.01806640625E-05	1669.96119078375
0.446929931640625	-1.01776123046875E-05	1669.97225378373
0.4425048828125	-1.0064697265625E-05	1669.9833167837
0.438079833984375	-1.01409912109375E-05	1669.99437978367
0.43365478515625	-1.036376953125E-05	1670.00544278364
0.429229736328125	-9.86328125E-06	1670.01650578361
0.4248046875	-1.02630615234375E-05	1670.02756878359
0.420379638671875	-1.01715087890625E-05	1670.03863178356
0.41595458984375	-1.01226806640625E-05	1670.04969478353
0.411529541015625	-1.01409912109375E-05	1670.0607577835
0.4071044921875	-1.01226806640625E-05	1670.07182078347
0.402679443359375	-1.004638671875E-05	1670.08288378345
0.39825439453125	-1.03179931640625E-05	1670.09394678342
0.393829345703125	-1.02081298828125E-05	1670.10500978339
0.389404296875	-1.01898193359375E-05	1670.11607278336
0.384979248046875	-9.991455078125E-06	1670.12713578333
0.38055419921875	-1.02935791015625E-05	1670.13819878331
0.376129150390625	-1.00921630859375E-05	1670.14926178328
0.3717041015625	-1.0406494140625E-05	1670.16032478325
0.367279052734375	-9.844970703125E-06	1670.17138778322
0.36285400390625	-1.04278564453125E-05	1670.18245078319
0.358428955078125	-1.02752685546875E-05	1670.19351378317
0.35400390625	-1.0223388671875E-05	1670.20457678314
0.349578857421875	-1.04888916015625E-05	1670.21563978311
0.34515380859375	-1.0540771484375E-05	1670.22670278308
0.340728759765625	-1.03759765625E-05	1670.23776578306
0.3363037109375	-1.0504150390625E-05	1670.24882878303
0.331878662109375	-1.04400634765625E-05	1670.259891783
0.32745361328125	-1.033935546875E-05	1670.27095478297
0.323028564453125	-1.0528564453125E-05	1670.28201778294
0.318603515625	-1.0736083984375E-05	1670.29308078292
0.314178466796875	-1.051025390625E-05	1670.30414378289
0.30975341796875	-1.068115234375E-05	1670.31520678286
0.305328369140625	-1.03515625E-05	1670.32626978283
0.3009033203125	-1.0467529296875E-05	1670.3373327828
0.296478271484375	-1.0552978515625E-05	1670.34839578278
0.29205322265625	-1.0650634765625E-05	1670.35945878275
0.287628173828125	-1.0498046875E-05	1670.37052178272
0.283203125	-1.06658935546875E-05	1670.38158478269
0.278778076171875	-1.06048583984375E-05	1670.39264778266
0.27435302734375	-1.05255126953125E-05	1670.40371078264
0.269927978515625	-1.05712890625E-05	1670.41477378261
0.2655029296875	-1.080322265625E-05	1670.42583678258
0.261077880859375	-1.05438232421875E-05	1670.43689978255
0.25665283203125	-1.08306884765625E-05	1670.44796278252
0.252227783203125	-1.07818603515625E-05	1670.4590257825
0.247802734375	-1.08245849609375E-05	1670.47008878247
0.243377685546875	-1.09405517578125E-05	1670.48115178244
0.23895263671875	-1.10748291015625E-05	1670.49221478241
0.234527587890625	-1.11480712890625E-05	1670.50327778238
0.2301025390625	-1.11328125E-05	1670.51434078236
0.225677490234375	-1.12762451171875E-05	1670.52540378233
0.22125244140625	-1.13067626953125E-05	1670.5364667823
0.216827392578125	-1.138916015625E-05	1670.54752978227
0.21240234375	-1.1676025390625E-05	1670.55859278224
0.207977294921875	-1.14471435546875E-05	1670.56965578222
0.20355224609375	-1.17645263671875E-05	1670.58071878219
0.199127197265625	-1.1480712890625E-05	1670.59178178216
0.1947021484375	-1.19842529296875E-05	1670.60284478213
0.190277099609375	-1.195068359375E-05	1670.61390778211
0.18585205078125	-1.20269775390625E-05	1670.62497078208
0.181427001953125	-1.21490478515625E-05	1670.63603378205
0.177001953125	-1.2213134765625E-05	1670.64709678202
0.172576904296875	-1.22833251953125E-05	1670.65815978199
0.16815185546875	-1.2225341796875E-05	1670.66922278197
0.163726806640625	-1.27166748046875E-05	1670.68028578194
0.1593017578125	-1.27288818359375E-05	1670.69134878191
0.154876708984375	-1.278076171875E-05	1670.70241178188
0.15045166015625	-1.2786865234375E-05	1670.71347478185
0.146026611328125	-1.28662109375E-05	1670.72453778183
0.1416015625	-1.2896728515625E-05	1670.7356007818
0.137176513671875	-1.30706787109375E-05	1670.74666378177
0.13275146484375	-1.31683349609375E-05	1670.75772678174
0.128326416015625	-1.339111328125E-05	1670.76878978171
0.1239013671875	-1.3751220703125E-05	1670.77985278169
0.119476318359375	-1.356201171875E-05	1670.79091578166
0.11505126953125	-1.40167236328125E-05	1670.80197878163
0.110626220703125	-1.41845703125E-05	1670.8130417816
0.106201171875	-1.4483642578125E-05	1670.82410478157
0.101776123046875	-1.45660400390625E-05	1670.83516778155
0.09735107421875	-1.51031494140625E-05	1670.84623078152
0.092926025390625	-1.54998779296875E-05	1670.85729378149
0.0885009765625	-1.5643310546875E-05	1670.86835678146
0.084075927734375	-1.6143798828125E-05	1670.87941978143
0.07965087890625	-1.64031982421875E-05	1670.89048278141
0.075225830078125	-1.68182373046875E-05	1670.90154578138
0.07080078125	-1.7254638671875E-05	1670.91260878135
0.066375732421875	-1.739501953125E-05	1670.92367178132
0.06195068359375	-1.79168701171875E-05	1670.9347347813
0.057525634765625	-1.815185546875E-05	1670.94579778127
0.0531005859375	-1.83502197265625E-05	1670.95686078124
0.048675537109375	-1.85089111328125E-05	1670.96792378121
0.04425048828125	-1.87103271484375E-05	1670.97898678118
0.039825439453125	-1.87164306640625E-05	1670.99004978116
0.035400390625	-1.86737060546875E-05	1671.00111278113
0.030975341796875	-1.8804931640625E-05	1671.0121757811
0.02655029296875	-1.87255859375E-05	1671.02323878107
0.022125244140625	-1.87469482421875E-05	1671.03430178104
0.0177001953125	-1.868896484375E-05	1671.04536478102
0.013275146484375	-1.85791015625E-05	1671.05642778099
0.00885009765625	-1.871337890625E-05	1671.06749078096
0.004425048828125	-1.88232421875E-05	1671.07855378093
0	-1.8841552734375E-05	1671.0896167809
0.004425048828125	-6.8634033203125E-06	1671.10067978088
0.00885009765625	-3.558349609375E-06	1671.11174278085
0.013275146484375	-1.42822265625E-06	1671.12280578082
0.0177001953125	-1.6693115234375E-07	1671.13386878079
0.022125244140625	9.99755859375E-07	1671.14493178076
0.02655029296875	1.92901611328125E-06	1671.15599478074
0.030975341796875	2.30438232421875E-06	1671.16705778071
0.035400390625	3.214111328125E-06	1671.17812078068
0.039825439453125	4.02130126953125E-06	1671.18918378065
0.04425048828125	4.1363525390625E-06	1671.20024678063
0.048675537109375	4.6435546875E-06	1671.2113097806
0.0531005859375	5.2520751953125E-06	1671.22237278057
0.057525634765625	5.7965087890625E-06	1671.23343578054
0.06195068359375	5.75775146484375E-06	1671.24449878051
0.066375732421875	6.26708984375E-06	1671.25556178049
0.07080078125	6.219482421875E-06	1671.26662478046
0.075225830078125	6.4117431640625E-06	1671.27768778043
0.07965087890625	7.04345703125E-06	1671.2887507804
0.084075927734375	6.99462890625E-06	1671.29981378037
0.0885009765625	7.177734375E-06	1671.31087678035
0.092926025390625	7.38525390625E-06	1671.32193978032
0.09735107421875	7.6385498046875E-06	1671.33300278029
0.101776123046875	7.733154296875E-06	1671.34406578026
0.106201171875	7.696533203125E-06	1671.35512878023
0.110626220703125	7.9742431640625E-06	1671.36619178021
0.11505126953125	8.270263671875E-06	1671.37725478018
0.119476318359375	8.2275390625E-06	1671.38831778015
0.1239013671875	8.343505859375E-06	1671.39938078012
0.128326416015625	8.48388671875E-06	1671.41044378009
0.13275146484375	8.447265625E-06	1671.42150678007
0.137176513671875	8.38623046875E-06	1671.43256978004
0.1416015625	8.721923828125E-06	1671.44363278001
0.146026611328125	8.7249755859375E-06	1671.45469577998
0.15045166015625	8.819580078125E-06	1671.46575877995
0.154876708984375	9.0484619140625E-06	1671.47682177993
0.1593017578125	8.6212158203125E-06	1671.4878847799
0.163726806640625	8.70361328125E-06	1671.49894777987
0.16815185546875	8.8653564453125E-06	1671.51001077984
0.172576904296875	8.8043212890625E-06	1671.52107377981
0.177001953125	9.033203125E-06	1671.53213677979
0.181427001953125	8.843994140625E-06	1671.54319977976
0.18585205078125	8.831787109375E-06	1671.55426277973
0.190277099609375	8.7127685546875E-06	1671.5653257797
0.1947021484375	8.905029296875E-06	1671.57638877968
0.199127197265625	9.0118408203125E-06	1671.58745177965
0.20355224609375	8.6578369140625E-06	1671.59851477962
0.207977294921875	8.89892578125E-06	1671.60957777959
0.21240234375	8.740234375E-06	1671.62064077956
0.216827392578125	8.9874267578125E-06	1671.63170377954
0.22125244140625	8.941650390625E-06	1671.64276677951
0.225677490234375	8.8409423828125E-06	1671.65382977948
0.2301025390625	9.1278076171875E-06	1671.66489277945
0.234527587890625	8.905029296875E-06	1671.67595577942
0.23895263671875	8.8775634765625E-06	1671.6870187794
0.243377685546875	8.9385986328125E-06	1671.69808177937
0.247802734375	8.9569091796875E-06	1671.70914477934
0.252227783203125	8.8623046875E-06	1671.72020777931
0.25665283203125	8.9080810546875E-06	1671.73127077928
0.261077880859375	8.8653564453125E-06	1671.74233377926
0.2655029296875	8.9111328125E-06	1671.75339677923
0.269927978515625	8.984375E-06	1671.7644597792
0.27435302734375	8.984375E-06	1671.77552277917
0.278778076171875	8.917236328125E-06	1671.78658577914
0.283203125	8.831787109375E-06	1671.79764877912
0.287628173828125	9.0576171875E-06	1671.80871177909
0.29205322265625	8.807373046875E-06	1671.81977477906
0.296478271484375	9.04541015625E-06	1671.83083777903
0.3009033203125	9.09423828125E-06	1671.841900779
0.305328369140625	8.97216796875E-06	1671.85296377898
0.30975341796875	9.014892578125E-06	1671.86402677895
0.314178466796875	9.130859375E-06	1671.87508977892
0.318603515625	8.8897705078125E-06	1671.88615277889
0.323028564453125	9.063720703125E-06	1671.89721577887
0.32745361328125	9.161376953125E-06	1671.90827877884
0.331878662109375	8.9874267578125E-06	1671.91934177881
0.3363037109375	9.222412109375E-06	1671.93040477878
0.340728759765625	9.234619140625E-06	1671.94146777875
0.34515380859375	9.46044921875E-06	1671.95253077873
0.349578857421875	9.4757080078125E-06	1671.9635937787
0.35400390625	9.3353271484375E-06	1671.97465677867
0.358428955078125	9.381103515625E-06	1671.98571977864
0.36285400390625	9.68017578125E-06	1671.99678277861
0.367279052734375	9.7564697265625E-06	1672.00784577859
0.3717041015625	9.50927734375E-06	1672.01890877856
0.376129150390625	9.6282958984375E-06	1672.02997177853
0.38055419921875	1.00921630859375E-05	1672.0410347785
0.384979248046875	9.9639892578125E-06	1672.05209777847
0.389404296875	1.0211181640625E-05	1672.06316077845
0.393829345703125	9.8419189453125E-06	1672.07422377842
0.39825439453125	9.9029541015625E-06	1672.08528677839
0.402679443359375	1.02081298828125E-05	1672.09634977836
0.4071044921875	1.016845703125E-05	1672.10741277833
0.411529541015625	1.01043701171875E-05	1672.11847577831
0.41595458984375	1.0479736328125E-05	1672.12953877828
0.420379638671875	1.04339599609375E-05	1672.14060177825
0.4248046875	1.06719970703125E-05	1672.15166477822
0.429229736328125	1.0418701171875E-05	1672.16272777819
0.43365478515625	1.05377197265625E-05	1672.17379077817
0.438079833984375	1.03912353515625E-05	1672.18485377814
0.4425048828125	1.06170654296875E-05	1672.19591677811
0.446929931640625	1.082763671875E-05	1672.20697977808
0.45135498046875	1.07421875E-05	1672.21804277806
0.455780029296875	1.11328125E-05	1672.22910577803
0.460205078125	1.08001708984375E-05	1672.240168778
0.464630126953125	1.11724853515625E-05	1672.25123177797
0.46905517578125	1.09649658203125E-05	1672.26229477794
0.473480224609375	1.15478515625E-05	1672.27335777792
0.4779052734375	1.13983154296875E-05	1672.28442077789
0.482330322265625	1.1627197265625E-05	1672.29548377786
0.48675537109375	1.17340087890625E-05	1672.30654677783
0.491180419921875	1.173095703125E-05	1672.3176097778
0.49560546875	1.20635986328125E-05	1672.32867277778
0.500030517578125	1.20361328125E-05	1672.33973577775
0.50445556640625	1.22772216796875E-05	1672.35079877772
0.508880615234375	1.23779296875E-05	1672.36186177769
0.5133056640625	1.2359619140625E-05	1672.37292477766
0.517730712890625	1.26373291015625E-05	1672.38398777764
0.52215576171875	1.25885009765625E-05	1672.39505077761
0.526580810546875	1.27532958984375E-05	1672.40611377758
0.531005859375	1.31134033203125E-05	1672.41717677755
0.535430908203125	1.329345703125E-05	1672.42823977752
0.53985595703125	1.346435546875E-05	1672.4393027775
0.544281005859375	1.36138916015625E-05	1672.45036577747
0.5487060546875	1.37847900390625E-05	1672.46142877744
0.553131103515625	1.39495849609375E-05	1672.47249177741
0.55755615234375	1.40777587890625E-05	1672.48355477739
0.561981201171875	1.4324951171875E-05	1672.49461777736
0.56640625	1.4337158203125E-05	1672.50568077733
0.570831298828125	1.44775390625E-05	1672.5167437773
0.57525634765625	1.47552490234375E-05	1672.52780677727
0.579681396484375	1.50543212890625E-05	1672.53886977725
0.5841064453125	1.5155029296875E-05	1672.54993277722
0.588531494140625	1.55059814453125E-05	1672.56099577719
0.59295654296875	1.5814208984375E-05	1672.57205877716
0.597381591796875	1.63360595703125E-05	1672.58312177713
0.601806640625	1.60186767578125E-05	1672.59418477711
0.606231689453125	1.6259765625E-05	1672.60524777708
0.61065673828125	1.68792724609375E-05	1672.61631077705
0.615081787109375	1.69342041015625E-05	1672.62737377702
0.6195068359375	1.70440673828125E-05	1672.63843677699
0.623931884765625	1.79046630859375E-05	1672.64949977697
0.62835693359375	1.79351806640625E-05	1672.66056277694
0.632781982421875	1.81640625E-05	1672.67162577691
0.63720703125	1.84722900390625E-05	1672.68268877688
0.641632080078125	1.8719482421875E-05	1672.69375177685
0.64605712890625	1.89727783203125E-05	1672.70481477683
0.650482177734375	1.93023681640625E-05	1672.7158777768
0.6549072265625	1.98150634765625E-05	1672.72694077677
0.659332275390625	2.01812744140625E-05	1672.73800377674
0.66375732421875	2.06085205078125E-05	1672.74906677671
0.668182373046875	2.08953857421875E-05	1672.76012977669
0.672607421875	2.14996337890625E-05	1672.77119277666
0.677032470703125	2.17376708984375E-05	1672.78225577663
0.68145751953125	2.2314453125E-05	1672.7933187766
0.685882568359375	2.27508544921875E-05	1672.80438177657
0.6903076171875	2.330322265625E-05	1672.81544477655
0.694732666015625	2.3626708984375E-05	1672.82650777652
0.69915771484375	2.40814208984375E-05	1672.83757077649
0.703582763671875	2.486572265625E-05	1672.84863377646
0.69915771484375	8.685302734375E-06	1672.85969677644
0.694732666015625	4.5928955078125E-06	1672.87075977641
0.6903076171875	2.07977294921875E-06	1672.88182277638
0.685882568359375	1.4556884765625E-07	1672.89288577635
0.68145751953125	-1.322021484375E-06	1672.90394877632
0.677032470703125	-2.8125E-06	1672.9150117763
0.672607421875	-3.580322265625E-06	1672.92607477627
0.668182373046875	-4.40460205078125E-06	1672.93713777624
0.66375732421875	-4.952392578125E-06	1672.94820077621
0.659332275390625	-5.62896728515625E-06	1672.95926377618
0.6549072265625	-6.21826171875E-06	1672.97032677616
0.650482177734375	-6.5765380859375E-06	1672.98138977613
0.64605712890625	-6.9427490234375E-06	1672.9924527761
0.641632080078125	-7.391357421875E-06	1673.00351577607
0.63720703125	-7.6751708984375E-06	1673.01457877604
0.632781982421875	-7.9681396484375E-06	1673.02564177602
0.62835693359375	-8.160400390625E-06	1673.03670477599
0.623931884765625	-8.30078125E-06	1673.04776777596
0.6195068359375	-8.75244140625E-06	1673.05883077593
0.615081787109375	-8.6639404296875E-06	1673.0698937759
0.61065673828125	-8.92333984375E-06	1673.08095677588
0.606231689453125	-9.100341796875E-06	1673.09201977585
0.601806640625	-9.14306640625E-06	1673.10308277582
0.597381591796875	-9.3109130859375E-06	1673.11414577579
0.59295654296875	-9.58251953125E-06	1673.12520877576
0.588531494140625	-9.55810546875E-06	1673.13627177574
0.5841064453125	-9.3780517578125E-06	1673.14733477571
0.579681396484375	-9.7381591796875E-06	1673.15839777568
0.57525634765625	-9.58251953125E-06	1673.16946077565
0.570831298828125	-9.8052978515625E-06	1673.18052377563
0.56640625	-9.7198486328125E-06	1673.1915867756
0.561981201171875	-1.0015869140625E-05	1673.20264977557
0.55755615234375	-9.979248046875E-06	1673.21371277554
0.553131103515625	-9.8846435546875E-06	1673.22477577551
0.5487060546875	-1.0089111328125E-05	1673.23583877549
0.544281005859375	-1.021728515625E-05	1673.24690177546
0.53985595703125	-9.94873046875E-06	1673.25796477543
0.535430908203125	-1.00494384765625E-05	1673.2690277754
0.531005859375	-9.930419921875E-06	1673.28009077537
0.526580810546875	-1.0357666015625E-05	1673.29115377535
0.52215576171875	-9.5489501953125E-06	1673.30221677532
0.517730712890625	-1.00982666015625E-05	1673.31327977529
0.5133056640625	-1.03363037109375E-05	1673.32434277526
0.508880615234375	-1.0430908203125E-05	1673.33540577523
0.50445556640625	-1.0211181640625E-05	1673.34646877521
0.500030517578125	-1.0296630859375E-05	1673.35753177518
0.49560546875	-1.0186767578125E-05	1673.36859477515
0.491180419921875	-1.014404296875E-05	1673.37965777512
0.48675537109375	-1.0052490234375E-05	1673.39072077509
0.482330322265625	-1.0272216796875E-05	1673.40178377507
0.4779052734375	-1.0345458984375E-05	1673.41284677504
0.473480224609375	-1.024169921875E-05	1673.42390977501
0.46905517578125	-1.01654052734375E-05	1673.43497277498
0.464630126953125	-1.0174560546875E-05	1673.44603577495
0.460205078125	-1.025390625E-05	1673.45709877493
0.455780029296875	-1.01654052734375E-05	1673.4681617749
0.45135498046875	-1.02569580078125E-05	1673.47922477487
0.446929931640625	-1.01654052734375E-05	1673.49028777484
0.4425048828125	-1.0205078125E-05	1673.50135077482
0.438079833984375	-1.0101318359375E-05	1673.51241377479
0.43365478515625	-1.00799560546875E-05	1673.52347677476
0.429229736328125	-1.01959228515625E-05	1673.53453977473
0.4248046875	-1.02691650390625E-05	1673.5456027747
0.420379638671875	-1.0382080078125E-05	1673.55666577468
0.41595458984375	-1.0205078125E-05	1673.56772877465
0.411529541015625	-1.03118896484375E-05	1673.57879177462
0.4071044921875	-1.02691650390625E-05	1673.58985477459
0.402679443359375	-1.0284423828125E-05	1673.60091777456
0.39825439453125	-1.03363037109375E-05	1673.61198077454
0.393829345703125	-1.01898193359375E-05	1673.62304377451
0.389404296875	-1.02508544921875E-05	1673.63410677448
0.384979248046875	-1.0205078125E-05	1673.64516977445
0.38055419921875	-1.051025390625E-05	1673.65623277442
0.376129150390625	-1.016845703125E-05	1673.6672957744
0.3717041015625	-1.0491943359375E-05	1673.67835877437
0.367279052734375	-1.04217529296875E-05	1673.68942177434
0.36285400390625	-1.029052734375E-05	1673.70048477431
0.358428955078125	-1.04248046875E-05	1673.71154777428
0.35400390625	-1.0345458984375E-05	1673.72261077426
0.349578857421875	-1.04522705078125E-05	1673.73367377423
0.34515380859375	-1.06414794921875E-05	1673.7447367742
0.340728759765625	-1.03363037109375E-05	1673.75579977417
0.3363037109375	-1.04522705078125E-05	1673.76686277415
0.331878662109375	-1.07269287109375E-05	1673.77792577412
0.32745361328125	-1.046142578125E-05	1673.78898877409
0.323028564453125	-1.0595703125E-05	1673.80005177406
0.318603515625	-1.0546875E-05	1673.81111477403
0.314178466796875	-1.04522705078125E-05	1673.82217777401
0.30975341796875	-1.0552978515625E-05	1673.83324077398
0.305328369140625	-1.0589599609375E-05	1673.84430377395
0.3009033203125	-1.04522705078125E-05	1673.85536677392
0.296478271484375	-1.0601806640625E-05	1673.86642977389
0.29205322265625	-1.06719970703125E-05	1673.87749277387
0.287628173828125	-1.0491943359375E-05	1673.88855577384
0.283203125	-1.0821533203125E-05	1673.89961877381
0.278778076171875	-1.0736083984375E-05	1673.91068177378
0.27435302734375	-1.08367919921875E-05	1673.92174477375
0.269927978515625	-1.0638427734375E-05	1673.93280777373
0.2655029296875	-1.07635498046875E-05	1673.9438707737
0.261077880859375	-1.08551025390625E-05	1673.95493377367
0.25665283203125	-1.08062744140625E-05	1673.96599677364
0.252227783203125	-1.0833740234375E-05	1673.97705977361
0.247802734375	-1.0687255859375E-05	1673.98812277359
0.243377685546875	-1.08642578125E-05	1673.99918577356
0.23895263671875	-1.12030029296875E-05	1674.01024877353
0.234527587890625	-1.1181640625E-05	1674.0213117735
0.2301025390625	-1.129150390625E-05	1674.03237477347
0.225677490234375	-1.14410400390625E-05	1674.04343777345
0.22125244140625	-1.1273193359375E-05	1674.05450077342
0.216827392578125	-1.1309814453125E-05	1674.06556377339
0.21240234375	-1.18499755859375E-05	1674.07662677336
0.207977294921875	-1.1474609375E-05	1674.08768977333
0.20355224609375	-1.17156982421875E-05	1674.09875277331
0.199127197265625	-1.17919921875E-05	1674.10981577328
0.1947021484375	-1.19903564453125E-05	1674.12087877325
0.190277099609375	-1.19384765625E-05	1674.13194177322
0.18585205078125	-1.20513916015625E-05	1674.1430047732
0.181427001953125	-1.20208740234375E-05	1674.15406777317
0.177001953125	-1.22039794921875E-05	1674.16513077314
0.172576904296875	-1.253662109375E-05	1674.17619377311
0.16815185546875	-1.22894287109375E-05	1674.18725677308
0.163726806640625	-1.25518798828125E-05	1674.19831977306
0.1593017578125	-1.27716064453125E-05	1674.20938277303
0.154876708984375	-1.27349853515625E-05	1674.220445773
0.15045166015625	-1.2860107421875E-05	1674.23150877297
0.146026611328125	-1.29150390625E-05	1674.24257177294
0.1416015625	-1.314697265625E-05	1674.25363477292
0.137176513671875	-1.33758544921875E-05	1674.26469777289
0.13275146484375	-1.3116455078125E-05	1674.27576077286
0.128326416015625	-1.34368896484375E-05	1674.28682377283
0.1239013671875	-1.35833740234375E-05	1674.2978867728
0.119476318359375	-1.3665771484375E-05	1674.30894977278
0.11505126953125	-1.40167236328125E-05	1674.32001277275
0.110626220703125	-1.4111328125E-05	1674.33107577272
0.106201171875	-1.4398193359375E-05	1674.34213877269
0.101776123046875	-1.474609375E-05	1674.35320177266
0.09735107421875	-1.533203125E-05	1674.36426477264
0.092926025390625	-1.533203125E-05	1674.37532777261
0.0885009765625	-1.57501220703125E-05	1674.38639077258
0.084075927734375	-1.614990234375E-05	1674.39745377255
0.07965087890625	-1.64520263671875E-05	1674.40851677252
0.075225830078125	-1.68365478515625E-05	1674.4195797725
0.07080078125	-1.73095703125E-05	1674.43064277247
0.066375732421875	-1.7547607421875E-05	1674.44170577244
0.06195068359375	-1.810302734375E-05	1674.45276877241
0.057525634765625	-1.8328857421875E-05	1674.46383177239
0.0531005859375	-1.85455322265625E-05	1674.47489477236
0.048675537109375	-1.87255859375E-05	1674.48595777233
0.04425048828125	-1.89483642578125E-05	1674.4970207723
0.039825439453125	-1.91009521484375E-05	1674.50808377227
0.035400390625	-1.89697265625E-05	1674.51914677225
0.030975341796875	-1.89544677734375E-05	1674.53020977222
0.02655029296875	-1.8939208984375E-05	1674.54127277219
0.022125244140625	-1.89117431640625E-05	1674.55233577216
0.0177001953125	-1.89178466796875E-05	1674.56339877213
0.013275146484375	-1.90521240234375E-05	1674.57446177211
0.00885009765625	-1.9122314453125E-05	1674.58552477208
0.004425048828125	-1.91436767578125E-05	1674.59658777205
0	-1.91253662109375E-05	1674.60765077202
0.004425048828125	-7.135009765625E-06	1674.61871377199
0.00885009765625	-3.94287109375E-06	1674.62977677197
0.013275146484375	-1.8023681640625E-06	1674.64083977194
0.0177001953125	-2.752685546875E-07	1674.65190277191
0.022125244140625	6.3262939453125E-07	1674.66296577188
0.02655029296875	1.86309814453125E-06	1674.67402877185
0.030975341796875	2.398681640625E-06	1674.68509177183
0.035400390625	2.85491943359375E-06	1674.6961547718
0.039825439453125	3.67919921875E-06	1674.70721777177
0.04425048828125	4.2315673828125E-06	1674.71828077174
0.048675537109375	4.674072265625E-06	1674.72934377171
0.0531005859375	5.0494384765625E-06	1674.74040677169
0.057525634765625	5.4095458984375E-06	1674.75146977166
0.06195068359375	5.770263671875E-06	1674.76253277163
0.066375732421875	6.11572265625E-06	1674.7735957716
0.07080078125	6.15234375E-06	1674.78465877158
0.075225830078125	6.2774658203125E-06	1674.79572177155
0.07965087890625	6.7474365234375E-06	1674.80678477152
0.084075927734375	6.89697265625E-06	1674.81784777149
0.0885009765625	7.0526123046875E-06	1674.82891077146
0.092926025390625	7.3486328125E-06	1674.83997377144
0.09735107421875	7.568359375E-06	1674.85103677141
0.101776123046875	7.769775390625E-06	1674.86209977138
0.106201171875	7.8155517578125E-06	1674.87316277135
0.110626220703125	8.013916015625E-06	1674.88422577132
0.11505126953125	8.21533203125E-06	1674.8952887713
0.119476318359375	8.3160400390625E-06	1674.90635177127
0.1239013671875	8.02001953125E-06	1674.91741477124
0.128326416015625	8.306884765625E-06	1674.92847777121
0.13275146484375	8.642578125E-06	1674.93954077118
0.137176513671875	8.49609375E-06	1674.95060377116
0.1416015625	8.5662841796875E-06	1674.96166677113
0.146026611328125	8.33740234375E-06	1674.9727297711
0.15045166015625	8.7554931640625E-06	1674.98379277107
0.154876708984375	8.7799072265625E-06	1674.99485577104
0.1593017578125	8.6944580078125E-06	1675.00591877102
0.163726806640625	8.587646484375E-06	1675.01698177099
0.16815185546875	8.782958984375E-06	1675.02804477096
0.172576904296875	8.8165283203125E-06	1675.03910777093
0.177001953125	8.8348388671875E-06	1675.0501707709
0.181427001953125	8.8836669921875E-06	1675.06123377088
0.18585205078125	8.7890625E-06	1675.07229677085
0.190277099609375	8.673095703125E-06	1675.08335977082
0.1947021484375	8.8592529296875E-06	1675.09442277079
0.199127197265625	8.8165283203125E-06	1675.10548577077
0.20355224609375	8.575439453125E-06	1675.11654877074
0.207977294921875	8.837890625E-06	1675.12761177071
0.21240234375	8.740234375E-06	1675.13867477068
0.216827392578125	8.9111328125E-06	1675.14973777065
0.22125244140625	8.89892578125E-06	1675.16080077063
0.225677490234375	8.8714599609375E-06	1675.1718637706
0.2301025390625	8.8226318359375E-06	1675.18292677057
0.234527587890625	8.9874267578125E-06	1675.19398977054
0.23895263671875	8.966064453125E-06	1675.20505277051
0.243377685546875	8.63037109375E-06	1675.21611577049
0.247802734375	8.856201171875E-06	1675.22717877046
0.252227783203125	8.7860107421875E-06	1675.23824177043
0.25665283203125	8.8897705078125E-06	1675.2493047704
0.261077880859375	8.8470458984375E-06	1675.26036777037
0.2655029296875	8.831787109375E-06	1675.27143077035
0.269927978515625	8.7432861328125E-06	1675.28249377032
0.27435302734375	8.8592529296875E-06	1675.29355677029
0.278778076171875	8.9385986328125E-06	1675.30461977026
0.283203125	8.8348388671875E-06	1675.31568277023
0.287628173828125	8.9691162109375E-06	1675.32674577021
0.29205322265625	8.7432861328125E-06	1675.33780877018
0.296478271484375	9.0789794921875E-06	1675.34887177015
0.3009033203125	8.856201171875E-06	1675.35993477012
0.305328369140625	8.966064453125E-06	1675.37099777009
0.30975341796875	8.9935302734375E-06	1675.38206077007
0.314178466796875	9.0484619140625E-06	1675.39312377004
0.318603515625	8.880615234375E-06	1675.40418677001
0.323028564453125	8.8165283203125E-06	1675.41524976998
0.32745361328125	9.2071533203125E-06	1675.42631276996
0.331878662109375	8.990478515625E-06	1675.43737576993
0.3363037109375	9.112548828125E-06	1675.4484387699
0.340728759765625	9.4024658203125E-06	1675.45950176987
0.34515380859375	9.0972900390625E-06	1675.47056476984
0.349578857421875	9.28955078125E-06	1675.48162776982
0.35400390625	9.5245361328125E-06	1675.49269076979
0.358428955078125	9.375E-06	1675.50375376976
0.36285400390625	9.4635009765625E-06	1675.51481676973
0.367279052734375	9.5611572265625E-06	1675.5258797697
0.3717041015625	9.527587890625E-06	1675.53694276968
0.376129150390625	9.8541259765625E-06	1675.54800576965
0.38055419921875	9.7381591796875E-06	1675.55906876962
0.384979248046875	9.9578857421875E-06	1675.57013176959
0.389404296875	9.9609375E-06	1675.58119476956
0.393829345703125	9.8175048828125E-06	1675.59225776954
0.39825439453125	1.0113525390625E-05	1675.60332076951
0.402679443359375	1.0076904296875E-05	1675.61438376948
0.4071044921875	1.01837158203125E-05	1675.62544676945
0.411529541015625	9.9578857421875E-06	1675.63650976942
0.41595458984375	1.0369873046875E-05	1675.6475727694
0.420379638671875	1.0205078125E-05	1675.65863576937
0.4248046875	1.0198974609375E-05	1675.66969876934
0.429229736328125	1.0260009765625E-05	1675.68076176931
0.43365478515625	1.05316162109375E-05	1675.69182476928
0.438079833984375	1.0565185546875E-05	1675.70288776926
0.4425048828125	1.06231689453125E-05	1675.71395076923
0.446929931640625	1.0638427734375E-05	1675.7250137692
0.45135498046875	1.07025146484375E-05	1675.73607676917
0.455780029296875	1.08123779296875E-05	1675.74713976915
0.460205078125	1.07940673828125E-05	1675.75820276912
0.464630126953125	1.1083984375E-05	1675.76926576909
0.46905517578125	1.094970703125E-05	1675.78032876906
0.473480224609375	1.11358642578125E-05	1675.79139176903
0.4779052734375	1.160888671875E-05	1675.80245476901
0.482330322265625	1.17431640625E-05	1675.81351776898
0.48675537109375	1.15966796875E-05	1675.82458076895
0.491180419921875	1.18499755859375E-05	1675.83564376892
0.49560546875	1.18316650390625E-05	1675.84670676889
0.500030517578125	1.1981201171875E-05	1675.85776976887
0.50445556640625	1.185302734375E-05	1675.86883276884
0.508880615234375	1.2176513671875E-05	1675.87989576881
0.5133056640625	1.2261962890625E-05	1675.89095876878
0.517730712890625	1.2310791015625E-05	1675.90202176875
0.52215576171875	1.27655029296875E-05	1675.91308476873
0.526580810546875	1.2762451171875E-05	1675.9241477687
0.531005859375	1.28204345703125E-05	1675.93521076867
0.535430908203125	1.30218505859375E-05	1675.94627376864
0.53985595703125	1.32476806640625E-05	1675.95733676861
0.544281005859375	1.34613037109375E-05	1675.96839976859
0.5487060546875	1.357421875E-05	1675.97946276856
0.553131103515625	1.373291015625E-05	1675.99052576853
0.55755615234375	1.40380859375E-05	1676.0015887685
0.561981201171875	1.41387939453125E-05	1676.01265176847
0.56640625	1.4202880859375E-05	1676.02371476845
0.570831298828125	1.43341064453125E-05	1676.03477776842
0.57525634765625	1.47674560546875E-05	1676.04584076839
0.579681396484375	1.48284912109375E-05	1676.05690376836
0.5841064453125	1.5118408203125E-05	1676.06796676834
0.588531494140625	1.53289794921875E-05	1676.07902976831
0.59295654296875	1.58294677734375E-05	1676.09009276828
0.597381591796875	1.57440185546875E-05	1676.10115576825
0.601806640625	1.61651611328125E-05	1676.11221876822
0.606231689453125	1.6168212890625E-05	1676.1232817682
0.61065673828125	1.6583251953125E-05	1676.13434476817
0.615081787109375	1.69769287109375E-05	1676.14540776814
0.6195068359375	1.7083740234375E-05	1676.15647076811
0.623931884765625	1.744384765625E-05	1676.16753376808
0.62835693359375	1.7779541015625E-05	1676.17859676806
0.632781982421875	1.80877685546875E-05	1676.18965976803
0.63720703125	1.8048095703125E-05	1676.200722768
0.641632080078125	1.85699462890625E-05	1676.21178576797
0.64605712890625	1.86676025390625E-05	1676.22284876794
0.650482177734375	1.93572998046875E-05	1676.23391176792
0.6549072265625	1.97052001953125E-05	1676.24497476789
0.659332275390625	1.98638916015625E-05	1676.25603776786
0.66375732421875	2.0281982421875E-05	1676.26710076783
0.668182373046875	2.0745849609375E-05	1676.2781637678
0.672607421875	2.12799072265625E-05	1676.28922676778
0.677032470703125	2.17010498046875E-05	1676.30028976775
0.68145751953125	2.2161865234375E-05	1676.31135276772
0.685882568359375	2.249755859375E-05	1676.32241576769
0.6903076171875	2.318115234375E-05	1676.33347876766
0.694732666015625	2.36846923828125E-05	1676.34454176764
0.69915771484375	2.392578125E-05	1676.35560476761
0.703582763671875	2.4530029296875E-05	1676.36666776758
0.69915771484375	8.65478515625E-06	1676.37773076755
0.694732666015625	4.5196533203125E-06	1676.38879376753
0.6903076171875	1.83074951171875E-06	1676.3998567675
0.685882568359375	7.293701171875E-08	1676.41091976747
0.68145751953125	-1.44744873046875E-06	1676.42198276744
0.677032470703125	-2.4530029296875E-06	1676.43304576741
0.672607421875	-3.49761962890625E-06	1676.44410876739
0.668182373046875	-4.630126953125E-06	1676.45517176736
0.66375732421875	-5.0640869140625E-06	1676.46623476733
0.659332275390625	-5.7476806640625E-06	1676.4772977673
0.6549072265625	-6.4520263671875E-06	1676.48836076727
0.650482177734375	-6.7108154296875E-06	1676.49942376725
0.64605712890625	-7.1746826171875E-06	1676.51048676722
0.641632080078125	-7.4676513671875E-06	1676.52154976719
0.63720703125	-7.5164794921875E-06	1676.53261276716
0.632781982421875	-8.251953125E-06	1676.54367576713
0.62835693359375	-8.23974609375E-06	1676.55473876711
0.623931884765625	-8.343505859375E-06	1676.56580176708
0.6195068359375	-8.8958740234375E-06	1676.57686476705
0.615081787109375	-8.85009765625E-06	1676.58792776702
0.61065673828125	-8.8775634765625E-06	1676.59899076699
0.606231689453125	-9.1156005859375E-06	1676.61005376697
0.601806640625	-9.26513671875E-06	1676.62111676694
0.597381591796875	-9.4879150390625E-06	1676.63217976691
0.59295654296875	-9.4879150390625E-06	1676.64324276688
0.588531494140625	-9.6771240234375E-06	1676.65430576685
0.5841064453125	-9.50927734375E-06	1676.66536876683
0.579681396484375	-9.85107421875E-06	1676.6764317668
0.57525634765625	-9.8876953125E-06	1676.68749476677
0.570831298828125	-9.7412109375E-06	1676.69855776674
0.56640625	-9.6893310546875E-06	1676.70962076672
0.561981201171875	-9.9517822265625E-06	1676.72068376669
0.55755615234375	-9.8114013671875E-06	1676.73174676666
0.553131103515625	-9.9945068359375E-06	1676.74280976663
0.5487060546875	-1.016845703125E-05	1676.7538727666
0.544281005859375	-1.02020263671875E-05	1676.76493576658
0.53985595703125	-1.0009765625E-05	1676.77599876655
0.535430908203125	-1.01165771484375E-05	1676.78706176652
0.531005859375	-1.00921630859375E-05	1676.79812476649
0.526580810546875	-1.021728515625E-05	1676.80918776646
0.52215576171875	-1.0107421875E-05	1676.82025076644
0.517730712890625	-1.00982666015625E-05	1676.83131376641
0.5133056640625	-1.02691650390625E-05	1676.84237676638
0.508880615234375	-1.0150146484375E-05	1676.85343976635
0.50445556640625	-1.0113525390625E-05	1676.86450276632
0.500030517578125	-1.02325439453125E-05	1676.8755657663
0.49560546875	-1.03668212890625E-05	1676.88662876627
0.491180419921875	-1.0223388671875E-05	1676.89769176624
0.48675537109375	-1.03607177734375E-05	1676.90875476621
0.482330322265625	-1.03118896484375E-05	1676.91981776618
0.4779052734375	-1.031494140625E-05	1676.93088076616
0.473480224609375	-1.04156494140625E-05	1676.94194376613
0.46905517578125	-1.02020263671875E-05	1676.9530067661
0.464630126953125	-1.024169921875E-05	1676.96406976607
0.460205078125	-1.02020263671875E-05	1676.97513276604
0.455780029296875	-1.0260009765625E-05	1676.98619576602
0.45135498046875	-1.03302001953125E-05	1676.99725876599
0.446929931640625	-1.00860595703125E-05	1677.00832176596
0.4425048828125	-1.02813720703125E-05	1677.01938476593
0.438079833984375	-1.02691650390625E-05	1677.03044776591
0.43365478515625	-1.0223388671875E-05	1677.04151076588
0.429229736328125	-1.00799560546875E-05	1677.05257376585
0.4248046875	-9.92431640625E-06	1677.06363676582
0.420379638671875	-1.03851318359375E-05	1677.07469976579
0.41595458984375	-1.02447509765625E-05	1677.08576276577
0.411529541015625	-1.0186767578125E-05	1677.09682576574
0.4071044921875	-1.03759765625E-05	1677.10788876571
0.402679443359375	-1.0107421875E-05	1677.11895176568
0.39825439453125	-1.024169921875E-05	1677.13001476565
0.393829345703125	-1.015625E-05	1677.14107776563
0.389404296875	-1.02294921875E-05	1677.1521407656
0.384979248046875	-1.0369873046875E-05	1677.16320376557
0.38055419921875	-1.0406494140625E-05	1677.17426676554
0.376129150390625	-1.00921630859375E-05	1677.18532976551
0.3717041015625	-1.0400390625E-05	1677.19639276549
0.367279052734375	-1.03546142578125E-05	1677.20745576546
0.36285400390625	-1.0430908203125E-05	1677.21851876543
0.358428955078125	-1.0394287109375E-05	1677.2295817654
0.35400390625	-1.04248046875E-05	1677.24064476537
0.349578857421875	-1.0565185546875E-05	1677.25170776535
0.34515380859375	-1.05926513671875E-05	1677.26277076532
0.340728759765625	-1.0650634765625E-05	1677.27383376529
0.3363037109375	-1.03607177734375E-05	1677.28489676526
0.331878662109375	-1.0455322265625E-05	1677.29595976523
0.32745361328125	-1.0418701171875E-05	1677.30702276521
0.323028564453125	-1.06719970703125E-05	1677.31808576518
0.318603515625	-1.04278564453125E-05	1677.32914876515
0.314178466796875	-1.06353759765625E-05	1677.34021176512
0.30975341796875	-1.06201171875E-05	1677.3512747651
0.305328369140625	-1.055908203125E-05	1677.36233776507
0.3009033203125	-1.06719970703125E-05	1677.37340076504
0.296478271484375	-1.043701171875E-05	1677.38446376501
0.29205322265625	-1.0736083984375E-05	1677.39552676498
0.287628173828125	-1.036376953125E-05	1677.40658976496
0.283203125	-1.05194091796875E-05	1677.41765276493
0.278778076171875	-1.05743408203125E-05	1677.4287157649
0.27435302734375	-1.07330322265625E-05	1677.43977876487
0.269927978515625	-1.0760498046875E-05	1677.45084176484
0.2655029296875	-1.06353759765625E-05	1677.46190476482
0.261077880859375	-1.0833740234375E-05	1677.47296776479
0.25665283203125	-1.0821533203125E-05	1677.48403076476
0.252227783203125	-1.09344482421875E-05	1677.49509376473
0.247802734375	-1.0784912109375E-05	1677.5061567647
0.243377685546875	-1.08367919921875E-05	1677.51721976468
0.23895263671875	-1.12335205078125E-05	1677.52828276465
0.234527587890625	-1.11846923828125E-05	1677.53934576462
0.2301025390625	-1.11419677734375E-05	1677.55040876459
0.225677490234375	-1.13311767578125E-05	1677.56147176456
0.22125244140625	-1.13128662109375E-05	1677.57253476454
0.216827392578125	-1.14898681640625E-05	1677.58359776451
0.21240234375	-1.16180419921875E-05	1677.59466076448
0.207977294921875	-1.17462158203125E-05	1677.60572376445
0.20355224609375	-1.187744140625E-05	1677.61678676442
0.199127197265625	-1.17401123046875E-05	1677.6278497644
0.1947021484375	-1.1798095703125E-05	1677.63891276437
0.190277099609375	-1.212158203125E-05	1677.64997576434
0.18585205078125	-1.2042236328125E-05	1677.66103876431
0.181427001953125	-1.23016357421875E-05	1677.67210176429
0.177001953125	-1.239013671875E-05	1677.68316476426
0.172576904296875	-1.221923828125E-05	1677.69422776423
0.16815185546875	-1.25213623046875E-05	1677.7052907642
0.163726806640625	-1.26983642578125E-05	1677.71635376417
0.1593017578125	-1.26617431640625E-05	1677.72741676415
0.154876708984375	-1.26434326171875E-05	1677.73847976412
0.15045166015625	-1.2860107421875E-05	1677.74954276409
0.146026611328125	-1.2921142578125E-05	1677.76060576406
0.1416015625	-1.3018798828125E-05	1677.77166876403
0.137176513671875	-1.30218505859375E-05	1677.78273176401
0.13275146484375	-1.35284423828125E-05	1677.79379476398
0.128326416015625	-1.32110595703125E-05	1677.80485776395
0.1239013671875	-1.36444091796875E-05	1677.81592076392
0.119476318359375	-1.390380859375E-05	1677.82698376389
0.11505126953125	-1.39862060546875E-05	1677.83804676387
0.110626220703125	-1.42547607421875E-05	1677.84910976384
0.106201171875	-1.4605712890625E-05	1677.86017276381
0.101776123046875	-1.46148681640625E-05	1677.87123576378
0.09735107421875	-1.50482177734375E-05	1677.88229876375
0.092926025390625	-1.52557373046875E-05	1677.89336176373
0.0885009765625	-1.56341552734375E-05	1677.9044247637
0.084075927734375	-1.58782958984375E-05	1677.91548776367
0.07965087890625	-1.6571044921875E-05	1677.92655076364
0.075225830078125	-1.6845703125E-05	1677.93761376361
0.07080078125	-1.72332763671875E-05	1677.94867676359
0.066375732421875	-1.7578125E-05	1677.95973976356
0.06195068359375	-1.7926025390625E-05	1677.97080276353
0.057525634765625	-1.846923828125E-05	1677.9818657635
0.0531005859375	-1.8780517578125E-05	1677.99292876347
0.048675537109375	-1.86187744140625E-05	1678.00399176345
0.04425048828125	-1.90582275390625E-05	1678.01505476342
0.039825439453125	-1.8963623046875E-05	1678.02611776339
0.035400390625	-1.91162109375E-05	1678.03718076336
0.030975341796875	-1.90765380859375E-05	1678.04824376334
0.02655029296875	-1.90948486328125E-05	1678.05930676331
0.022125244140625	-1.90093994140625E-05	1678.07036976328
0.0177001953125	-1.90582275390625E-05	1678.08143276325
0.013275146484375	-1.9219970703125E-05	1678.09249576322
0.00885009765625	-1.90032958984375E-05	1678.1035587632
0.004425048828125	-1.91864013671875E-05	1678.11462176317
0	-1.93939208984375E-05	1678.12568476314
0.004425048828125	-7.330322265625E-06	1678.13674776311
0.00885009765625	-3.82080078125E-06	1678.14781076308
0.013275146484375	-1.80999755859375E-06	1678.15887376306
