Potential applied (V)	WE(1).Current (A)	Time (s)
0.004425048828125	-1.91253662109375E-06	1629.1868858867
0.00885009765625	-4.7332763671875E-07	1629.20901088664
0.013275146484375	3.4698486328125E-07	1629.23113588659
0.0177001953125	5.743408203125E-07	1629.25326088653
0.022125244140625	1.27655029296875E-06	1629.27538588648
0.02655029296875	1.2652587890625E-06	1629.29751088642
0.030975341796875	1.54266357421875E-06	1629.31963588636
0.035400390625	1.8145751953125E-06	1629.34176088631
0.039825439453125	1.99920654296875E-06	1629.36388588625
0.04425048828125	2.2119140625E-06	1629.3860108862
0.048675537109375	2.281494140625E-06	1629.40813588614
0.0531005859375	2.4652099609375E-06	1629.43026088608
0.057525634765625	2.45147705078125E-06	1629.45238588603
0.06195068359375	2.63641357421875E-06	1629.47451088597
0.066375732421875	2.65777587890625E-06	1629.49663588592
0.07080078125	2.8912353515625E-06	1629.51876088586
0.075225830078125	3.00872802734375E-06	1629.5408858858
0.07965087890625	3.1390380859375E-06	1629.56301088575
0.084075927734375	3.2867431640625E-06	1629.58513588569
0.0885009765625	3.46343994140625E-06	1629.60726088564
0.092926025390625	3.377685546875E-06	1629.62938588558
0.09735107421875	3.47015380859375E-06	1629.65151088553
0.101776123046875	3.60931396484375E-06	1629.67363588547
0.106201171875	3.6309814453125E-06	1629.69576088541
0.110626220703125	3.834228515625E-06	1629.71788588536
0.11505126953125	3.7982177734375E-06	1629.7400108853
0.119476318359375	3.91510009765625E-06	1629.76213588525
0.1239013671875	4.09210205078125E-06	1629.78426088519
0.128326416015625	4.00054931640625E-06	1629.80638588513
0.13275146484375	4.07745361328125E-06	1629.82851088508
0.137176513671875	3.95111083984375E-06	1629.85063588502
0.1416015625	4.12017822265625E-06	1629.87276088497
0.146026611328125	4.0740966796875E-06	1629.89488588491
0.15045166015625	4.06890869140625E-06	1629.91701088486
0.154876708984375	3.83087158203125E-06	1629.9391358848
0.1593017578125	3.97247314453125E-06	1629.96126088474
0.163726806640625	4.00634765625E-06	1629.98338588469
0.16815185546875	4.11407470703125E-06	1630.00551088463
0.172576904296875	4.0093994140625E-06	1630.02763588458
0.177001953125	4.05364990234375E-06	1630.04976088452
0.181427001953125	3.94805908203125E-06	1630.07188588446
0.18585205078125	4.00177001953125E-06	1630.09401088441
0.190277099609375	3.98529052734375E-06	1630.11613588435
0.1947021484375	3.990478515625E-06	1630.1382608843
0.199127197265625	4.00604248046875E-06	1630.16038588424
0.20355224609375	4.0179443359375E-06	1630.18251088418
0.207977294921875	4.0557861328125E-06	1630.20463588413
0.21240234375	4.049072265625E-06	1630.22676088407
0.216827392578125	4.09332275390625E-06	1630.24888588402
0.22125244140625	3.919677734375E-06	1630.27101088396
0.225677490234375	4.0435791015625E-06	1630.29313588391
0.2301025390625	3.96453857421875E-06	1630.31526088385
0.234527587890625	3.9739990234375E-06	1630.33738588379
0.23895263671875	4.044189453125E-06	1630.35951088374
0.243377685546875	3.9483642578125E-06	1630.38163588368
0.247802734375	3.966064453125E-06	1630.40376088363
0.252227783203125	3.9080810546875E-06	1630.42588588357
0.25665283203125	3.7994384765625E-06	1630.44801088351
0.261077880859375	3.98773193359375E-06	1630.47013588346
0.2655029296875	3.8787841796875E-06	1630.4922608834
0.269927978515625	3.8287353515625E-06	1630.51438588335
0.27435302734375	3.88763427734375E-06	1630.53651088329
0.278778076171875	3.89312744140625E-06	1630.55863588324
0.283203125	3.96942138671875E-06	1630.58076088318
0.287628173828125	3.99658203125E-06	1630.60288588312
0.29205322265625	4.012451171875E-06	1630.62501088307
0.296478271484375	3.8702392578125E-06	1630.64713588301
0.3009033203125	3.983154296875E-06	1630.66926088296
0.305328369140625	3.96240234375E-06	1630.6913858829
0.30975341796875	3.944091796875E-06	1630.71351088284
0.314178466796875	3.89434814453125E-06	1630.73563588279
0.318603515625	4.0252685546875E-06	1630.75776088273
0.323028564453125	4.01336669921875E-06	1630.77988588268
0.32745361328125	4.02435302734375E-06	1630.80201088262
0.331878662109375	4.0106201171875E-06	1630.82413588256
0.3363037109375	4.14794921875E-06	1630.84626088251
0.340728759765625	4.14947509765625E-06	1630.86838588245
0.34515380859375	4.03167724609375E-06	1630.8905108824
0.349578857421875	4.03289794921875E-06	1630.91263588234
0.35400390625	4.22515869140625E-06	1630.93476088229
0.358428955078125	3.988037109375E-06	1630.95688588223
0.36285400390625	4.2034912109375E-06	1630.97901088217
0.367279052734375	4.35089111328125E-06	1631.00113588212
0.3717041015625	4.30572509765625E-06	1631.02326088206
0.376129150390625	4.21234130859375E-06	1631.04538588201
0.38055419921875	4.35028076171875E-06	1631.06751088195
0.384979248046875	4.666748046875E-06	1631.08963588189
0.389404296875	4.38232421875E-06	1631.11176088184
0.393829345703125	4.36767578125E-06	1631.13388588178
0.39825439453125	4.31549072265625E-06	1631.15601088173
0.402679443359375	4.351806640625E-06	1631.17813588167
0.4071044921875	4.45404052734375E-06	1631.20026088162
0.411529541015625	4.51904296875E-06	1631.22238588156
0.41595458984375	4.55108642578125E-06	1631.2445108815
0.420379638671875	4.59503173828125E-06	1631.26663588145
0.4248046875	4.661865234375E-06	1631.28876088139
0.429229736328125	4.72076416015625E-06	1631.31088588134
0.43365478515625	4.566650390625E-06	1631.33301088128
0.438079833984375	4.7052001953125E-06	1631.35513588122
0.4425048828125	4.67254638671875E-06	1631.37726088117
0.446929931640625	4.8260498046875E-06	1631.39938588111
0.45135498046875	4.80133056640625E-06	1631.42151088106
0.455780029296875	4.90936279296875E-06	1631.443635881
0.460205078125	4.88983154296875E-06	1631.46576088094
0.464630126953125	4.8004150390625E-06	1631.48788588089
0.46905517578125	5.02685546875E-06	1631.51001088083
0.473480224609375	5.07659912109375E-06	1631.53213588078
0.4779052734375	5.02532958984375E-06	1631.55426088072
0.482330322265625	5.3289794921875E-06	1631.57638588067
0.48675537109375	5.25909423828125E-06	1631.59851088061
0.491180419921875	5.24749755859375E-06	1631.62063588055
0.49560546875	5.328369140625E-06	1631.6427608805
0.500030517578125	5.54107666015625E-06	1631.66488588044
0.50445556640625	5.3216552734375E-06	1631.68701088039
0.508880615234375	5.5694580078125E-06	1631.70913588033
0.5133056640625	5.60791015625E-06	1631.73126088027
0.517730712890625	5.7073974609375E-06	1631.75338588022
0.52215576171875	5.78643798828125E-06	1631.77551088016
0.526580810546875	5.8721923828125E-06	1631.79763588011
0.531005859375	5.90850830078125E-06	1631.81976088005
0.535430908203125	6.00555419921875E-06	1631.84188588
0.53985595703125	6.1614990234375E-06	1631.86401087994
0.544281005859375	6.2255859375E-06	1631.88613587988
0.5487060546875	6.353759765625E-06	1631.90826087983
0.553131103515625	6.396484375E-06	1631.93038587977
0.55755615234375	6.4605712890625E-06	1631.95251087972
0.561981201171875	6.5155029296875E-06	1631.97463587966
0.56640625	6.695556640625E-06	1631.9967608796
0.570831298828125	6.7352294921875E-06	1632.01888587955
0.57525634765625	6.884765625E-06	1632.04101087949
0.579681396484375	6.988525390625E-06	1632.06313587944
0.5841064453125	7.1533203125E-06	1632.08526087938
0.588531494140625	7.1746826171875E-06	1632.10738587932
0.59295654296875	7.3883056640625E-06	1632.12951087927
0.597381591796875	7.5836181640625E-06	1632.15163587921
0.601806640625	7.5897216796875E-06	1632.17376087916
0.606231689453125	7.72705078125E-06	1632.1958858791
0.61065673828125	7.8216552734375E-06	1632.21801087905
0.615081787109375	8.0291748046875E-06	1632.24013587899
0.6195068359375	8.197021484375E-06	1632.26226087893
0.623931884765625	8.3465576171875E-06	1632.28438587888
0.62835693359375	8.5601806640625E-06	1632.30651087882
0.632781982421875	8.6090087890625E-06	1632.32863587877
0.63720703125	8.6578369140625E-06	1632.35076087871
0.641632080078125	8.9996337890625E-06	1632.37288587865
0.64605712890625	9.112548828125E-06	1632.3950108786
0.650482177734375	9.423828125E-06	1632.41713587854
0.6549072265625	9.5062255859375E-06	1632.43926087849
0.659332275390625	9.735107421875E-06	1632.46138587843
0.66375732421875	9.97314453125E-06	1632.48351087838
0.668182373046875	1.01104736328125E-05	1632.50563587832
0.672607421875	1.02935791015625E-05	1632.52776087826
0.677032470703125	1.0552978515625E-05	1632.54988587821
0.68145751953125	1.08917236328125E-05	1632.57201087815
0.685882568359375	1.09832763671875E-05	1632.5941358781
0.6903076171875	1.12548828125E-05	1632.61626087804
0.694732666015625	1.165771484375E-05	1632.63838587798
0.69915771484375	1.18865966796875E-05	1632.66051087793
0.703582763671875	1.23382568359375E-05	1632.68263587787
0.69915771484375	7.5439453125E-06	1632.70476087782
0.694732666015625	5.3436279296875E-06	1632.72688587776
0.6903076171875	3.9306640625E-06	1632.74901087771
0.685882568359375	2.740478515625E-06	1632.77113587765
0.68145751953125	1.98272705078125E-06	1632.79326087759
0.677032470703125	1.14715576171875E-06	1632.81538587754
0.672607421875	5.4107666015625E-07	1632.83751087748
0.668182373046875	-7.568359375E-08	1632.85963587743
0.66375732421875	-2.642822265625E-07	1632.88176087737
0.659332275390625	-7.6507568359375E-07	1632.90388587731
0.6549072265625	-1.126708984375E-06	1632.92601087726
0.650482177734375	-1.3494873046875E-06	1632.9481358772
0.64605712890625	-1.68914794921875E-06	1632.97026087715
0.641632080078125	-1.85699462890625E-06	1632.99238587709
0.63720703125	-2.0953369140625E-06	1633.01451087703
0.632781982421875	-2.2393798828125E-06	1633.03663587698
0.62835693359375	-2.45941162109375E-06	1633.05876087692
0.623931884765625	-2.57568359375E-06	1633.08088587687
0.6195068359375	-2.847900390625E-06	1633.10301087681
0.615081787109375	-2.70111083984375E-06	1633.12513587676
0.61065673828125	-2.943115234375E-06	1633.1472608767
0.606231689453125	-3.09783935546875E-06	1633.16938587664
0.601806640625	-3.2318115234375E-06	1633.19151087659
0.597381591796875	-3.32611083984375E-06	1633.21363587653
0.59295654296875	-3.38775634765625E-06	1633.23576087648
0.588531494140625	-3.389892578125E-06	1633.25788587642
0.5841064453125	-3.56689453125E-06	1633.28001087636
0.579681396484375	-3.4991455078125E-06	1633.30213587631
0.57525634765625	-3.6029052734375E-06	1633.32426087625
0.570831298828125	-3.73748779296875E-06	1633.3463858762
0.56640625	-3.67645263671875E-06	1633.36851087614
0.561981201171875	-3.68316650390625E-06	1633.39063587609
0.55755615234375	-3.8360595703125E-06	1633.41276087603
0.553131103515625	-3.85162353515625E-06	1633.43488587597
0.5487060546875	-3.93341064453125E-06	1633.45701087592
0.544281005859375	-3.9569091796875E-06	1633.47913587586
0.53985595703125	-3.90716552734375E-06	1633.50126087581
0.535430908203125	-4.0289306640625E-06	1633.52338587575
0.531005859375	-3.8629150390625E-06	1633.54551087569
0.526580810546875	-3.96240234375E-06	1633.56763587564
0.52215576171875	-3.9599609375E-06	1633.58976087558
0.517730712890625	-4.03717041015625E-06	1633.61188587553
0.5133056640625	-3.98712158203125E-06	1633.63401087547
0.508880615234375	-4.03900146484375E-06	1633.65613587541
0.50445556640625	-4.10003662109375E-06	1633.67826087536
0.500030517578125	-4.28497314453125E-06	1633.7003858753
0.49560546875	-4.11590576171875E-06	1633.72251087525
0.491180419921875	-4.139404296875E-06	1633.74463587519
0.48675537109375	-4.169921875E-06	1633.76676087514
0.482330322265625	-4.1668701171875E-06	1633.78888587508
0.4779052734375	-4.102783203125E-06	1633.81101087502
0.473480224609375	-4.176025390625E-06	1633.83313587497
0.46905517578125	-4.0924072265625E-06	1633.85526087491
0.464630126953125	-4.2510986328125E-06	1633.87738587486
0.460205078125	-4.31304931640625E-06	1633.8995108748
0.455780029296875	-4.19158935546875E-06	1633.92163587474
0.45135498046875	-4.091796875E-06	1633.94376087469
0.446929931640625	-4.12841796875E-06	1633.96588587463
0.4425048828125	-4.33319091796875E-06	1633.98801087458
0.438079833984375	-4.33349609375E-06	1634.01013587452
0.43365478515625	-4.2083740234375E-06	1634.03226087447
0.429229736328125	-4.19708251953125E-06	1634.05438587441
0.4248046875	-4.1534423828125E-06	1634.07651087435
0.420379638671875	-4.33135986328125E-06	1634.0986358743
0.41595458984375	-4.27001953125E-06	1634.12076087424
0.411529541015625	-4.20135498046875E-06	1634.14288587419
0.4071044921875	-4.24774169921875E-06	1634.16501087413
0.402679443359375	-4.322509765625E-06	1634.18713587407
0.39825439453125	-4.4189453125E-06	1634.20926087402
0.393829345703125	-4.329833984375E-06	1634.23138587396
0.389404296875	-4.478759765625E-06	1634.25351087391
0.384979248046875	-4.425048828125E-06	1634.27563587385
0.38055419921875	-4.36187744140625E-06	1634.29776087379
0.376129150390625	-4.39971923828125E-06	1634.31988587374
0.3717041015625	-4.49310302734375E-06	1634.34201087368
0.367279052734375	-4.3743896484375E-06	1634.36413587363
0.36285400390625	-4.55657958984375E-06	1634.38626087357
0.358428955078125	-4.4842529296875E-06	1634.40838587352
0.35400390625	-4.53155517578125E-06	1634.43051087346
0.349578857421875	-4.566650390625E-06	1634.4526358734
0.34515380859375	-4.4537353515625E-06	1634.47476087335
0.340728759765625	-4.5391845703125E-06	1634.49688587329
0.3363037109375	-4.49981689453125E-06	1634.51901087324
0.331878662109375	-4.43145751953125E-06	1634.54113587318
0.32745361328125	-4.38934326171875E-06	1634.56326087312
0.323028564453125	-4.49462890625E-06	1634.58538587307
0.318603515625	-4.5184326171875E-06	1634.60751087301
0.314178466796875	-4.38507080078125E-06	1634.62963587296
0.30975341796875	-4.552001953125E-06	1634.6517608729
0.305328369140625	-4.60845947265625E-06	1634.67388587285
0.3009033203125	-4.46868896484375E-06	1634.69601087279
0.296478271484375	-4.46044921875E-06	1634.71813587273
0.29205322265625	-4.53216552734375E-06	1634.74026087268
0.287628173828125	-4.49554443359375E-06	1634.76238587262
0.283203125	-4.620361328125E-06	1634.78451087257
0.278778076171875	-4.61578369140625E-06	1634.80663587251
0.27435302734375	-4.55230712890625E-06	1634.82876087245
0.269927978515625	-4.56207275390625E-06	1634.8508858724
0.2655029296875	-4.73968505859375E-06	1634.87301087234
0.261077880859375	-4.6435546875E-06	1634.89513587229
0.25665283203125	-4.67041015625E-06	1634.91726087223
0.252227783203125	-4.7613525390625E-06	1634.93938587217
0.247802734375	-4.76470947265625E-06	1634.96151087212
0.243377685546875	-4.7027587890625E-06	1634.98363587206
0.23895263671875	-4.837646484375E-06	1635.00576087201
0.234527587890625	-4.9481201171875E-06	1635.02788587195
0.2301025390625	-4.921875E-06	1635.0500108719
0.225677490234375	-4.88922119140625E-06	1635.07213587184
0.22125244140625	-4.951171875E-06	1635.09426087178
0.216827392578125	-4.98291015625E-06	1635.11638587173
0.21240234375	-4.99755859375E-06	1635.13851087167
0.207977294921875	-5.14801025390625E-06	1635.16063587162
0.20355224609375	-5.1397705078125E-06	1635.18276087156
0.199127197265625	-5.2642822265625E-06	1635.2048858715
0.1947021484375	-5.1507568359375E-06	1635.22701087145
0.190277099609375	-5.2838134765625E-06	1635.24913587139
0.18585205078125	-5.28289794921875E-06	1635.27126087134
0.181427001953125	-5.28076171875E-06	1635.29338587128
0.177001953125	-5.3082275390625E-06	1635.31551087123
0.172576904296875	-5.47607421875E-06	1635.33763587117
0.16815185546875	-5.49468994140625E-06	1635.35976087111
0.163726806640625	-5.55694580078125E-06	1635.38188587106
0.1593017578125	-5.4779052734375E-06	1635.404010871
0.154876708984375	-5.56671142578125E-06	1635.42613587095
0.15045166015625	-5.7171630859375E-06	1635.44826087089
0.146026611328125	-5.718994140625E-06	1635.47038587083
0.1416015625	-5.7977294921875E-06	1635.49251087078
0.137176513671875	-5.94879150390625E-06	1635.51463587072
0.13275146484375	-6.02752685546875E-06	1635.53676087067
0.128326416015625	-6.1187744140625E-06	1635.55888587061
0.1239013671875	-6.15234375E-06	1635.58101087056
0.119476318359375	-6.353759765625E-06	1635.6031358705
0.11505126953125	-6.4910888671875E-06	1635.62526087044
0.110626220703125	-6.6192626953125E-06	1635.64738587039
0.106201171875	-6.793212890625E-06	1635.66951087033
0.101776123046875	-6.890869140625E-06	1635.69163587028
0.09735107421875	-7.2967529296875E-06	1635.71376087022
0.092926025390625	-7.4462890625E-06	1635.73588587016
0.0885009765625	-7.550048828125E-06	1635.75801087011
0.084075927734375	-7.75146484375E-06	1635.78013587005
0.07965087890625	-8.0535888671875E-06	1635.80226087
0.075225830078125	-8.2183837890625E-06	1635.82438586994
0.07080078125	-8.5113525390625E-06	1635.84651086988
0.066375732421875	-8.642578125E-06	1635.86863586983
0.06195068359375	-8.8043212890625E-06	1635.89076086977
0.057525634765625	-8.8287353515625E-06	1635.91288586972
0.0531005859375	-8.77685546875E-06	1635.93501086966
0.048675537109375	-8.7738037109375E-06	1635.95713586961
0.04425048828125	-8.8134765625E-06	1635.97926086955
0.039825439453125	-8.7310791015625E-06	1636.00138586949
0.035400390625	-8.8134765625E-06	1636.02351086944
0.030975341796875	-8.660888671875E-06	1636.04563586938
0.02655029296875	-8.7127685546875E-06	1636.06776086933
0.022125244140625	-8.8531494140625E-06	1636.08988586927
0.0177001953125	-8.6517333984375E-06	1636.11201086921
0.013275146484375	-8.7188720703125E-06	1636.13413586916
0.00885009765625	-8.6395263671875E-06	1636.1562608691
0.004425048828125	-8.7005615234375E-06	1636.17838586905
0	-8.7310791015625E-06	1636.20051086899
0.004425048828125	-5.120849609375E-06	1636.22263586893
0.00885009765625	-3.7152099609375E-06	1636.24476086888
0.013275146484375	-2.733154296875E-06	1636.26688586882
0.0177001953125	-2.034912109375E-06	1636.28901086877
0.022125244140625	-1.431884765625E-06	1636.31113586871
0.02655029296875	-9.3505859375E-07	1636.33326086866
0.030975341796875	-5.18798828125E-07	1636.3553858686
0.035400390625	-8.026123046875E-08	1636.37751086854
0.039825439453125	8.514404296875E-08	1636.39963586849
0.04425048828125	3.070068359375E-07	1636.42176086843
0.048675537109375	7.342529296875E-07	1636.44388586838
0.0531005859375	8.59375E-07	1636.46601086832
0.057525634765625	1.07879638671875E-06	1636.48813586826
0.06195068359375	1.3775634765625E-06	1636.51026086821
0.066375732421875	1.3739013671875E-06	1636.53238586815
0.07080078125	1.62139892578125E-06	1636.5545108681
0.075225830078125	1.74652099609375E-06	1636.57663586804
0.07965087890625	1.87713623046875E-06	1636.59876086799
0.084075927734375	2.047119140625E-06	1636.62088586793
0.0885009765625	2.218017578125E-06	1636.64301086787
0.092926025390625	2.33642578125E-06	1636.66513586782
0.09735107421875	2.38861083984375E-06	1636.68726086776
0.101776123046875	2.59857177734375E-06	1636.70938586771
0.106201171875	2.8106689453125E-06	1636.73151086765
0.110626220703125	2.70843505859375E-06	1636.75363586759
0.11505126953125	3.00506591796875E-06	1636.77576086754
0.119476318359375	2.91534423828125E-06	1636.79788586748
0.1239013671875	3.004150390625E-06	1636.82001086743
0.128326416015625	3.12255859375E-06	1636.84213586737
0.13275146484375	3.1195068359375E-06	1636.86426086731
0.137176513671875	3.1854248046875E-06	1636.88638586726
0.1416015625	3.260498046875E-06	1636.9085108672
0.146026611328125	3.12255859375E-06	1636.93063586715
0.15045166015625	3.08380126953125E-06	1636.95276086709
0.154876708984375	3.21319580078125E-06	1636.97488586704
0.1593017578125	3.13079833984375E-06	1636.99701086698
0.163726806640625	3.37066650390625E-06	1637.01913586692
0.16815185546875	3.33343505859375E-06	1637.04126086687
0.172576904296875	3.2366943359375E-06	1637.06338586681
0.177001953125	3.30413818359375E-06	1637.08551086676
0.181427001953125	3.187255859375E-06	1637.1076358667
0.18585205078125	3.2281494140625E-06	1637.12976086664
0.190277099609375	3.23974609375E-06	1637.15188586659
0.1947021484375	3.258056640625E-06	1637.17401086653
0.199127197265625	3.2598876953125E-06	1637.19613586648
0.20355224609375	3.240966796875E-06	1637.21826086642
0.207977294921875	3.3709716796875E-06	1637.24038586637
0.21240234375	3.321533203125E-06	1637.26251086631
0.216827392578125	3.36212158203125E-06	1637.28463586625
0.22125244140625	3.20831298828125E-06	1637.3067608662
0.225677490234375	3.4112548828125E-06	1637.32888586614
0.2301025390625	3.37921142578125E-06	1637.35101086609
0.234527587890625	3.26080322265625E-06	1637.37313586603
0.23895263671875	3.39263916015625E-06	1637.39526086597
0.243377685546875	3.3526611328125E-06	1637.41738586592
0.247802734375	3.5028076171875E-06	1637.43951086586
0.252227783203125	3.33465576171875E-06	1637.46163586581
0.25665283203125	3.438720703125E-06	1637.48376086575
0.261077880859375	3.3465576171875E-06	1637.5058858657
0.2655029296875	3.345947265625E-06	1637.52801086564
0.269927978515625	3.3050537109375E-06	1637.55013586558
0.27435302734375	3.34228515625E-06	1637.57226086553
0.278778076171875	3.38348388671875E-06	1637.59438586547
0.283203125	3.42926025390625E-06	1637.61651086542
0.287628173828125	3.35235595703125E-06	1637.63863586536
0.29205322265625	3.39019775390625E-06	1637.6607608653
0.296478271484375	3.40240478515625E-06	1637.68288586525
0.3009033203125	3.441162109375E-06	1637.70501086519
0.305328369140625	3.4954833984375E-06	1637.72713586514
0.30975341796875	3.36212158203125E-06	1637.74926086508
0.314178466796875	3.42376708984375E-06	1637.77138586502
0.318603515625	3.509521484375E-06	1637.79351086497
0.323028564453125	3.375244140625E-06	1637.81563586491
0.32745361328125	3.4979248046875E-06	1637.83776086486
0.331878662109375	3.5113525390625E-06	1637.8598858648
0.3363037109375	3.5791015625E-06	1637.88201086475
0.340728759765625	3.5455322265625E-06	1637.90413586469
0.34515380859375	3.6346435546875E-06	1637.92626086463
0.349578857421875	3.7060546875E-06	1637.94838586458
0.35400390625	3.63739013671875E-06	1637.97051086452
0.358428955078125	3.714599609375E-06	1637.99263586447
0.36285400390625	3.8201904296875E-06	1638.01476086441
0.367279052734375	3.75518798828125E-06	1638.03688586435
0.3717041015625	3.79486083984375E-06	1638.0590108643
0.376129150390625	3.8836669921875E-06	1638.08113586424
0.38055419921875	3.9239501953125E-06	1638.10326086419
0.384979248046875	3.9715576171875E-06	1638.12538586413
0.389404296875	3.98345947265625E-06	1638.14751086408
0.393829345703125	3.88397216796875E-06	1638.16963586402
0.39825439453125	4.03106689453125E-06	1638.19176086396
0.402679443359375	3.90838623046875E-06	1638.21388586391
0.4071044921875	4.01214599609375E-06	1638.23601086385
0.411529541015625	3.97491455078125E-06	1638.2581358638
0.41595458984375	4.14031982421875E-06	1638.28026086374
0.420379638671875	4.17877197265625E-06	1638.30238586368
0.4248046875	4.13238525390625E-06	1638.32451086363
0.429229736328125	4.085693359375E-06	1638.34663586357
0.43365478515625	4.15679931640625E-06	1638.36876086352
0.438079833984375	4.05853271484375E-06	1638.39088586346
0.4425048828125	4.22698974609375E-06	1638.4130108634
0.446929931640625	4.3646240234375E-06	1638.43513586335
0.45135498046875	4.407958984375E-06	1638.45726086329
0.455780029296875	4.381103515625E-06	1638.47938586324
0.460205078125	4.4903564453125E-06	1638.50151086318
0.464630126953125	4.5037841796875E-06	1638.52363586313
0.46905517578125	4.46685791015625E-06	1638.54576086307
0.473480224609375	4.74273681640625E-06	1638.56788586301
0.4779052734375	4.554443359375E-06	1638.59001086296
0.482330322265625	4.67498779296875E-06	1638.6121358629
0.48675537109375	4.73663330078125E-06	1638.63426086285
0.491180419921875	4.8724365234375E-06	1638.65638586279
0.49560546875	4.88372802734375E-06	1638.67851086273
0.500030517578125	4.9530029296875E-06	1638.70063586268
0.50445556640625	5.03204345703125E-06	1638.72276086262
0.508880615234375	5.169677734375E-06	1638.74488586257
0.5133056640625	5.25177001953125E-06	1638.76701086251
0.517730712890625	5.19622802734375E-06	1638.78913586246
0.52215576171875	5.1568603515625E-06	1638.8112608624
0.526580810546875	5.27099609375E-06	1638.83338586234
0.531005859375	5.355224609375E-06	1638.85551086229
0.535430908203125	5.32012939453125E-06	1638.87763586223
0.53985595703125	5.55572509765625E-06	1638.89976086218
0.544281005859375	5.736083984375E-06	1638.92188586212
0.5487060546875	5.7611083984375E-06	1638.94401086206
0.553131103515625	5.80902099609375E-06	1638.96613586201
0.55755615234375	5.966796875E-06	1638.98826086195
0.561981201171875	5.9576416015625E-06	1639.0103858619
0.56640625	6.1297607421875E-06	1639.03251086184
0.570831298828125	6.280517578125E-06	1639.05463586178
0.57525634765625	6.396484375E-06	1639.07676086173
0.579681396484375	6.4605712890625E-06	1639.09888586167
0.5841064453125	6.5673828125E-06	1639.12101086162
0.588531494140625	6.7138671875E-06	1639.14313586156
0.59295654296875	6.62841796875E-06	1639.16526086151
0.597381591796875	7.0770263671875E-06	1639.18738586145
0.601806640625	7.147216796875E-06	1639.20951086139
0.606231689453125	7.1258544921875E-06	1639.23163586134
0.61065673828125	7.3486328125E-06	1639.25376086128
0.615081787109375	7.452392578125E-06	1639.27588586123
0.6195068359375	7.574462890625E-06	1639.29801086117
0.623931884765625	7.7880859375E-06	1639.32013586111
0.62835693359375	7.99560546875E-06	1639.34226086106
0.632781982421875	8.1146240234375E-06	1639.364385861
0.63720703125	8.1512451171875E-06	1639.38651086095
0.641632080078125	8.3770751953125E-06	1639.40863586089
0.64605712890625	8.49609375E-06	1639.43076086084
0.650482177734375	8.7738037109375E-06	1639.45288586078
0.6549072265625	8.917236328125E-06	1639.47501086072
0.659332275390625	9.1766357421875E-06	1639.49713586067
0.66375732421875	9.381103515625E-06	1639.51926086061
0.668182373046875	9.564208984375E-06	1639.54138586056
0.672607421875	9.912109375E-06	1639.5635108605
0.677032470703125	1.0076904296875E-05	1639.58563586044
0.68145751953125	1.0272216796875E-05	1639.60776086039
0.685882568359375	1.0540771484375E-05	1639.62988586033
0.6903076171875	1.08489990234375E-05	1639.65201086028
0.694732666015625	1.10809326171875E-05	1639.67413586022
0.69915771484375	1.1407470703125E-05	1639.69626086016
0.703582763671875	1.1737060546875E-05	1639.71838586011
0.69915771484375	7.0556640625E-06	1639.74051086005
0.694732666015625	5.1361083984375E-06	1639.76263586
0.6903076171875	3.67767333984375E-06	1639.78476085994
0.685882568359375	2.55523681640625E-06	1639.80688585989
0.68145751953125	1.46636962890625E-06	1639.82901085983
0.677032470703125	8.367919921875E-07	1639.85113585977
0.672607421875	2.7618408203125E-07	1639.87326085972
0.668182373046875	-2.0538330078125E-07	1639.89538585966
0.66375732421875	-5.487060546875E-07	1639.91751085961
0.659332275390625	-8.209228515625E-07	1639.93963585955
0.6549072265625	-1.09832763671875E-06	1639.96176085949
0.650482177734375	-1.7315673828125E-06	1639.98388585944
0.64605712890625	-1.84722900390625E-06	1640.00601085938
0.641632080078125	-2.015380859375E-06	1640.02813585933
0.63720703125	-2.20611572265625E-06	1640.05026085927
0.632781982421875	-2.48291015625E-06	1640.07238585922
0.62835693359375	-2.43988037109375E-06	1640.09451085916
0.623931884765625	-2.72430419921875E-06	1640.1166358591
0.6195068359375	-2.71942138671875E-06	1640.13876085905
0.615081787109375	-2.86102294921875E-06	1640.16088585899
0.61065673828125	-3.10943603515625E-06	1640.18301085894
0.606231689453125	-3.39385986328125E-06	1640.20513585888
0.601806640625	-3.40545654296875E-06	1640.22726085882
0.597381591796875	-3.4857177734375E-06	1640.24938585877
0.59295654296875	-3.458251953125E-06	1640.27151085871
0.588531494140625	-3.465576171875E-06	1640.29363585866
0.5841064453125	-3.5137939453125E-06	1640.3157608586
0.579681396484375	-3.61907958984375E-06	1640.33788585854
0.57525634765625	-3.63677978515625E-06	1640.36001085849
0.570831298828125	-3.57269287109375E-06	1640.38213585843
0.56640625	-3.77899169921875E-06	1640.40426085838
0.561981201171875	-3.81683349609375E-06	1640.42638585832
0.55755615234375	-3.82293701171875E-06	1640.44851085827
0.553131103515625	-3.8665771484375E-06	1640.47063585821
0.5487060546875	-3.87908935546875E-06	1640.49276085815
0.544281005859375	-3.89190673828125E-06	1640.5148858581
0.53985595703125	-3.857421875E-06	1640.53701085804
0.535430908203125	-4.013671875E-06	1640.55913585799
0.531005859375	-3.95172119140625E-06	1640.58126085793
0.526580810546875	-4.06585693359375E-06	1640.60338585787
0.52215576171875	-4.07073974609375E-06	1640.62551085782
0.517730712890625	-4.06036376953125E-06	1640.64763585776
0.5133056640625	-4.1693115234375E-06	1640.66976085771
0.508880615234375	-4.1217041015625E-06	1640.69188585765
0.50445556640625	-4.1705322265625E-06	1640.7140108576
0.500030517578125	-4.11773681640625E-06	1640.73613585754
0.49560546875	-4.1876220703125E-06	1640.75826085748
0.491180419921875	-4.22576904296875E-06	1640.78038585743
0.48675537109375	-4.19677734375E-06	1640.80251085737
0.482330322265625	-4.254150390625E-06	1640.82463585732
0.4779052734375	-4.23065185546875E-06	1640.84676085726
0.473480224609375	-4.3218994140625E-06	1640.8688858572
0.46905517578125	-4.117431640625E-06	1640.89101085715
0.464630126953125	-4.25384521484375E-06	1640.91313585709
0.460205078125	-4.193115234375E-06	1640.93526085704
0.455780029296875	-4.20318603515625E-06	1640.95738585698
0.45135498046875	-4.20684814453125E-06	1640.97951085693
0.446929931640625	-4.18182373046875E-06	1641.00163585687
0.4425048828125	-4.17999267578125E-06	1641.02376085681
0.438079833984375	-4.27642822265625E-06	1641.04588585676
0.43365478515625	-4.32586669921875E-06	1641.0680108567
0.429229736328125	-4.2108154296875E-06	1641.09013585665
0.4248046875	-4.27001953125E-06	1641.11226085659
0.420379638671875	-4.300537109375E-06	1641.13438585653
0.41595458984375	-4.3365478515625E-06	1641.15651085648
0.411529541015625	-4.30084228515625E-06	1641.17863585642
0.4071044921875	-4.28436279296875E-06	1641.20076085637
0.402679443359375	-4.43206787109375E-06	1641.22288585631
0.39825439453125	-4.41253662109375E-06	1641.24501085625
0.393829345703125	-4.3048095703125E-06	1641.2671358562
0.389404296875	-4.339599609375E-06	1641.28926085614
0.384979248046875	-4.4268798828125E-06	1641.31138585609
0.38055419921875	-4.41192626953125E-06	1641.33351085603
0.376129150390625	-4.33929443359375E-06	1641.35563585598
0.3717041015625	-4.4091796875E-06	1641.37776085592
0.367279052734375	-4.41925048828125E-06	1641.39988585586
0.36285400390625	-4.4317626953125E-06	1641.42201085581
0.358428955078125	-4.415283203125E-06	1641.44413585575
0.35400390625	-4.45220947265625E-06	1641.4662608557
0.349578857421875	-4.5318603515625E-06	1641.48838585564
0.34515380859375	-4.57427978515625E-06	1641.51051085558
0.340728759765625	-4.5159912109375E-06	1641.53263585553
0.3363037109375	-4.4683837890625E-06	1641.55476085547
0.331878662109375	-4.50225830078125E-06	1641.57688585542
0.32745361328125	-4.5220947265625E-06	1641.59901085536
0.323028564453125	-4.48333740234375E-06	1641.62113585531
0.318603515625	-4.5782470703125E-06	1641.64326085525
0.314178466796875	-4.51171875E-06	1641.66538585519
0.30975341796875	-4.5391845703125E-06	1641.68751085514
0.305328369140625	-4.58160400390625E-06	1641.70963585508
0.3009033203125	-4.595947265625E-06	1641.73176085503
0.296478271484375	-4.5721435546875E-06	1641.75388585497
0.29205322265625	-4.59686279296875E-06	1641.77601085491
0.287628173828125	-4.49188232421875E-06	1641.79813585486
0.283203125	-4.5501708984375E-06	1641.8202608548
0.278778076171875	-4.554443359375E-06	1641.84238585475
0.27435302734375	-4.62249755859375E-06	1641.86451085469
0.269927978515625	-4.580078125E-06	1641.88663585463
0.2655029296875	-4.7113037109375E-06	1641.90876085458
0.261077880859375	-4.5513916015625E-06	1641.93088585452
0.25665283203125	-4.593505859375E-06	1641.95301085447
0.252227783203125	-4.69635009765625E-06	1641.97513585441
0.247802734375	-4.75616455078125E-06	1641.99726085436
0.243377685546875	-4.75250244140625E-06	1642.0193858543
0.23895263671875	-4.75311279296875E-06	1642.04151085424
0.234527587890625	-4.80255126953125E-06	1642.06363585419
0.2301025390625	-4.9273681640625E-06	1642.08576085413
0.225677490234375	-4.9969482421875E-06	1642.10788585408
0.22125244140625	-5.04058837890625E-06	1642.13001085402
0.216827392578125	-4.937744140625E-06	1642.15213585396
0.21240234375	-5.0921630859375E-06	1642.17426085391
0.207977294921875	-5.12420654296875E-06	1642.19638585385
0.20355224609375	-5.0885009765625E-06	1642.2185108538
0.199127197265625	-5.166015625E-06	1642.24063585374
0.1947021484375	-5.2734375E-06	1642.26276085368
0.190277099609375	-5.33416748046875E-06	1642.28488585363
0.18585205078125	-5.23101806640625E-06	1642.30701085357
0.181427001953125	-5.5072021484375E-06	1642.32913585352
0.177001953125	-5.49163818359375E-06	1642.35126085346
0.172576904296875	-5.35675048828125E-06	1642.37338585341
0.16815185546875	-5.4461669921875E-06	1642.39551085335
0.163726806640625	-5.48675537109375E-06	1642.41763585329
0.1593017578125	-5.56610107421875E-06	1642.43976085324
0.154876708984375	-5.6500244140625E-06	1642.46188585318
0.15045166015625	-5.75714111328125E-06	1642.48401085313
0.146026611328125	-5.83526611328125E-06	1642.50613585307
0.1416015625	-6.08673095703125E-06	1642.52826085301
0.137176513671875	-5.9600830078125E-06	1642.55038585296
0.13275146484375	-6.011962890625E-06	1642.5725108529
0.128326416015625	-6.109619140625E-06	1642.59463585285
0.1239013671875	-6.1614990234375E-06	1642.61676085279
0.119476318359375	-6.31103515625E-06	1642.63888585274
0.11505126953125	-6.494140625E-06	1642.66101085268
0.110626220703125	-6.671142578125E-06	1642.68313585262
0.106201171875	-6.73828125E-06	1642.70526085257
0.101776123046875	-6.9915771484375E-06	1642.72738585251
0.09735107421875	-7.31201171875E-06	1642.74951085246
0.092926025390625	-7.470703125E-06	1642.7716358524
0.0885009765625	-7.6141357421875E-06	1642.79376085234
0.084075927734375	-7.80029296875E-06	1642.81588585229
0.07965087890625	-8.0902099609375E-06	1642.83801085223
0.075225830078125	-8.38623046875E-06	1642.86013585218
0.07080078125	-8.63037109375E-06	1642.88226085212
0.066375732421875	-8.5296630859375E-06	1642.90438585207
0.06195068359375	-8.831787109375E-06	1642.92651085201
0.057525634765625	-9.0728759765625E-06	1642.94863585195
0.0531005859375	-8.9813232421875E-06	1642.9707608519
0.048675537109375	-8.9202880859375E-06	1642.99288585184
0.04425048828125	-8.8897705078125E-06	1643.01501085179
0.039825439453125	-8.9141845703125E-06	1643.03713585173
0.035400390625	-8.9691162109375E-06	1643.05926085167
0.030975341796875	-8.87451171875E-06	1643.08138585162
0.02655029296875	-8.7738037109375E-06	1643.10351085156
0.022125244140625	-8.7249755859375E-06	1643.12563585151
0.0177001953125	-8.746337890625E-06	1643.14776085145
0.013275146484375	-8.8470458984375E-06	1643.16988585139
0.00885009765625	-8.7890625E-06	1643.19201085134
0.004425048828125	-8.80126953125E-06	1643.21413585128
0	-8.75244140625E-06	1643.23626085123
0.004425048828125	-5.3497314453125E-06	1643.25838585117
0.00885009765625	-3.83209228515625E-06	1643.28051085112
0.013275146484375	-2.716064453125E-06	1643.30263585106
0.0177001953125	-2.059326171875E-06	1643.324760851
0.022125244140625	-1.561279296875E-06	1643.34688585095
0.02655029296875	-1.0400390625E-06	1643.36901085089
0.030975341796875	-4.8553466796875E-07	1643.39113585084
0.035400390625	-2.166748046875E-07	1643.41326085078
0.039825439453125	-9.46044921875E-09	1643.43538585072
0.04425048828125	2.28271484375E-07	1643.45751085067
0.048675537109375	5.426025390625E-07	1643.47963585061
0.0531005859375	8.0963134765625E-07	1643.50176085056
0.057525634765625	1.01104736328125E-06	1643.5238858505
0.06195068359375	1.19659423828125E-06	1643.54601085045
0.066375732421875	1.2823486328125E-06	1643.56813585039
0.07080078125	1.4971923828125E-06	1643.59026085033
0.075225830078125	1.7974853515625E-06	1643.61238585028
0.07965087890625	1.84173583984375E-06	1643.63451085022
0.084075927734375	2.001953125E-06	1643.65663585017
0.0885009765625	2.09228515625E-06	1643.67876085011
0.092926025390625	2.32330322265625E-06	1643.70088585005
0.09735107421875	2.51373291015625E-06	1643.72301085
0.101776123046875	2.50518798828125E-06	1643.74513584994
0.106201171875	2.6837158203125E-06	1643.76726084989
0.110626220703125	2.82806396484375E-06	1643.78938584983
0.11505126953125	2.7874755859375E-06	1643.81151084978
0.119476318359375	2.99530029296875E-06	1643.83363584972
0.1239013671875	2.97637939453125E-06	1643.85576084966
0.128326416015625	3.1402587890625E-06	1643.87788584961
0.13275146484375	3.094482421875E-06	1643.90001084955
0.137176513671875	3.13385009765625E-06	1643.9221358495
0.1416015625	3.09326171875E-06	1643.94426084944
0.146026611328125	3.25286865234375E-06	1643.96638584938
0.15045166015625	3.28582763671875E-06	1643.98851084933
0.154876708984375	3.1890869140625E-06	1644.01063584927
0.1593017578125	3.24798583984375E-06	1644.03276084922
0.163726806640625	3.1707763671875E-06	1644.05488584916
0.16815185546875	3.12408447265625E-06	1644.0770108491
0.172576904296875	3.32305908203125E-06	1644.09913584905
0.177001953125	3.30169677734375E-06	1644.12126084899
0.181427001953125	3.23974609375E-06	1644.14338584894
0.18585205078125	3.29742431640625E-06	1644.16551084888
0.190277099609375	3.26324462890625E-06	1644.18763584883
0.1947021484375	3.121337890625E-06	1644.20976084877
0.199127197265625	3.2635498046875E-06	1644.23188584871
0.20355224609375	3.323974609375E-06	1644.25401084866
0.207977294921875	3.23883056640625E-06	1644.2761358486
0.21240234375	3.25897216796875E-06	1644.29826084855
0.216827392578125	3.2806396484375E-06	1644.32038584849
0.22125244140625	3.3685302734375E-06	1644.34251084843
0.225677490234375	3.34442138671875E-06	1644.36463584838
0.2301025390625	3.24005126953125E-06	1644.38676084832
0.234527587890625	3.382568359375E-06	1644.40888584827
0.23895263671875	3.31787109375E-06	1644.43101084821
0.243377685546875	3.31634521484375E-06	1644.45313584815
0.247802734375	3.341064453125E-06	1644.4752608481
0.252227783203125	3.3917236328125E-06	1644.49738584804
0.25665283203125	3.3477783203125E-06	1644.51951084799
0.261077880859375	3.30474853515625E-06	1644.54163584793
0.2655029296875	3.34014892578125E-06	1644.56376084788
0.269927978515625	3.31146240234375E-06	1644.58588584782
0.27435302734375	3.34808349609375E-06	1644.60801084776
0.278778076171875	3.350830078125E-06	1644.63013584771
0.283203125	3.37493896484375E-06	1644.65226084765
0.287628173828125	3.3837890625E-06	1644.6743858476
0.29205322265625	3.30657958984375E-06	1644.69651084754
0.296478271484375	3.40423583984375E-06	1644.71863584748
0.3009033203125	3.411865234375E-06	1644.74076084743
0.305328369140625	3.397216796875E-06	1644.76288584737
0.30975341796875	3.43597412109375E-06	1644.78501084732
0.314178466796875	3.316650390625E-06	1644.80713584726
0.318603515625	3.5009765625E-06	1644.82926084721
0.323028564453125	3.46099853515625E-06	1644.85138584715
0.32745361328125	3.477783203125E-06	1644.87351084709
0.331878662109375	3.46160888671875E-06	1644.89563584704
0.3363037109375	3.65875244140625E-06	1644.91776084698
0.340728759765625	3.7347412109375E-06	1644.93988584693
0.34515380859375	3.48968505859375E-06	1644.96201084687
0.349578857421875	3.7359619140625E-06	1644.98413584681
0.35400390625	3.582763671875E-06	1645.00626084676
0.358428955078125	3.69354248046875E-06	1645.0283858467
0.36285400390625	3.66363525390625E-06	1645.05051084665
0.367279052734375	3.87939453125E-06	1645.07263584659
0.3717041015625	3.8134765625E-06	1645.09476084653
0.376129150390625	3.84429931640625E-06	1645.11688584648
0.38055419921875	3.85223388671875E-06	1645.13901084642
0.384979248046875	3.8970947265625E-06	1645.16113584637
0.389404296875	3.9605712890625E-06	1645.18326084631
0.393829345703125	3.8616943359375E-06	1645.20538584626
0.39825439453125	3.795166015625E-06	1645.2275108462
0.402679443359375	3.916015625E-06	1645.24963584614
0.4071044921875	3.9166259765625E-06	1645.27176084609
0.411529541015625	3.857421875E-06	1645.29388584603
0.41595458984375	4.11865234375E-06	1645.31601084598
0.420379638671875	3.9678955078125E-06	1645.33813584592
0.4248046875	4.00390625E-06	1645.36026084586
0.429229736328125	4.04754638671875E-06	1645.38238584581
0.43365478515625	4.06005859375E-06	1645.40451084575
0.438079833984375	4.18243408203125E-06	1645.4266358457
0.4425048828125	4.04144287109375E-06	1645.44876084564
0.446929931640625	4.261474609375E-06	1645.47088584559
0.45135498046875	4.30328369140625E-06	1645.49301084553
0.455780029296875	4.37164306640625E-06	1645.51513584547
0.460205078125	4.42840576171875E-06	1645.53726084542
0.464630126953125	4.43634033203125E-06	1645.55938584536
0.46905517578125	4.749755859375E-06	1645.58151084531
0.473480224609375	4.49554443359375E-06	1645.60363584525
0.4779052734375	4.57305908203125E-06	1645.62576084519
0.482330322265625	4.53155517578125E-06	1645.64788584514
0.48675537109375	4.67864990234375E-06	1645.67001084508
0.491180419921875	4.759521484375E-06	1645.69213584503
0.49560546875	4.898681640625E-06	1645.71426084497
0.500030517578125	4.891357421875E-06	1645.73638584492
0.50445556640625	5.00030517578125E-06	1645.75851084486
0.508880615234375	5.04638671875E-06	1645.7806358448
0.5133056640625	5.04791259765625E-06	1645.80276084475
0.517730712890625	5.1373291015625E-06	1645.82488584469
0.52215576171875	5.22003173828125E-06	1645.84701084464
0.526580810546875	5.27099609375E-06	1645.86913584458
0.531005859375	5.28900146484375E-06	1645.89126084452
0.535430908203125	5.33233642578125E-06	1645.91338584447
0.53985595703125	5.32501220703125E-06	1645.93551084441
0.544281005859375	5.64697265625E-06	1645.95763584436
0.5487060546875	5.70709228515625E-06	1645.9797608443
0.553131103515625	5.84991455078125E-06	1646.00188584424
0.55755615234375	5.916748046875E-06	1646.02401084419
0.561981201171875	5.9161376953125E-06	1646.04613584413
0.56640625	6.06048583984375E-06	1646.06826084408
0.570831298828125	6.1614990234375E-06	1646.09038584402
0.57525634765625	6.3018798828125E-06	1646.11251084397
0.579681396484375	6.396484375E-06	1646.13463584391
0.5841064453125	6.634521484375E-06	1646.15676084385
0.588531494140625	6.7108154296875E-06	1646.1788858438
0.59295654296875	6.7138671875E-06	1646.20101084374
0.597381591796875	6.8145751953125E-06	1646.22313584369
0.601806640625	6.9244384765625E-06	1646.24526084363
0.606231689453125	7.1807861328125E-06	1646.26738584357
0.61065673828125	7.1990966796875E-06	1646.28951084352
0.615081787109375	7.391357421875E-06	1646.31163584346
0.6195068359375	7.48291015625E-06	1646.33376084341
0.623931884765625	7.672119140625E-06	1646.35588584335
0.62835693359375	7.9864501953125E-06	1646.3780108433
0.632781982421875	7.9864501953125E-06	1646.40013584324
0.63720703125	8.172607421875E-06	1646.42226084318
0.641632080078125	8.416748046875E-06	1646.44438584313
0.64605712890625	8.526611328125E-06	1646.46651084307
0.650482177734375	8.6639404296875E-06	1646.48863584302
0.6549072265625	8.795166015625E-06	1646.51076084296
0.659332275390625	9.0118408203125E-06	1646.5328858429
0.66375732421875	9.31396484375E-06	1646.55501084285
0.668182373046875	9.6343994140625E-06	1646.57713584279
0.672607421875	9.7412109375E-06	1646.59926084274
0.677032470703125	9.9639892578125E-06	1646.62138584268
0.68145751953125	1.02294921875E-05	1646.64351084262
0.685882568359375	1.05133056640625E-05	1646.66563584257
0.6903076171875	1.05804443359375E-05	1646.68776084251
0.694732666015625	1.09527587890625E-05	1646.70988584246
0.69915771484375	1.12945556640625E-05	1646.7320108424
0.703582763671875	1.1529541015625E-05	1646.75413584235
0.69915771484375	7.0159912109375E-06	1646.77626084229
0.694732666015625	5.0079345703125E-06	1646.79838584223
0.6903076171875	3.47198486328125E-06	1646.82051084218
0.685882568359375	2.3907470703125E-06	1646.84263584212
0.68145751953125	1.55426025390625E-06	1646.86476084207
0.677032470703125	8.7890625E-07	1646.88688584201
0.672607421875	2.3712158203125E-07	1646.90901084195
0.668182373046875	-4.974365234375E-08	1646.9311358419
0.66375732421875	-4.84619140625E-07	1646.95326084184
0.659332275390625	-9.893798828125E-07	1646.97538584179
0.6549072265625	-1.3629150390625E-06	1646.99751084173
0.650482177734375	-1.42364501953125E-06	1647.01963584168
0.64605712890625	-1.81884765625E-06	1647.04176084162
0.641632080078125	-2.14202880859375E-06	1647.06388584156
0.63720703125	-2.2052001953125E-06	1647.08601084151
0.632781982421875	-2.4041748046875E-06	1647.10813584145
0.62835693359375	-2.6654052734375E-06	1647.1302608414
0.623931884765625	-2.5885009765625E-06	1647.15238584134
0.6195068359375	-2.81494140625E-06	1647.17451084128
0.615081787109375	-2.9638671875E-06	1647.19663584123
0.61065673828125	-3.05908203125E-06	1647.21876084117
0.606231689453125	-3.2257080078125E-06	1647.24088584112
0.601806640625	-3.2598876953125E-06	1647.26301084106
0.597381591796875	-3.39202880859375E-06	1647.285135841
0.59295654296875	-3.26416015625E-06	1647.30726084095
0.588531494140625	-3.48480224609375E-06	1647.32938584089
0.5841064453125	-3.560791015625E-06	1647.35151084084
0.579681396484375	-3.516845703125E-06	1647.37363584078
0.57525634765625	-3.52081298828125E-06	1647.39576084073
0.570831298828125	-3.590087890625E-06	1647.41788584067
0.56640625	-3.78753662109375E-06	1647.44001084061
0.561981201171875	-3.88214111328125E-06	1647.46213584056
0.55755615234375	-3.80859375E-06	1647.4842608405
0.553131103515625	-3.91082763671875E-06	1647.50638584045
0.5487060546875	-3.82781982421875E-06	1647.52851084039
0.544281005859375	-3.94439697265625E-06	1647.55063584033
0.53985595703125	-3.91937255859375E-06	1647.57276084028
0.535430908203125	-4.0289306640625E-06	1647.59488584022
0.531005859375	-3.91632080078125E-06	1647.61701084017
0.526580810546875	-3.98101806640625E-06	1647.63913584011
0.52215576171875	-4.10736083984375E-06	1647.66126084006
0.517730712890625	-4.07135009765625E-06	1647.68338584
0.5133056640625	-4.1387939453125E-06	1647.70551083994
0.508880615234375	-4.15802001953125E-06	1647.72763583989
0.50445556640625	-4.1033935546875E-06	1647.74976083983
0.500030517578125	-4.0570068359375E-06	1647.77188583978
0.49560546875	-4.1180419921875E-06	1647.79401083972
0.491180419921875	-4.23583984375E-06	1647.81613583966
0.48675537109375	-4.17205810546875E-06	1647.83826083961
0.482330322265625	-4.21234130859375E-06	1647.86038583955
0.4779052734375	-4.1717529296875E-06	1647.8825108395
0.473480224609375	-4.2547607421875E-06	1647.90463583944
0.46905517578125	-4.1912841796875E-06	1647.92676083938
0.464630126953125	-4.3231201171875E-06	1647.94888583933
0.460205078125	-4.22332763671875E-06	1647.97101083927
0.455780029296875	-4.26422119140625E-06	1647.99313583922
0.45135498046875	-4.10125732421875E-06	1648.01526083916
0.446929931640625	-4.30084228515625E-06	1648.03738583911
0.4425048828125	-4.16107177734375E-06	1648.05951083905
0.438079833984375	-4.29168701171875E-06	1648.08163583899
0.43365478515625	-4.295654296875E-06	1648.10376083894
0.429229736328125	-4.2803955078125E-06	1648.12588583888
0.4248046875	-4.31488037109375E-06	1648.14801083883
0.420379638671875	-4.27093505859375E-06	1648.17013583877
0.41595458984375	-4.267578125E-06	1648.19226083871
0.411529541015625	-4.22027587890625E-06	1648.21438583866
0.4071044921875	-4.268798828125E-06	1648.2365108386
0.402679443359375	-4.26483154296875E-06	1648.25863583855
0.39825439453125	-4.30938720703125E-06	1648.28076083849
0.393829345703125	-4.4091796875E-06	1648.30288583844
0.389404296875	-4.38995361328125E-06	1648.32501083838
0.384979248046875	-4.28009033203125E-06	1648.34713583832
0.38055419921875	-4.41741943359375E-06	1648.36926083827
0.376129150390625	-4.35760498046875E-06	1648.39138583821
0.3717041015625	-4.35272216796875E-06	1648.41351083816
0.367279052734375	-4.2742919921875E-06	1648.4356358381
0.36285400390625	-4.388427734375E-06	1648.45776083804
0.358428955078125	-4.4659423828125E-06	1648.47988583799
0.35400390625	-4.4805908203125E-06	1648.50201083793
0.349578857421875	-4.54193115234375E-06	1648.52413583788
0.34515380859375	-4.57122802734375E-06	1648.54626083782
0.340728759765625	-4.43389892578125E-06	1648.56838583776
0.3363037109375	-4.47723388671875E-06	1648.59051083771
0.331878662109375	-4.5367431640625E-06	1648.61263583765
0.32745361328125	-4.40277099609375E-06	1648.6347608376
0.323028564453125	-4.5281982421875E-06	1648.65688583754
0.318603515625	-4.46136474609375E-06	1648.67901083749
0.314178466796875	-4.5794677734375E-06	1648.70113583743
0.30975341796875	-4.461669921875E-06	1648.72326083737
0.305328369140625	-4.53765869140625E-06	1648.74538583732
0.3009033203125	-4.4830322265625E-06	1648.76751083726
0.296478271484375	-4.58282470703125E-06	1648.78963583721
0.29205322265625	-4.54498291015625E-06	1648.81176083715
0.287628173828125	-4.59381103515625E-06	1648.83388583709
0.283203125	-4.59930419921875E-06	1648.85601083704
0.278778076171875	-4.4854736328125E-06	1648.87813583698
0.27435302734375	-4.57794189453125E-06	1648.90026083693
0.269927978515625	-4.7412109375E-06	1648.92238583687
0.2655029296875	-4.86358642578125E-06	1648.94451083682
0.261077880859375	-4.6148681640625E-06	1648.96663583676
0.25665283203125	-4.4952392578125E-06	1648.9887608367
0.252227783203125	-4.68902587890625E-06	1649.01088583665
0.247802734375	-4.6588134765625E-06	1649.03301083659
0.243377685546875	-4.8681640625E-06	1649.05513583654
0.23895263671875	-4.85992431640625E-06	1649.07726083648
0.234527587890625	-4.8712158203125E-06	1649.09938583642
0.2301025390625	-4.8876953125E-06	1649.12151083637
0.225677490234375	-4.9407958984375E-06	1649.14363583631
0.22125244140625	-4.97039794921875E-06	1649.16576083626
0.216827392578125	-4.98992919921875E-06	1649.1878858362
0.21240234375	-5.015869140625E-06	1649.21001083615
0.207977294921875	-5.1202392578125E-06	1649.23213583609
0.20355224609375	-5.08270263671875E-06	1649.25426083603
0.199127197265625	-5.29052734375E-06	1649.27638583598
0.1947021484375	-5.28533935546875E-06	1649.29851083592
0.190277099609375	-5.145263671875E-06	1649.32063583587
0.18585205078125	-5.400390625E-06	1649.34276083581
0.181427001953125	-5.343017578125E-06	1649.36488583575
0.177001953125	-5.4217529296875E-06	1649.3870108357
0.172576904296875	-5.42694091796875E-06	1649.40913583564
0.16815185546875	-5.5560302734375E-06	1649.43126083559
0.163726806640625	-5.546875E-06	1649.45338583553
0.1593017578125	-5.57159423828125E-06	1649.47551083547
0.154876708984375	-5.655517578125E-06	1649.49763583542
0.15045166015625	-5.64605712890625E-06	1649.51976083536
0.146026611328125	-5.69366455078125E-06	1649.54188583531
0.1416015625	-5.9149169921875E-06	1649.56401083525
0.137176513671875	-5.8648681640625E-06	1649.5861358352
0.13275146484375	-6.0723876953125E-06	1649.60826083514
0.128326416015625	-6.1248779296875E-06	1649.63038583508
0.1239013671875	-6.1798095703125E-06	1649.65251083503
0.119476318359375	-6.4666748046875E-06	1649.67463583497
0.11505126953125	-6.5582275390625E-06	1649.69676083492
0.110626220703125	-6.5093994140625E-06	1649.71888583486
0.106201171875	-6.73828125E-06	1649.7410108348
0.101776123046875	-6.8450927734375E-06	1649.76313583475
0.09735107421875	-7.1380615234375E-06	1649.78526083469
0.092926025390625	-7.43408203125E-06	1649.80738583464
0.0885009765625	-7.666015625E-06	1649.82951083458
0.084075927734375	-7.806396484375E-06	1649.85163583453
0.07965087890625	-8.0413818359375E-06	1649.87376083447
0.075225830078125	-8.3526611328125E-06	1649.89588583441
0.07080078125	-8.4075927734375E-06	1649.91801083436
0.066375732421875	-8.697509765625E-06	1649.9401358343
0.06195068359375	-8.8287353515625E-06	1649.96226083425
0.057525634765625	-8.819580078125E-06	1649.98438583419
0.0531005859375	-8.9447021484375E-06	1650.00651083413
0.048675537109375	-8.9813232421875E-06	1650.02863583408
0.04425048828125	-8.837890625E-06	1650.05076083402
0.039825439453125	-8.92333984375E-06	1650.07288583397
0.035400390625	-8.8653564453125E-06	1650.09501083391
0.030975341796875	-8.7921142578125E-06	1650.11713583385
0.02655029296875	-8.8348388671875E-06	1650.1392608338
0.022125244140625	-8.7860107421875E-06	1650.16138583374
0.0177001953125	-8.89892578125E-06	1650.18351083369
0.013275146484375	-8.8470458984375E-06	1650.20563583363
0.00885009765625	-8.9263916015625E-06	1650.22776083358
0.004425048828125	-8.8470458984375E-06	1650.24988583352
0	-8.8409423828125E-06	1650.27201083346
0.004425048828125	-5.364990234375E-06	1650.29413583341
0.00885009765625	-3.65936279296875E-06	1650.31626083335
0.013275146484375	-2.86712646484375E-06	1650.3383858333
