Potential applied (V)	WE(1).Current (A)	Time (s)
0.004425048828125	-1.361083984375E-06	1585.23736899766
0.00885009765625	-6.976318359375E-07	1585.28161899755
0.013275146484375	-3.1646728515625E-07	1585.32586899744
0.0177001953125	-6.683349609375E-08	1585.37011899733
0.022125244140625	3.448486328125E-08	1585.41436899721
0.02655029296875	3.0517578125E-07	1585.4586189971
0.030975341796875	3.656005859375E-07	1585.50286899699
0.035400390625	5.2764892578125E-07	1585.54711899688
0.039825439453125	6.414794921875E-07	1585.59136899677
0.04425048828125	7.0159912109375E-07	1585.63561899666
0.048675537109375	8.160400390625E-07	1585.67986899654
0.0531005859375	9.2254638671875E-07	1585.72411899643
0.057525634765625	9.796142578125E-07	1585.76836899632
0.06195068359375	1.024169921875E-06	1585.81261899621
0.066375732421875	1.08367919921875E-06	1585.8568689961
0.07080078125	1.168212890625E-06	1585.90111899598
0.075225830078125	1.2408447265625E-06	1585.94536899587
0.07965087890625	1.317138671875E-06	1585.98961899576
0.084075927734375	1.38153076171875E-06	1586.03386899565
0.0885009765625	1.4373779296875E-06	1586.07811899554
0.092926025390625	1.5155029296875E-06	1586.12236899543
0.09735107421875	1.50482177734375E-06	1586.16661899531
0.101776123046875	1.6473388671875E-06	1586.2108689952
0.106201171875	1.712646484375E-06	1586.25511899509
0.110626220703125	1.75689697265625E-06	1586.29936899498
0.11505126953125	1.73583984375E-06	1586.34361899487
0.119476318359375	1.78619384765625E-06	1586.38786899476
0.1239013671875	1.807861328125E-06	1586.43211899464
0.128326416015625	1.85882568359375E-06	1586.47636899453
0.13275146484375	1.9158935546875E-06	1586.52061899442
0.137176513671875	1.86279296875E-06	1586.56486899431
0.1416015625	1.8170166015625E-06	1586.6091189942
0.146026611328125	1.87347412109375E-06	1586.65336899409
0.15045166015625	1.8157958984375E-06	1586.69761899397
0.154876708984375	1.842041015625E-06	1586.74186899386
0.1593017578125	1.8585205078125E-06	1586.78611899375
0.163726806640625	1.78680419921875E-06	1586.83036899364
0.16815185546875	1.9085693359375E-06	1586.87461899353
0.172576904296875	1.8475341796875E-06	1586.91886899341
0.177001953125	1.76513671875E-06	1586.9631189933
0.181427001953125	1.781005859375E-06	1587.00736899319
0.18585205078125	1.82769775390625E-06	1587.05161899308
0.190277099609375	1.83135986328125E-06	1587.09586899297
0.1947021484375	1.81365966796875E-06	1587.14011899286
0.199127197265625	1.8438720703125E-06	1587.18436899274
0.20355224609375	1.76849365234375E-06	1587.22861899263
0.207977294921875	1.8402099609375E-06	1587.27286899252
0.21240234375	1.7816162109375E-06	1587.31711899241
0.216827392578125	1.82373046875E-06	1587.3613689923
0.22125244140625	1.78009033203125E-06	1587.40561899219
0.225677490234375	1.81732177734375E-06	1587.44986899207
0.2301025390625	1.8145751953125E-06	1587.49411899196
0.234527587890625	1.8487548828125E-06	1587.53836899185
0.23895263671875	1.7987060546875E-06	1587.58261899174
0.243377685546875	1.83502197265625E-06	1587.62686899163
0.247802734375	1.81121826171875E-06	1587.67111899152
0.252227783203125	1.86431884765625E-06	1587.7153689914
0.25665283203125	1.77978515625E-06	1587.75961899129
0.261077880859375	1.74835205078125E-06	1587.80386899118
0.2655029296875	1.79290771484375E-06	1587.84811899107
0.269927978515625	1.8023681640625E-06	1587.89236899096
0.27435302734375	1.7254638671875E-06	1587.93661899085
0.278778076171875	1.778564453125E-06	1587.98086899073
0.283203125	1.75689697265625E-06	1588.02511899062
0.287628173828125	1.81640625E-06	1588.06936899051
0.29205322265625	1.8603515625E-06	1588.1136189904
0.296478271484375	1.85577392578125E-06	1588.15786899029
0.3009033203125	1.80633544921875E-06	1588.20211899018
0.305328369140625	1.8463134765625E-06	1588.24636899006
0.30975341796875	1.85821533203125E-06	1588.29061898995
0.314178466796875	1.87042236328125E-06	1588.33486898984
0.318603515625	1.91619873046875E-06	1588.37911898973
0.323028564453125	1.86126708984375E-06	1588.42336898962
0.32745361328125	1.82952880859375E-06	1588.4676189895
0.331878662109375	1.9427490234375E-06	1588.51186898939
0.3363037109375	1.912841796875E-06	1588.55611898928
0.340728759765625	1.8756103515625E-06	1588.60036898917
0.34515380859375	1.923828125E-06	1588.64461898906
0.349578857421875	1.8890380859375E-06	1588.68886898895
0.35400390625	1.9915771484375E-06	1588.73311898883
0.358428955078125	2.06787109375E-06	1588.77736898872
0.36285400390625	2.09381103515625E-06	1588.82161898861
0.367279052734375	2.05169677734375E-06	1588.8658689885
0.3717041015625	2.10113525390625E-06	1588.91011898839
0.376129150390625	2.12371826171875E-06	1588.95436898828
0.38055419921875	2.10845947265625E-06	1588.99861898816
0.384979248046875	2.07977294921875E-06	1589.04286898805
0.389404296875	2.10601806640625E-06	1589.08711898794
0.393829345703125	2.16796875E-06	1589.13136898783
0.39825439453125	2.12371826171875E-06	1589.17561898772
0.402679443359375	2.16094970703125E-06	1589.21986898761
0.4071044921875	2.14141845703125E-06	1589.26411898749
0.411529541015625	2.06817626953125E-06	1589.30836898738
0.41595458984375	2.20794677734375E-06	1589.35261898727
0.420379638671875	2.22259521484375E-06	1589.39686898716
0.4248046875	2.178955078125E-06	1589.44111898705
0.429229736328125	2.31109619140625E-06	1589.48536898694
0.43365478515625	2.296142578125E-06	1589.52961898682
0.438079833984375	2.38525390625E-06	1589.57386898671
0.4425048828125	2.333984375E-06	1589.6181189866
0.446929931640625	2.362060546875E-06	1589.66236898649
0.45135498046875	2.39013671875E-06	1589.70661898638
0.455780029296875	2.44659423828125E-06	1589.75086898626
0.460205078125	2.4652099609375E-06	1589.79511898615
0.464630126953125	2.51129150390625E-06	1589.83936898604
0.46905517578125	2.4932861328125E-06	1589.88361898593
0.473480224609375	2.50335693359375E-06	1589.92786898582
0.4779052734375	2.5689697265625E-06	1589.97211898571
0.482330322265625	2.58056640625E-06	1590.01636898559
0.48675537109375	2.55523681640625E-06	1590.06061898548
0.491180419921875	2.647705078125E-06	1590.10486898537
0.49560546875	2.68798828125E-06	1590.14911898526
0.500030517578125	2.79937744140625E-06	1590.19336898515
0.50445556640625	2.84393310546875E-06	1590.23761898504
0.508880615234375	2.75177001953125E-06	1590.28186898492
0.5133056640625	2.89886474609375E-06	1590.32611898481
0.517730712890625	2.91900634765625E-06	1590.3703689847
0.52215576171875	2.9534912109375E-06	1590.41461898459
0.526580810546875	2.98065185546875E-06	1590.45886898448
0.531005859375	3.03131103515625E-06	1590.50311898437
0.535430908203125	3.05572509765625E-06	1590.54736898425
0.53985595703125	3.2183837890625E-06	1590.59161898414
0.544281005859375	3.19183349609375E-06	1590.63586898403
0.5487060546875	3.18878173828125E-06	1590.68011898392
0.553131103515625	3.29254150390625E-06	1590.72436898381
0.55755615234375	3.36822509765625E-06	1590.7686189837
0.561981201171875	3.3685302734375E-06	1590.81286898358
0.56640625	3.428955078125E-06	1590.85711898347
0.570831298828125	3.45001220703125E-06	1590.90136898336
0.57525634765625	3.65966796875E-06	1590.94561898325
0.579681396484375	3.65753173828125E-06	1590.98986898314
0.5841064453125	3.73565673828125E-06	1591.03411898303
0.588531494140625	3.8067626953125E-06	1591.07836898291
0.59295654296875	3.80340576171875E-06	1591.1226189828
0.597381591796875	3.8922119140625E-06	1591.16686898269
0.601806640625	4.0533447265625E-06	1591.21111898258
0.606231689453125	4.1461181640625E-06	1591.25536898247
0.61065673828125	4.16412353515625E-06	1591.29961898235
0.615081787109375	4.24468994140625E-06	1591.34386898224
0.6195068359375	4.3408203125E-06	1591.38811898213
0.623931884765625	4.482421875E-06	1591.43236898202
0.62835693359375	4.5849609375E-06	1591.47661898191
0.632781982421875	4.68109130859375E-06	1591.5208689818
0.63720703125	4.77325439453125E-06	1591.56511898168
0.641632080078125	4.84039306640625E-06	1591.60936898157
0.64605712890625	4.9554443359375E-06	1591.65361898146
0.650482177734375	5.0823974609375E-06	1591.69786898135
0.6549072265625	5.18524169921875E-06	1591.74211898124
0.659332275390625	5.3515625E-06	1591.78636898113
0.66375732421875	5.4681396484375E-06	1591.83061898101
0.668182373046875	5.60943603515625E-06	1591.8748689809
0.672607421875	5.6817626953125E-06	1591.91911898079
0.677032470703125	5.8770751953125E-06	1591.96336898068
0.68145751953125	5.975341796875E-06	1592.00761898057
0.685882568359375	6.170654296875E-06	1592.05186898046
0.6903076171875	6.3751220703125E-06	1592.09611898034
0.694732666015625	6.53076171875E-06	1592.14036898023
0.69915771484375	6.7291259765625E-06	1592.18461898012
0.703582763671875	6.9549560546875E-06	1592.22886898001
0.69915771484375	4.6600341796875E-06	1592.2731189799
0.694732666015625	3.47320556640625E-06	1592.31736897978
0.6903076171875	2.49542236328125E-06	1592.36161897967
0.685882568359375	1.88323974609375E-06	1592.40586897956
0.68145751953125	1.42242431640625E-06	1592.45011897945
0.677032470703125	1.15997314453125E-06	1592.49436897934
0.672607421875	6.5887451171875E-07	1592.53861897923
0.668182373046875	3.62548828125E-07	1592.58286897911
0.66375732421875	8.7890625E-08	1592.627118979
0.659332275390625	-3.021240234375E-08	1592.67136897889
0.6549072265625	-2.374267578125E-07	1592.71561897878
0.650482177734375	-5.2398681640625E-07	1592.75986897867
0.64605712890625	-7.2235107421875E-07	1592.80411897856
0.641632080078125	-7.5347900390625E-07	1592.84836897844
0.63720703125	-8.8958740234375E-07	1592.89261897833
0.632781982421875	-9.8236083984375E-07	1592.93686897822
0.62835693359375	-1.1651611328125E-06	1592.98111897811
0.623931884765625	-1.27685546875E-06	1593.025368978
0.6195068359375	-1.22283935546875E-06	1593.06961897789
0.615081787109375	-1.287841796875E-06	1593.11386897777
0.61065673828125	-1.46240234375E-06	1593.15811897766
0.606231689453125	-1.485595703125E-06	1593.20236897755
0.601806640625	-1.62078857421875E-06	1593.24661897744
0.597381591796875	-1.56463623046875E-06	1593.29086897733
0.59295654296875	-1.6455078125E-06	1593.33511897722
0.588531494140625	-1.64703369140625E-06	1593.3793689771
0.5841064453125	-1.790771484375E-06	1593.42361897699
0.579681396484375	-1.73980712890625E-06	1593.46786897688
0.57525634765625	-1.796875E-06	1593.51211897677
0.570831298828125	-1.80694580078125E-06	1593.55636897666
0.56640625	-1.88140869140625E-06	1593.60061897655
0.561981201171875	-1.81396484375E-06	1593.64486897643
0.55755615234375	-1.88690185546875E-06	1593.68911897632
0.553131103515625	-1.97418212890625E-06	1593.73336897621
0.5487060546875	-1.9415283203125E-06	1593.7776189761
0.544281005859375	-1.9854736328125E-06	1593.82186897599
0.53985595703125	-1.9921875E-06	1593.86611897587
0.535430908203125	-1.96502685546875E-06	1593.91036897576
0.531005859375	-2.00836181640625E-06	1593.95461897565
0.526580810546875	-1.97845458984375E-06	1593.99886897554
0.52215576171875	-2.03155517578125E-06	1594.04311897543
0.517730712890625	-2.0611572265625E-06	1594.08736897532
0.5133056640625	-2.09991455078125E-06	1594.1316189752
0.508880615234375	-2.02423095703125E-06	1594.17586897509
0.50445556640625	-2.1319580078125E-06	1594.22011897498
0.500030517578125	-2.07733154296875E-06	1594.26436897487
0.49560546875	-2.01995849609375E-06	1594.30861897476
0.491180419921875	-2.110595703125E-06	1594.35286897465
0.48675537109375	-2.18017578125E-06	1594.39711897453
0.482330322265625	-2.10601806640625E-06	1594.44136897442
0.4779052734375	-2.16217041015625E-06	1594.48561897431
0.473480224609375	-2.1099853515625E-06	1594.5298689742
0.46905517578125	-2.14508056640625E-06	1594.57411897409
0.464630126953125	-2.16094970703125E-06	1594.61836897398
0.460205078125	-2.1636962890625E-06	1594.66261897386
0.455780029296875	-2.1209716796875E-06	1594.70686897375
0.45135498046875	-2.2113037109375E-06	1594.75111897364
0.446929931640625	-2.127685546875E-06	1594.79536897353
0.4425048828125	-2.188720703125E-06	1594.83961897342
0.438079833984375	-2.19940185546875E-06	1594.88386897331
0.43365478515625	-2.2039794921875E-06	1594.92811897319
0.429229736328125	-2.1630859375E-06	1594.97236897308
0.4248046875	-2.13897705078125E-06	1595.01661897297
0.420379638671875	-2.17742919921875E-06	1595.06086897286
0.41595458984375	-2.213134765625E-06	1595.10511897275
0.411529541015625	-2.11944580078125E-06	1595.14936897263
0.4071044921875	-2.169189453125E-06	1595.19361897252
0.402679443359375	-2.191162109375E-06	1595.23786897241
0.39825439453125	-2.2662353515625E-06	1595.2821189723
0.393829345703125	-2.1942138671875E-06	1595.32636897219
0.389404296875	-2.19085693359375E-06	1595.37061897208
0.384979248046875	-2.22869873046875E-06	1595.41486897196
0.38055419921875	-2.24517822265625E-06	1595.45911897185
0.376129150390625	-2.27386474609375E-06	1595.50336897174
0.3717041015625	-2.24090576171875E-06	1595.54761897163
0.367279052734375	-2.239990234375E-06	1595.59186897152
0.36285400390625	-2.27691650390625E-06	1595.63611897141
0.358428955078125	-2.249755859375E-06	1595.68036897129
0.35400390625	-2.32666015625E-06	1595.72461897118
0.349578857421875	-2.19940185546875E-06	1595.76886897107
0.34515380859375	-2.31597900390625E-06	1595.81311897096
0.340728759765625	-2.33551025390625E-06	1595.85736897085
0.3363037109375	-2.310791015625E-06	1595.90161897074
0.331878662109375	-2.279052734375E-06	1595.94586897062
0.32745361328125	-2.17803955078125E-06	1595.99011897051
0.323028564453125	-2.310791015625E-06	1596.0343689704
0.318603515625	-2.28515625E-06	1596.07861897029
0.314178466796875	-2.28851318359375E-06	1596.12286897018
0.30975341796875	-2.25921630859375E-06	1596.16711897007
0.305328369140625	-2.27325439453125E-06	1596.21136896995
0.3009033203125	-2.255859375E-06	1596.25561896984
0.296478271484375	-2.305908203125E-06	1596.29986896973
0.29205322265625	-2.28118896484375E-06	1596.34411896962
0.287628173828125	-2.2772216796875E-06	1596.38836896951
0.283203125	-2.34893798828125E-06	1596.4326189694
0.278778076171875	-2.47100830078125E-06	1596.47686896928
0.27435302734375	-2.3577880859375E-06	1596.52111896917
0.269927978515625	-2.31048583984375E-06	1596.56536896906
0.2655029296875	-2.3333740234375E-06	1596.60961896895
0.261077880859375	-2.31414794921875E-06	1596.65386896884
0.25665283203125	-2.3809814453125E-06	1596.69811896872
0.252227783203125	-2.42919921875E-06	1596.74236896861
0.247802734375	-2.3211669921875E-06	1596.7866189685
0.243377685546875	-2.41668701171875E-06	1596.83086896839
0.23895263671875	-2.47344970703125E-06	1596.87511896828
0.234527587890625	-2.425537109375E-06	1596.91936896817
0.2301025390625	-2.50335693359375E-06	1596.96361896805
0.225677490234375	-2.4658203125E-06	1597.00786896794
0.22125244140625	-2.547607421875E-06	1597.05211896783
0.216827392578125	-2.54547119140625E-06	1597.09636896772
0.21240234375	-2.57476806640625E-06	1597.14061896761
0.207977294921875	-2.6116943359375E-06	1597.1848689675
0.20355224609375	-2.59246826171875E-06	1597.22911896738
0.199127197265625	-2.6287841796875E-06	1597.27336896727
0.1947021484375	-2.760009765625E-06	1597.31761896716
0.190277099609375	-2.75054931640625E-06	1597.36186896705
0.18585205078125	-2.75360107421875E-06	1597.40611896694
0.181427001953125	-2.71087646484375E-06	1597.45036896683
0.177001953125	-2.78533935546875E-06	1597.49461896671
0.172576904296875	-2.86102294921875E-06	1597.5388689666
0.16815185546875	-2.85430908203125E-06	1597.58311896649
0.163726806640625	-2.852783203125E-06	1597.62736896638
0.1593017578125	-2.828369140625E-06	1597.67161896627
0.154876708984375	-2.95196533203125E-06	1597.71586896616
0.15045166015625	-2.889404296875E-06	1597.76011896604
0.146026611328125	-3.01422119140625E-06	1597.80436896593
0.1416015625	-3.10516357421875E-06	1597.84861896582
0.137176513671875	-3.1402587890625E-06	1597.89286896571
0.13275146484375	-3.19183349609375E-06	1597.9371189656
0.128326416015625	-3.2855224609375E-06	1597.98136896548
0.1239013671875	-3.34991455078125E-06	1598.02561896537
0.119476318359375	-3.41644287109375E-06	1598.06986896526
0.11505126953125	-3.5601806640625E-06	1598.11411896515
0.110626220703125	-3.597412109375E-06	1598.15836896504
0.106201171875	-3.8555908203125E-06	1598.20261896493
0.101776123046875	-3.86566162109375E-06	1598.24686896481
0.09735107421875	-4.04998779296875E-06	1598.2911189647
0.092926025390625	-4.25048828125E-06	1598.33536896459
0.0885009765625	-4.3939208984375E-06	1598.37961896448
0.084075927734375	-4.5318603515625E-06	1598.42386896437
0.07965087890625	-4.5782470703125E-06	1598.46811896426
0.075225830078125	-4.68780517578125E-06	1598.51236896414
0.07080078125	-4.78485107421875E-06	1598.55661896403
0.066375732421875	-4.80255126953125E-06	1598.60086896392
0.06195068359375	-4.8175048828125E-06	1598.64511896381
0.057525634765625	-4.84100341796875E-06	1598.6893689637
0.0531005859375	-4.82879638671875E-06	1598.73361896359
0.048675537109375	-4.74365234375E-06	1598.77786896347
0.04425048828125	-4.7503662109375E-06	1598.82211896336
0.039825439453125	-4.68353271484375E-06	1598.86636896325
0.035400390625	-4.73358154296875E-06	1598.91061896314
0.030975341796875	-4.62615966796875E-06	1598.95486896303
0.02655029296875	-4.69329833984375E-06	1598.99911896292
0.022125244140625	-4.6221923828125E-06	1599.0433689628
0.0177001953125	-4.58953857421875E-06	1599.08761896269
0.013275146484375	-4.57855224609375E-06	1599.13186896258
0.00885009765625	-4.6575927734375E-06	1599.17611896247
0.004425048828125	-4.68414306640625E-06	1599.22036896236
0	-4.62371826171875E-06	1599.26461896225
0.004425048828125	-3.12042236328125E-06	1599.30886896213
0.00885009765625	-2.371826171875E-06	1599.35311896202
0.013275146484375	-1.8719482421875E-06	1599.39736896191
0.0177001953125	-1.43524169921875E-06	1599.4416189618
0.022125244140625	-1.16455078125E-06	1599.48586896169
0.02655029296875	-9.210205078125E-07	1599.53011896157
0.030975341796875	-7.196044921875E-07	1599.57436896146
0.035400390625	-5.0689697265625E-07	1599.61861896135
0.039825439453125	-3.02734375E-07	1599.66286896124
0.04425048828125	-2.5360107421875E-07	1599.70711896113
0.048675537109375	-9.6435546875E-08	1599.75136896102
0.0531005859375	8.30078125E-08	1599.7956189609
0.057525634765625	1.8646240234375E-07	1599.83986896079
0.06195068359375	3.4332275390625E-07	1599.88411896068
0.066375732421875	3.9947509765625E-07	1599.92836896057
0.07080078125	5.2581787109375E-07	1599.97261896046
0.075225830078125	6.6253662109375E-07	1600.01686896035
0.07965087890625	7.5103759765625E-07	1600.06111896023
0.084075927734375	7.794189453125E-07	1600.10536896012
0.0885009765625	8.966064453125E-07	1600.14961896001
0.092926025390625	9.442138671875E-07	1600.1938689599
0.09735107421875	1.07330322265625E-06	1600.23811895979
0.101776123046875	1.1077880859375E-06	1600.28236895968
0.106201171875	1.24603271484375E-06	1600.32661895956
0.110626220703125	1.331787109375E-06	1600.37086895945
0.11505126953125	1.3336181640625E-06	1600.41511895934
0.119476318359375	1.33331298828125E-06	1600.45936895923
0.1239013671875	1.4422607421875E-06	1600.50361895912
0.128326416015625	1.436767578125E-06	1600.547868959
0.13275146484375	1.45904541015625E-06	1600.59211895889
0.137176513671875	1.434326171875E-06	1600.63636895878
0.1416015625	1.50604248046875E-06	1600.68061895867
0.146026611328125	1.55914306640625E-06	1600.72486895856
0.15045166015625	1.435546875E-06	1600.76911895845
0.154876708984375	1.446533203125E-06	1600.81336895833
0.1593017578125	1.427001953125E-06	1600.85761895822
0.163726806640625	1.5155029296875E-06	1600.90186895811
0.16815185546875	1.43646240234375E-06	1600.946118958
0.172576904296875	1.51580810546875E-06	1600.99036895789
0.177001953125	1.51611328125E-06	1601.03461895778
0.181427001953125	1.5643310546875E-06	1601.07886895766
0.18585205078125	1.48895263671875E-06	1601.12311895755
0.190277099609375	1.54327392578125E-06	1601.16736895744
0.1947021484375	1.52313232421875E-06	1601.21161895733
0.199127197265625	1.46087646484375E-06	1601.25586895722
0.20355224609375	1.47613525390625E-06	1601.30011895711
0.207977294921875	1.43798828125E-06	1601.34436895699
0.21240234375	1.54632568359375E-06	1601.38861895688
0.216827392578125	1.5423583984375E-06	1601.43286895677
0.22125244140625	1.54052734375E-06	1601.47711895666
0.225677490234375	1.475830078125E-06	1601.52136895655
0.2301025390625	1.5948486328125E-06	1601.56561895644
0.234527587890625	1.59637451171875E-06	1601.60986895632
0.23895263671875	1.5673828125E-06	1601.65411895621
0.243377685546875	1.6046142578125E-06	1601.6983689561
0.247802734375	1.5283203125E-06	1601.74261895599
0.252227783203125	1.5777587890625E-06	1601.78686895588
0.25665283203125	1.66748046875E-06	1601.83111895577
0.261077880859375	1.52740478515625E-06	1601.87536895565
0.2655029296875	1.56707763671875E-06	1601.91961895554
0.269927978515625	1.60858154296875E-06	1601.96386895543
0.27435302734375	1.6253662109375E-06	1602.00811895532
0.278778076171875	1.58538818359375E-06	1602.05236895521
0.283203125	1.5472412109375E-06	1602.09661895509
0.287628173828125	1.61468505859375E-06	1602.14086895498
0.29205322265625	1.59515380859375E-06	1602.18511895487
0.296478271484375	1.6815185546875E-06	1602.22936895476
0.3009033203125	1.591796875E-06	1602.27361895465
0.305328369140625	1.62689208984375E-06	1602.31786895454
0.30975341796875	1.6619873046875E-06	1602.36211895442
0.314178466796875	1.67510986328125E-06	1602.40636895431
0.318603515625	1.668701171875E-06	1602.4506189542
0.323028564453125	1.72515869140625E-06	1602.49486895409
0.32745361328125	1.7059326171875E-06	1602.53911895398
0.331878662109375	1.66778564453125E-06	1602.58336895387
0.3363037109375	1.724853515625E-06	1602.62761895375
0.340728759765625	1.71051025390625E-06	1602.67186895364
0.34515380859375	1.768798828125E-06	1602.71611895353
0.349578857421875	1.727294921875E-06	1602.76036895342
0.35400390625	1.7889404296875E-06	1602.80461895331
0.358428955078125	1.84600830078125E-06	1602.8488689532
0.36285400390625	1.80389404296875E-06	1602.89311895308
0.367279052734375	1.81640625E-06	1602.93736895297
0.3717041015625	1.87530517578125E-06	1602.98161895286
0.376129150390625	1.8243408203125E-06	1603.02586895275
0.38055419921875	1.84326171875E-06	1603.07011895264
0.384979248046875	1.8316650390625E-06	1603.11436895253
0.389404296875	1.84600830078125E-06	1603.15861895241
0.393829345703125	1.91741943359375E-06	1603.2028689523
0.39825439453125	1.961669921875E-06	1603.24711895219
0.402679443359375	2.02392578125E-06	1603.29136895208
0.4071044921875	2.00653076171875E-06	1603.33561895197
0.411529541015625	1.986083984375E-06	1603.37986895185
0.41595458984375	2.0123291015625E-06	1603.42411895174
0.420379638671875	2.04620361328125E-06	1603.46836895163
0.4248046875	2.06939697265625E-06	1603.51261895152
0.429229736328125	2.0330810546875E-06	1603.55686895141
0.43365478515625	2.0947265625E-06	1603.6011189513
0.438079833984375	2.17498779296875E-06	1603.64536895118
0.4425048828125	2.20184326171875E-06	1603.68961895107
0.446929931640625	2.1600341796875E-06	1603.73386895096
0.45135498046875	2.1844482421875E-06	1603.77811895085
0.455780029296875	2.27874755859375E-06	1603.82236895074
0.460205078125	2.22747802734375E-06	1603.86661895063
0.464630126953125	2.27783203125E-06	1603.91086895051
0.46905517578125	2.27569580078125E-06	1603.9551189504
0.473480224609375	2.3504638671875E-06	1603.99936895029
0.4779052734375	2.30804443359375E-06	1604.04361895018
0.482330322265625	2.354736328125E-06	1604.08786895007
0.48675537109375	2.437744140625E-06	1604.13211894996
0.491180419921875	2.432861328125E-06	1604.17636894984
0.49560546875	2.50579833984375E-06	1604.22061894973
0.500030517578125	2.56988525390625E-06	1604.26486894962
0.50445556640625	2.61077880859375E-06	1604.30911894951
0.508880615234375	2.6251220703125E-06	1604.3533689494
0.5133056640625	2.65289306640625E-06	1604.39761894929
0.517730712890625	2.67913818359375E-06	1604.44186894917
0.52215576171875	2.69927978515625E-06	1604.48611894906
0.526580810546875	2.7252197265625E-06	1604.53036894895
0.531005859375	2.85430908203125E-06	1604.57461894884
0.535430908203125	2.86346435546875E-06	1604.61886894873
0.53985595703125	2.95989990234375E-06	1604.66311894862
0.544281005859375	2.89215087890625E-06	1604.7073689485
0.5487060546875	2.98004150390625E-06	1604.75161894839
0.553131103515625	3.04840087890625E-06	1604.79586894828
0.55755615234375	3.1463623046875E-06	1604.84011894817
0.561981201171875	3.20281982421875E-06	1604.88436894806
0.56640625	3.27362060546875E-06	1604.92861894794
0.570831298828125	3.28948974609375E-06	1604.97286894783
0.57525634765625	3.33984375E-06	1605.01711894772
0.579681396484375	3.40789794921875E-06	1605.06136894761
0.5841064453125	3.46923828125E-06	1605.1056189475
0.588531494140625	3.5443115234375E-06	1605.14986894739
0.59295654296875	3.64288330078125E-06	1605.19411894727
0.597381591796875	3.67279052734375E-06	1605.23836894716
0.601806640625	3.800048828125E-06	1605.28261894705
0.606231689453125	3.93341064453125E-06	1605.32686894694
0.61065673828125	3.84796142578125E-06	1605.37111894683
0.615081787109375	4.0521240234375E-06	1605.41536894672
0.6195068359375	4.01519775390625E-06	1605.4596189466
0.623931884765625	4.25262451171875E-06	1605.50386894649
0.62835693359375	4.33074951171875E-06	1605.54811894638
0.632781982421875	4.3377685546875E-06	1605.59236894627
0.63720703125	4.48822021484375E-06	1605.63661894616
0.641632080078125	4.5831298828125E-06	1605.68086894605
0.64605712890625	4.60784912109375E-06	1605.72511894593
0.650482177734375	4.82879638671875E-06	1605.76936894582
0.6549072265625	4.88555908203125E-06	1605.81361894571
0.659332275390625	5.020751953125E-06	1605.8578689456
0.66375732421875	5.1776123046875E-06	1605.90211894549
0.668182373046875	5.29876708984375E-06	1605.94636894538
0.672607421875	5.44464111328125E-06	1605.99061894526
0.677032470703125	5.56182861328125E-06	1606.03486894515
0.68145751953125	5.76507568359375E-06	1606.07911894504
0.685882568359375	5.9588623046875E-06	1606.12336894493
0.6903076171875	6.0552978515625E-06	1606.16761894482
0.694732666015625	6.256103515625E-06	1606.2118689447
0.69915771484375	6.4422607421875E-06	1606.25611894459
0.703582763671875	6.7138671875E-06	1606.30036894448
0.69915771484375	4.4158935546875E-06	1606.34461894437
0.694732666015625	3.28643798828125E-06	1606.38886894426
0.6903076171875	2.49664306640625E-06	1606.43311894415
0.685882568359375	1.85394287109375E-06	1606.47736894403
0.68145751953125	1.27685546875E-06	1606.52161894392
0.677032470703125	8.953857421875E-07	1606.56586894381
0.672607421875	5.621337890625E-07	1606.6101189437
0.668182373046875	2.8045654296875E-07	1606.65436894359
0.66375732421875	1.190185546875E-08	1606.69861894348
0.659332275390625	-1.556396484375E-07	1606.74286894336
0.6549072265625	-3.948974609375E-07	1606.78711894325
0.650482177734375	-5.902099609375E-07	1606.83136894314
0.64605712890625	-7.32421875E-07	1606.87561894303
0.641632080078125	-8.3251953125E-07	1606.91986894292
0.63720703125	-1.00311279296875E-06	1606.96411894281
0.632781982421875	-1.05621337890625E-06	1607.00836894269
0.62835693359375	-1.143798828125E-06	1607.05261894258
0.623931884765625	-1.229248046875E-06	1607.09686894247
0.6195068359375	-1.32476806640625E-06	1607.14111894236
0.615081787109375	-1.424560546875E-06	1607.18536894225
0.61065673828125	-1.4337158203125E-06	1607.22961894214
0.606231689453125	-1.5228271484375E-06	1607.27386894202
0.601806640625	-1.61224365234375E-06	1607.31811894191
0.597381591796875	-1.67510986328125E-06	1607.3623689418
0.59295654296875	-1.63421630859375E-06	1607.40661894169
0.588531494140625	-1.69342041015625E-06	1607.45086894158
0.5841064453125	-1.68701171875E-06	1607.49511894147
0.579681396484375	-1.778564453125E-06	1607.53936894135
0.57525634765625	-1.785888671875E-06	1607.58361894124
0.570831298828125	-1.91070556640625E-06	1607.62786894113
0.56640625	-1.92596435546875E-06	1607.67211894102
0.561981201171875	-1.9036865234375E-06	1607.71636894091
0.55755615234375	-1.94183349609375E-06	1607.76061894079
0.553131103515625	-1.93115234375E-06	1607.80486894068
0.5487060546875	-2.0196533203125E-06	1607.84911894057
0.544281005859375	-2.03887939453125E-06	1607.89336894046
0.53985595703125	-1.98638916015625E-06	1607.93761894035
0.535430908203125	-1.93634033203125E-06	1607.98186894024
0.531005859375	-2.00225830078125E-06	1608.02611894012
0.526580810546875	-2.01568603515625E-06	1608.07036894001
0.52215576171875	-2.08831787109375E-06	1608.1146189399
0.517730712890625	-2.09136962890625E-06	1608.15886893979
0.5133056640625	-2.1380615234375E-06	1608.20311893968
0.508880615234375	-2.04742431640625E-06	1608.24736893957
0.50445556640625	-2.03857421875E-06	1608.29161893945
0.500030517578125	-2.11090087890625E-06	1608.33586893934
0.49560546875	-2.109375E-06	1608.38011893923
0.491180419921875	-2.11212158203125E-06	1608.42436893912
0.48675537109375	-2.03582763671875E-06	1608.46861893901
0.482330322265625	-2.0989990234375E-06	1608.5128689389
0.4779052734375	-2.18353271484375E-06	1608.55711893878
0.473480224609375	-2.11700439453125E-06	1608.60136893867
0.46905517578125	-2.16644287109375E-06	1608.64561893856
0.464630126953125	-2.20062255859375E-06	1608.68986893845
0.460205078125	-2.17254638671875E-06	1608.73411893834
0.455780029296875	-2.1466064453125E-06	1608.77836893822
0.45135498046875	-2.1478271484375E-06	1608.82261893811
0.446929931640625	-2.152099609375E-06	1608.866868938
0.4425048828125	-2.18963623046875E-06	1608.91111893789
0.438079833984375	-2.14508056640625E-06	1608.95536893778
0.43365478515625	-2.20001220703125E-06	1608.99961893767
0.429229736328125	-2.1624755859375E-06	1609.04386893755
0.4248046875	-2.1734619140625E-06	1609.08811893744
0.420379638671875	-2.23846435546875E-06	1609.13236893733
0.41595458984375	-2.2674560546875E-06	1609.17661893722
0.411529541015625	-2.16949462890625E-06	1609.22086893711
0.4071044921875	-2.1966552734375E-06	1609.265118937
0.402679443359375	-2.161865234375E-06	1609.30936893688
0.39825439453125	-2.17315673828125E-06	1609.35361893677
0.393829345703125	-2.1771240234375E-06	1609.39786893666
0.389404296875	-2.23297119140625E-06	1609.44211893655
0.384979248046875	-2.21038818359375E-06	1609.48636893644
0.38055419921875	-2.236328125E-06	1609.53061893633
0.376129150390625	-2.2271728515625E-06	1609.57486893621
0.3717041015625	-2.252197265625E-06	1609.6191189361
0.367279052734375	-2.23052978515625E-06	1609.66336893599
0.36285400390625	-2.26287841796875E-06	1609.70761893588
0.358428955078125	-2.28271484375E-06	1609.75186893577
0.35400390625	-2.30072021484375E-06	1609.79611893566
0.349578857421875	-2.25128173828125E-06	1609.84036893554
0.34515380859375	-2.28179931640625E-06	1609.88461893543
0.340728759765625	-2.305908203125E-06	1609.92886893532
0.3363037109375	-2.32330322265625E-06	1609.97311893521
0.331878662109375	-2.2943115234375E-06	1610.0173689351
0.32745361328125	-2.29705810546875E-06	1610.06161893499
0.323028564453125	-2.301025390625E-06	1610.10586893487
0.318603515625	-2.29339599609375E-06	1610.15011893476
0.314178466796875	-2.30133056640625E-06	1610.19436893465
0.30975341796875	-2.2283935546875E-06	1610.23861893454
0.305328369140625	-2.3016357421875E-06	1610.28286893443
0.3009033203125	-2.32421875E-06	1610.32711893431
0.296478271484375	-2.3345947265625E-06	1610.3713689342
0.29205322265625	-2.381591796875E-06	1610.41561893409
0.287628173828125	-2.28546142578125E-06	1610.45986893398
0.283203125	-2.32757568359375E-06	1610.50411893387
0.278778076171875	-2.340087890625E-06	1610.54836893376
0.27435302734375	-2.32330322265625E-06	1610.59261893364
0.269927978515625	-2.33123779296875E-06	1610.63686893353
0.2655029296875	-2.40142822265625E-06	1610.68111893342
0.261077880859375	-2.39013671875E-06	1610.72536893331
0.25665283203125	-2.44659423828125E-06	1610.7696189332
0.252227783203125	-2.42950439453125E-06	1610.81386893309
0.247802734375	-2.437744140625E-06	1610.85811893297
0.243377685546875	-2.425537109375E-06	1610.90236893286
0.23895263671875	-2.54547119140625E-06	1610.94661893275
0.234527587890625	-2.4908447265625E-06	1610.99086893264
0.2301025390625	-2.5311279296875E-06	1611.03511893253
0.225677490234375	-2.54364013671875E-06	1611.07936893242
0.22125244140625	-2.552490234375E-06	1611.1236189323
0.216827392578125	-2.5604248046875E-06	1611.16786893219
0.21240234375	-2.57354736328125E-06	1611.21211893208
0.207977294921875	-2.5994873046875E-06	1611.25636893197
0.20355224609375	-2.61627197265625E-06	1611.30061893186
0.199127197265625	-2.59307861328125E-06	1611.34486893175
0.1947021484375	-2.66937255859375E-06	1611.38911893163
0.190277099609375	-2.66998291015625E-06	1611.43336893152
0.18585205078125	-2.73284912109375E-06	1611.47761893141
0.181427001953125	-2.7276611328125E-06	1611.5218689313
0.177001953125	-2.78076171875E-06	1611.56611893119
0.172576904296875	-2.82318115234375E-06	1611.61036893107
0.16815185546875	-2.9144287109375E-06	1611.65461893096
0.163726806640625	-2.84515380859375E-06	1611.69886893085
0.1593017578125	-2.90496826171875E-06	1611.74311893074
0.154876708984375	-2.91046142578125E-06	1611.78736893063
0.15045166015625	-2.939453125E-06	1611.83161893052
0.146026611328125	-3.02734375E-06	1611.8758689304
0.1416015625	-3.02764892578125E-06	1611.92011893029
0.137176513671875	-3.0902099609375E-06	1611.96436893018
0.13275146484375	-3.22174072265625E-06	1612.00861893007
0.128326416015625	-3.26263427734375E-06	1612.05286892996
0.1239013671875	-3.32855224609375E-06	1612.09711892985
0.119476318359375	-3.4381103515625E-06	1612.14136892973
0.11505126953125	-3.54949951171875E-06	1612.18561892962
0.110626220703125	-3.603515625E-06	1612.22986892951
0.106201171875	-3.68804931640625E-06	1612.2741189294
0.101776123046875	-3.89007568359375E-06	1612.31836892929
0.09735107421875	-4.0972900390625E-06	1612.36261892918
0.092926025390625	-4.19891357421875E-06	1612.40686892906
0.0885009765625	-4.3841552734375E-06	1612.45111892895
0.084075927734375	-4.50897216796875E-06	1612.49536892884
0.07965087890625	-4.63592529296875E-06	1612.53961892873
0.075225830078125	-4.6844482421875E-06	1612.58386892862
0.07080078125	-4.82513427734375E-06	1612.62811892851
0.066375732421875	-4.884033203125E-06	1612.67236892839
0.06195068359375	-4.86419677734375E-06	1612.71661892828
0.057525634765625	-4.8858642578125E-06	1612.76086892817
0.0531005859375	-4.910888671875E-06	1612.80511892806
0.048675537109375	-4.81536865234375E-06	1612.84936892795
0.04425048828125	-4.88494873046875E-06	1612.89361892784
0.039825439453125	-4.74578857421875E-06	1612.93786892772
0.035400390625	-4.69970703125E-06	1612.98211892761
0.030975341796875	-4.77325439453125E-06	1613.0263689275
0.02655029296875	-4.6868896484375E-06	1613.07061892739
0.022125244140625	-4.68597412109375E-06	1613.11486892728
0.0177001953125	-4.6173095703125E-06	1613.15911892716
0.013275146484375	-4.7698974609375E-06	1613.20336892705
0.00885009765625	-4.65179443359375E-06	1613.24761892694
0.004425048828125	-4.70855712890625E-06	1613.29186892683
0	-4.77447509765625E-06	1613.33611892672
0.004425048828125	-3.15643310546875E-06	1613.38036892661
0.00885009765625	-2.41180419921875E-06	1613.42461892649
0.013275146484375	-1.90216064453125E-06	1613.46886892638
0.0177001953125	-1.47705078125E-06	1613.51311892627
0.022125244140625	-1.21429443359375E-06	1613.55736892616
0.02655029296875	-9.796142578125E-07	1613.60161892605
0.030975341796875	-7.7789306640625E-07	1613.64586892594
0.035400390625	-5.2276611328125E-07	1613.69011892582
0.039825439453125	-3.9886474609375E-07	1613.73436892571
0.04425048828125	-1.190185546875E-07	1613.7786189256
0.048675537109375	-5.523681640625E-08	1613.82286892549
0.0531005859375	-1.89208984375E-08	1613.86711892538
0.057525634765625	1.18408203125E-07	1613.91136892527
0.06195068359375	2.838134765625E-07	1613.95561892515
0.066375732421875	4.1412353515625E-07	1613.99986892504
0.07080078125	4.6600341796875E-07	1614.04411892493
0.075225830078125	5.9844970703125E-07	1614.08836892482
0.07965087890625	6.3201904296875E-07	1614.13261892471
0.084075927734375	8.4014892578125E-07	1614.1768689246
0.0885009765625	8.77685546875E-07	1614.22111892448
0.092926025390625	9.8388671875E-07	1614.26536892437
0.09735107421875	1.06658935546875E-06	1614.30961892426
0.101776123046875	1.10504150390625E-06	1614.35386892415
0.106201171875	1.21063232421875E-06	1614.39811892404
0.110626220703125	1.304931640625E-06	1614.44236892392
0.11505126953125	1.3140869140625E-06	1614.48661892381
0.119476318359375	1.30462646484375E-06	1614.5308689237
0.1239013671875	1.4031982421875E-06	1614.57511892359
0.128326416015625	1.3775634765625E-06	1614.61936892348
0.13275146484375	1.4630126953125E-06	1614.66361892337
0.137176513671875	1.4239501953125E-06	1614.70786892325
0.1416015625	1.456298828125E-06	1614.75211892314
0.146026611328125	1.46697998046875E-06	1614.79636892303
0.15045166015625	1.53961181640625E-06	1614.84061892292
0.154876708984375	1.400146484375E-06	1614.88486892281
0.1593017578125	1.44927978515625E-06	1614.9291189227
0.163726806640625	1.4990234375E-06	1614.97336892258
0.16815185546875	1.47735595703125E-06	1615.01761892247
0.172576904296875	1.475830078125E-06	1615.06186892236
0.177001953125	1.47216796875E-06	1615.10611892225
0.181427001953125	1.4422607421875E-06	1615.15036892214
0.18585205078125	1.42303466796875E-06	1615.19461892203
0.190277099609375	1.4910888671875E-06	1615.23886892191
0.1947021484375	1.480712890625E-06	1615.2831189218
0.199127197265625	1.531982421875E-06	1615.32736892169
0.20355224609375	1.48712158203125E-06	1615.37161892158
0.207977294921875	1.513671875E-06	1615.41586892147
0.21240234375	1.4495849609375E-06	1615.46011892136
0.216827392578125	1.4447021484375E-06	1615.50436892124
0.22125244140625	1.60125732421875E-06	1615.54861892113
0.225677490234375	1.5606689453125E-06	1615.59286892102
0.2301025390625	1.57623291015625E-06	1615.63711892091
0.234527587890625	1.5814208984375E-06	1615.6813689208
0.23895263671875	1.54632568359375E-06	1615.72561892069
0.243377685546875	1.54937744140625E-06	1615.76986892057
0.247802734375	1.61590576171875E-06	1615.81411892046
0.252227783203125	1.5313720703125E-06	1615.85836892035
0.25665283203125	1.60614013671875E-06	1615.90261892024
0.261077880859375	1.58050537109375E-06	1615.94686892013
0.2655029296875	1.5533447265625E-06	1615.99111892001
0.269927978515625	1.60308837890625E-06	1616.0353689199
0.27435302734375	1.5557861328125E-06	1616.07961891979
0.278778076171875	1.66015625E-06	1616.12386891968
0.283203125	1.57623291015625E-06	1616.16811891957
0.287628173828125	1.53564453125E-06	1616.21236891946
0.29205322265625	1.6107177734375E-06	1616.25661891934
0.296478271484375	1.6082763671875E-06	1616.30086891923
0.3009033203125	1.56402587890625E-06	1616.34511891912
0.305328369140625	1.63726806640625E-06	1616.38936891901
0.30975341796875	1.65557861328125E-06	1616.4336189189
0.314178466796875	1.593017578125E-06	1616.47786891879
0.318603515625	1.66656494140625E-06	1616.52211891867
0.323028564453125	1.63543701171875E-06	1616.56636891856
0.32745361328125	1.64947509765625E-06	1616.61061891845
0.331878662109375	1.673583984375E-06	1616.65486891834
0.3363037109375	1.71478271484375E-06	1616.69911891823
0.340728759765625	1.7742919921875E-06	1616.74336891812
0.34515380859375	1.766357421875E-06	1616.787618918
0.349578857421875	1.77276611328125E-06	1616.83186891789
0.35400390625	1.79351806640625E-06	1616.87611891778
0.358428955078125	1.84112548828125E-06	1616.92036891767
0.36285400390625	1.81182861328125E-06	1616.96461891756
0.367279052734375	1.81976318359375E-06	1617.00886891744
0.3717041015625	1.8707275390625E-06	1617.05311891733
0.376129150390625	1.8585205078125E-06	1617.09736891722
0.38055419921875	1.966552734375E-06	1617.14161891711
0.384979248046875	1.884765625E-06	1617.185868917
0.389404296875	1.87957763671875E-06	1617.23011891689
0.393829345703125	1.9171142578125E-06	1617.27436891677
0.39825439453125	1.89361572265625E-06	1617.31861891666
0.402679443359375	1.92535400390625E-06	1617.36286891655
0.4071044921875	1.978759765625E-06	1617.40711891644
0.411529541015625	1.93634033203125E-06	1617.45136891633
0.41595458984375	1.9677734375E-06	1617.49561891622
0.420379638671875	1.9927978515625E-06	1617.5398689161
0.4248046875	2.04833984375E-06	1617.58411891599
0.429229736328125	2.02056884765625E-06	1617.62836891588
0.43365478515625	2.09442138671875E-06	1617.67261891577
0.438079833984375	2.04925537109375E-06	1617.71686891566
0.4425048828125	2.1014404296875E-06	1617.76111891555
0.446929931640625	2.12371826171875E-06	1617.80536891543
0.45135498046875	2.1160888671875E-06	1617.84961891532
0.455780029296875	2.2369384765625E-06	1617.89386891521
0.460205078125	2.18505859375E-06	1617.9381189151
0.464630126953125	2.1966552734375E-06	1617.98236891499
0.46905517578125	2.29461669921875E-06	1618.02661891488
0.473480224609375	2.3492431640625E-06	1618.07086891476
0.4779052734375	2.415771484375E-06	1618.11511891465
0.482330322265625	2.34619140625E-06	1618.15936891454
0.48675537109375	2.3028564453125E-06	1618.20361891443
0.491180419921875	2.39044189453125E-06	1618.24786891432
0.49560546875	2.490234375E-06	1618.29211891421
0.500030517578125	2.51190185546875E-06	1618.33636891409
0.50445556640625	2.58331298828125E-06	1618.38061891398
0.508880615234375	2.5665283203125E-06	1618.42486891387
0.5133056640625	2.5567626953125E-06	1618.46911891376
0.517730712890625	2.6239013671875E-06	1618.51336891365
0.52215576171875	2.70782470703125E-06	1618.55761891353
0.526580810546875	2.7557373046875E-06	1618.60186891342
0.531005859375	2.80975341796875E-06	1618.64611891331
0.535430908203125	2.85919189453125E-06	1618.6903689132
0.53985595703125	2.8948974609375E-06	1618.73461891309
0.544281005859375	2.9571533203125E-06	1618.77886891298
0.5487060546875	2.9931640625E-06	1618.82311891286
0.553131103515625	3.07891845703125E-06	1618.86736891275
0.55755615234375	3.1048583984375E-06	1618.91161891264
0.561981201171875	3.206787109375E-06	1618.95586891253
0.56640625	3.25775146484375E-06	1619.00011891242
0.570831298828125	3.27850341796875E-06	1619.04436891231
0.57525634765625	3.1427001953125E-06	1619.08861891219
0.579681396484375	3.4051513671875E-06	1619.13286891208
0.5841064453125	3.51593017578125E-06	1619.17711891197
0.588531494140625	3.494873046875E-06	1619.22136891186
0.59295654296875	3.6016845703125E-06	1619.26561891175
0.597381591796875	3.66943359375E-06	1619.30986891164
0.601806640625	3.74053955078125E-06	1619.35411891152
0.606231689453125	3.846435546875E-06	1619.39836891141
0.61065673828125	3.91021728515625E-06	1619.4426189113
0.615081787109375	4.0234375E-06	1619.48686891119
0.6195068359375	4.10064697265625E-06	1619.53111891108
0.623931884765625	4.1729736328125E-06	1619.57536891097
0.62835693359375	4.23797607421875E-06	1619.61961891085
0.632781982421875	4.24957275390625E-06	1619.66386891074
0.63720703125	4.4793701171875E-06	1619.70811891063
0.641632080078125	4.59259033203125E-06	1619.75236891052
0.64605712890625	4.635009765625E-06	1619.79661891041
0.650482177734375	4.8394775390625E-06	1619.84086891029
0.6549072265625	4.930419921875E-06	1619.88511891018
0.659332275390625	4.96124267578125E-06	1619.92936891007
0.66375732421875	5.15594482421875E-06	1619.97361890996
0.668182373046875	5.26123046875E-06	1620.01786890985
0.672607421875	5.38726806640625E-06	1620.06211890974
0.677032470703125	5.545654296875E-06	1620.10636890962
0.68145751953125	5.7330322265625E-06	1620.15061890951
0.685882568359375	5.877685546875E-06	1620.1948689094
0.6903076171875	6.04949951171875E-06	1620.23911890929
0.694732666015625	6.23779296875E-06	1620.28336890918
0.69915771484375	6.3629150390625E-06	1620.32761890907
0.703582763671875	6.6192626953125E-06	1620.37186890895
0.69915771484375	4.3731689453125E-06	1620.41611890884
0.694732666015625	3.23333740234375E-06	1620.46036890873
0.6903076171875	2.3553466796875E-06	1620.50461890862
0.685882568359375	1.83135986328125E-06	1620.54886890851
0.68145751953125	1.33331298828125E-06	1620.5931189084
0.677032470703125	9.3963623046875E-07	1620.63736890828
0.672607421875	5.6182861328125E-07	1620.68161890817
0.668182373046875	2.5634765625E-07	1620.72586890806
0.66375732421875	9.33837890625E-08	1620.77011890795
0.659332275390625	-2.1759033203125E-07	1620.81436890784
0.6549072265625	-3.985595703125E-07	1620.85861890773
0.650482177734375	-5.84716796875E-07	1620.90286890761
0.64605712890625	-7.049560546875E-07	1620.9471189075
0.641632080078125	-8.75244140625E-07	1620.99136890739
0.63720703125	-9.99755859375E-07	1621.03561890728
0.632781982421875	-1.10565185546875E-06	1621.07986890717
0.62835693359375	-1.3470458984375E-06	1621.12411890706
0.623931884765625	-1.27960205078125E-06	1621.16836890694
0.6195068359375	-1.31103515625E-06	1621.21261890683
0.615081787109375	-1.35467529296875E-06	1621.25686890672
0.61065673828125	-1.4739990234375E-06	1621.30111890661
0.606231689453125	-1.56219482421875E-06	1621.3453689065
0.601806640625	-1.55853271484375E-06	1621.38961890638
0.597381591796875	-1.663818359375E-06	1621.43386890627
0.59295654296875	-1.63055419921875E-06	1621.47811890616
0.588531494140625	-1.76910400390625E-06	1621.52236890605
0.5841064453125	-1.78955078125E-06	1621.56661890594
0.579681396484375	-1.72637939453125E-06	1621.61086890583
0.57525634765625	-1.7620849609375E-06	1621.65511890571
0.570831298828125	-1.8365478515625E-06	1621.6993689056
0.56640625	-1.8408203125E-06	1621.74361890549
0.561981201171875	-1.89727783203125E-06	1621.78786890538
0.55755615234375	-1.88751220703125E-06	1621.83211890527
0.553131103515625	-1.9427490234375E-06	1621.87636890516
0.5487060546875	-1.9482421875E-06	1621.92061890504
0.544281005859375	-1.94610595703125E-06	1621.96486890493
0.53985595703125	-1.988525390625E-06	1622.00911890482
0.535430908203125	-1.99951171875E-06	1622.05336890471
0.531005859375	-2.01873779296875E-06	1622.0976189046
0.526580810546875	-2.1014404296875E-06	1622.14186890449
0.52215576171875	-2.08099365234375E-06	1622.18611890437
0.517730712890625	-2.1142578125E-06	1622.23036890426
0.5133056640625	-2.06146240234375E-06	1622.27461890415
0.508880615234375	-2.0660400390625E-06	1622.31886890404
0.50445556640625	-2.1563720703125E-06	1622.36311890393
0.500030517578125	-2.08038330078125E-06	1622.40736890382
0.49560546875	-2.07061767578125E-06	1622.4516189037
0.491180419921875	-2.10479736328125E-06	1622.49586890359
0.48675537109375	-2.16705322265625E-06	1622.54011890348
0.482330322265625	-2.13836669921875E-06	1622.58436890337
0.4779052734375	-2.139892578125E-06	1622.62861890326
0.473480224609375	-2.1392822265625E-06	1622.67286890314
0.46905517578125	-2.1405029296875E-06	1622.71711890303
0.464630126953125	-2.17315673828125E-06	1622.76136890292
0.460205078125	-2.205810546875E-06	1622.80561890281
0.455780029296875	-2.16552734375E-06	1622.8498689027
0.45135498046875	-2.159423828125E-06	1622.89411890259
0.446929931640625	-2.18475341796875E-06	1622.93836890247
0.4425048828125	-2.13897705078125E-06	1622.98261890236
0.438079833984375	-2.2027587890625E-06	1623.02686890225
0.43365478515625	-2.11273193359375E-06	1623.07111890214
0.429229736328125	-2.20367431640625E-06	1623.11536890203
0.4248046875	-2.2021484375E-06	1623.15961890192
0.420379638671875	-2.19970703125E-06	1623.2038689018
0.41595458984375	-2.20489501953125E-06	1623.24811890169
0.411529541015625	-2.17376708984375E-06	1623.29236890158
0.4071044921875	-2.21954345703125E-06	1623.33661890147
0.402679443359375	-2.1954345703125E-06	1623.38086890136
0.39825439453125	-2.22198486328125E-06	1623.42511890125
0.393829345703125	-2.1990966796875E-06	1623.46936890113
0.389404296875	-2.213134765625E-06	1623.51361890102
0.384979248046875	-2.20947265625E-06	1623.55786890091
0.38055419921875	-2.28057861328125E-06	1623.6021189008
0.376129150390625	-2.2467041015625E-06	1623.64636890069
0.3717041015625	-2.30010986328125E-06	1623.69061890058
0.367279052734375	-2.305908203125E-06	1623.73486890046
0.36285400390625	-2.3065185546875E-06	1623.77911890035
0.358428955078125	-2.27325439453125E-06	1623.82336890024
0.35400390625	-2.2491455078125E-06	1623.86761890013
0.349578857421875	-2.298583984375E-06	1623.91186890002
0.34515380859375	-2.24395751953125E-06	1623.95611889991
0.340728759765625	-2.3046875E-06	1624.00036889979
0.3363037109375	-2.36541748046875E-06	1624.04461889968
0.331878662109375	-2.29766845703125E-06	1624.08886889957
0.32745361328125	-2.1783447265625E-06	1624.13311889946
0.323028564453125	-2.2650146484375E-06	1624.17736889935
0.318603515625	-2.36358642578125E-06	1624.22161889923
0.314178466796875	-2.3236083984375E-06	1624.26586889912
0.30975341796875	-2.3565673828125E-06	1624.31011889901
0.305328369140625	-2.274169921875E-06	1624.3543688989
0.3009033203125	-2.31597900390625E-06	1624.39861889879
0.296478271484375	-2.3388671875E-06	1624.44286889868
0.29205322265625	-2.36724853515625E-06	1624.48711889856
0.287628173828125	-2.29949951171875E-06	1624.53136889845
0.283203125	-2.25372314453125E-06	1624.57561889834
0.278778076171875	-2.33978271484375E-06	1624.61986889823
0.27435302734375	-2.33612060546875E-06	1624.66411889812
0.269927978515625	-2.31903076171875E-06	1624.70836889801
0.2655029296875	-2.3590087890625E-06	1624.75261889789
0.261077880859375	-2.3406982421875E-06	1624.79686889778
0.25665283203125	-2.3748779296875E-06	1624.84111889767
0.252227783203125	-2.40447998046875E-06	1624.88536889756
0.247802734375	-2.45208740234375E-06	1624.92961889745
0.243377685546875	-2.43255615234375E-06	1624.97386889734
0.23895263671875	-2.39471435546875E-06	1625.01811889722
0.234527587890625	-2.44140625E-06	1625.06236889711
0.2301025390625	-2.5335693359375E-06	1625.106618897
0.225677490234375	-2.48138427734375E-06	1625.15086889689
0.22125244140625	-2.470703125E-06	1625.19511889678
0.216827392578125	-2.5640869140625E-06	1625.23936889666
0.21240234375	-2.5372314453125E-06	1625.28361889655
0.207977294921875	-2.63031005859375E-06	1625.32786889644
0.20355224609375	-2.57568359375E-06	1625.37211889633
0.199127197265625	-2.61444091796875E-06	1625.41636889622
0.1947021484375	-2.7069091796875E-06	1625.46061889611
0.190277099609375	-2.6983642578125E-06	1625.50486889599
0.18585205078125	-2.68798828125E-06	1625.54911889588
0.181427001953125	-2.71484375E-06	1625.59336889577
0.177001953125	-2.78411865234375E-06	1625.63761889566
0.172576904296875	-2.8173828125E-06	1625.68186889555
0.16815185546875	-2.85888671875E-06	1625.72611889544
0.163726806640625	-2.8179931640625E-06	1625.77036889532
0.1593017578125	-2.90191650390625E-06	1625.81461889521
0.154876708984375	-2.92633056640625E-06	1625.8588688951
0.15045166015625	-2.96234130859375E-06	1625.90311889499
0.146026611328125	-3.09600830078125E-06	1625.94736889488
0.1416015625	-3.10516357421875E-06	1625.99161889477
0.137176513671875	-3.0908203125E-06	1626.03586889465
0.13275146484375	-3.16131591796875E-06	1626.08011889454
0.128326416015625	-3.233642578125E-06	1626.12436889443
0.1239013671875	-3.3489990234375E-06	1626.16861889432
0.119476318359375	-3.41827392578125E-06	1626.21286889421
0.11505126953125	-3.51104736328125E-06	1626.2571188941
0.110626220703125	-3.646240234375E-06	1626.30136889398
0.106201171875	-3.78326416015625E-06	1626.34561889387
0.101776123046875	-3.84857177734375E-06	1626.38986889376
0.09735107421875	-4.07958984375E-06	1626.43411889365
0.092926025390625	-4.24407958984375E-06	1626.47836889354
0.0885009765625	-4.3701171875E-06	1626.52261889343
0.084075927734375	-4.54071044921875E-06	1626.56686889331
0.07965087890625	-4.561767578125E-06	1626.6111188932
0.075225830078125	-4.68231201171875E-06	1626.65536889309
0.07080078125	-4.8101806640625E-06	1626.69961889298
0.066375732421875	-4.90020751953125E-06	1626.74386889287
0.06195068359375	-4.83306884765625E-06	1626.78811889275
0.057525634765625	-4.8675537109375E-06	1626.83236889264
0.0531005859375	-4.79644775390625E-06	1626.87661889253
0.048675537109375	-4.8907470703125E-06	1626.92086889242
0.04425048828125	-4.7747802734375E-06	1626.96511889231
0.039825439453125	-4.73419189453125E-06	1627.0093688922
0.035400390625	-4.7393798828125E-06	1627.05361889208
0.030975341796875	-4.7174072265625E-06	1627.09786889197
0.02655029296875	-4.65484619140625E-06	1627.14211889186
0.022125244140625	-4.68475341796875E-06	1627.18636889175
0.0177001953125	-4.7015380859375E-06	1627.23061889164
0.013275146484375	-4.73114013671875E-06	1627.27486889153
0.00885009765625	-4.7314453125E-06	1627.31911889141
0.004425048828125	-4.71160888671875E-06	1627.3633688913
0	-4.749755859375E-06	1627.40761889119
0.004425048828125	-3.165283203125E-06	1627.45186889108
0.00885009765625	-2.2967529296875E-06	1627.49611889097
0.013275146484375	-1.95892333984375E-06	1627.54036889086
