Potential applied (V)	WE(1).Current (A)	Time (s)
0.004425048828125	-1.768798828125E-06	1651.90665582934
0.00885009765625	4.296875E-07	1651.9214058293
0.013275146484375	1.54083251953125E-06	1651.93615582926
0.0177001953125	2.20123291015625E-06	1651.95090582922
0.022125244140625	2.8350830078125E-06	1651.96565582919
0.02655029296875	3.1103515625E-06	1651.98040582915
0.030975341796875	3.55712890625E-06	1651.99515582911
0.035400390625	3.88031005859375E-06	1652.00990582908
0.039825439453125	3.77410888671875E-06	1652.02465582904
0.04425048828125	4.16961669921875E-06	1652.039405829
0.048675537109375	4.34600830078125E-06	1652.05415582896
0.0531005859375	4.72198486328125E-06	1652.06890582893
0.057525634765625	4.59503173828125E-06	1652.08365582889
0.06195068359375	4.88861083984375E-06	1652.09840582885
0.066375732421875	5.15655517578125E-06	1652.11315582882
0.07080078125	5.25421142578125E-06	1652.12790582878
0.075225830078125	5.4156494140625E-06	1652.14265582874
0.07965087890625	5.44219970703125E-06	1652.1574058287
0.084075927734375	5.435791015625E-06	1652.17215582867
0.0885009765625	5.6707763671875E-06	1652.18690582863
0.092926025390625	6.02020263671875E-06	1652.20165582859
0.09735107421875	6.0760498046875E-06	1652.21640582855
0.101776123046875	6.1248779296875E-06	1652.23115582852
0.106201171875	6.2835693359375E-06	1652.24590582848
0.110626220703125	6.427001953125E-06	1652.26065582844
0.11505126953125	6.4300537109375E-06	1652.27540582841
0.119476318359375	6.585693359375E-06	1652.29015582837
0.1239013671875	6.6009521484375E-06	1652.30490582833
0.128326416015625	6.610107421875E-06	1652.31965582829
0.13275146484375	6.7901611328125E-06	1652.33440582826
0.137176513671875	6.8634033203125E-06	1652.34915582822
0.1416015625	6.768798828125E-06	1652.36390582818
0.146026611328125	6.842041015625E-06	1652.37865582814
0.15045166015625	6.9000244140625E-06	1652.39340582811
0.154876708984375	6.8603515625E-06	1652.40815582807
0.1593017578125	6.9610595703125E-06	1652.42290582803
0.163726806640625	6.9061279296875E-06	1652.437655828
0.16815185546875	7.0098876953125E-06	1652.45240582796
0.172576904296875	6.8084716796875E-06	1652.46715582792
0.177001953125	6.8267822265625E-06	1652.48190582788
0.181427001953125	6.781005859375E-06	1652.49665582785
0.18585205078125	6.6314697265625E-06	1652.51140582781
0.190277099609375	6.79931640625E-06	1652.52615582777
0.1947021484375	6.7108154296875E-06	1652.54090582774
0.199127197265625	6.7169189453125E-06	1652.5556558277
0.20355224609375	6.7962646484375E-06	1652.57040582766
0.207977294921875	6.8511962890625E-06	1652.58515582762
0.21240234375	6.8023681640625E-06	1652.59990582759
0.216827392578125	6.6558837890625E-06	1652.61465582755
0.22125244140625	6.7047119140625E-06	1652.62940582751
0.225677490234375	6.756591796875E-06	1652.64415582747
0.2301025390625	6.8115234375E-06	1652.65890582744
0.234527587890625	6.8206787109375E-06	1652.6736558274
0.23895263671875	6.6986083984375E-06	1652.68840582736
0.243377685546875	6.5673828125E-06	1652.70315582733
0.247802734375	6.463623046875E-06	1652.71790582729
0.252227783203125	6.494140625E-06	1652.73265582725
0.25665283203125	6.6864013671875E-06	1652.74740582721
0.261077880859375	6.591796875E-06	1652.76215582718
0.2655029296875	6.5521240234375E-06	1652.77690582714
0.269927978515625	6.5399169921875E-06	1652.7916558271
0.27435302734375	6.6253662109375E-06	1652.80640582706
0.278778076171875	6.689453125E-06	1652.82115582703
0.283203125	6.427001953125E-06	1652.83590582699
0.287628173828125	6.5032958984375E-06	1652.85065582695
0.29205322265625	6.4727783203125E-06	1652.86540582692
0.296478271484375	6.6314697265625E-06	1652.88015582688
0.3009033203125	6.634521484375E-06	1652.89490582684
0.305328369140625	6.512451171875E-06	1652.9096558268
0.30975341796875	6.5155029296875E-06	1652.92440582677
0.314178466796875	6.475830078125E-06	1652.93915582673
0.318603515625	6.6131591796875E-06	1652.95390582669
0.323028564453125	6.7626953125E-06	1652.96865582666
0.32745361328125	6.6131591796875E-06	1652.98340582662
0.331878662109375	6.585693359375E-06	1652.99815582658
0.3363037109375	7.0343017578125E-06	1653.01290582654
0.340728759765625	6.87255859375E-06	1653.02765582651
0.34515380859375	6.7413330078125E-06	1653.04240582647
0.349578857421875	6.75048828125E-06	1653.05715582643
0.35400390625	6.6650390625E-06	1653.07190582639
0.358428955078125	6.8084716796875E-06	1653.08665582636
0.36285400390625	6.964111328125E-06	1653.10140582632
0.367279052734375	6.866455078125E-06	1653.11615582628
0.3717041015625	6.9122314453125E-06	1653.13090582625
0.376129150390625	7.09228515625E-06	1653.14565582621
0.38055419921875	7.1563720703125E-06	1653.16040582617
0.384979248046875	7.257080078125E-06	1653.17515582613
0.389404296875	7.3974609375E-06	1653.1899058261
0.393829345703125	7.0892333984375E-06	1653.20465582606
0.39825439453125	7.1533203125E-06	1653.21940582602
0.402679443359375	7.2052001953125E-06	1653.23415582598
0.4071044921875	7.38525390625E-06	1653.24890582595
0.411529541015625	7.2540283203125E-06	1653.26365582591
0.41595458984375	7.501220703125E-06	1653.27840582587
0.420379638671875	7.3699951171875E-06	1653.29315582584
0.4248046875	7.232666015625E-06	1653.3079058258
0.429229736328125	7.4493408203125E-06	1653.32265582576
0.43365478515625	7.415771484375E-06	1653.33740582572
0.438079833984375	7.3699951171875E-06	1653.35215582569
0.4425048828125	7.4798583984375E-06	1653.36690582565
0.446929931640625	7.7667236328125E-06	1653.38165582561
0.45135498046875	7.9498291015625E-06	1653.39640582558
0.455780029296875	7.9376220703125E-06	1653.41115582554
0.460205078125	8.14208984375E-06	1653.4259058255
0.464630126953125	8.160400390625E-06	1653.44065582546
0.46905517578125	8.197021484375E-06	1653.45540582543
0.473480224609375	8.3282470703125E-06	1653.47015582539
0.4779052734375	8.09326171875E-06	1653.48490582535
0.482330322265625	8.36181640625E-06	1653.49965582531
0.48675537109375	8.3770751953125E-06	1653.51440582528
0.491180419921875	8.5540771484375E-06	1653.52915582524
0.49560546875	8.5479736328125E-06	1653.5439058252
0.500030517578125	8.6944580078125E-06	1653.55865582517
0.50445556640625	8.795166015625E-06	1653.57340582513
0.508880615234375	8.8897705078125E-06	1653.58815582509
0.5133056640625	9.0301513671875E-06	1653.60290582505
0.517730712890625	8.856201171875E-06	1653.61765582502
0.52215576171875	8.9447021484375E-06	1653.63240582498
0.526580810546875	9.063720703125E-06	1653.64715582494
0.531005859375	9.33837890625E-06	1653.66190582491
0.535430908203125	9.4879150390625E-06	1653.67665582487
0.53985595703125	9.7015380859375E-06	1653.69140582483
0.544281005859375	9.8175048828125E-06	1653.70615582479
0.5487060546875	1.0009765625E-05	1653.72090582476
0.553131103515625	9.9090576171875E-06	1653.73565582472
0.55755615234375	1.0235595703125E-05	1653.75040582468
0.561981201171875	1.03424072265625E-05	1653.76515582464
0.56640625	1.05255126953125E-05	1653.77990582461
0.570831298828125	1.05560302734375E-05	1653.79465582457
0.57525634765625	1.070556640625E-05	1653.80940582453
0.579681396484375	1.09100341796875E-05	1653.8241558245
0.5841064453125	1.10504150390625E-05	1653.83890582446
0.588531494140625	1.11907958984375E-05	1653.85365582442
0.59295654296875	1.13616943359375E-05	1653.86840582438
0.597381591796875	1.16943359375E-05	1653.88315582435
0.601806640625	1.16912841796875E-05	1653.89790582431
0.606231689453125	1.1968994140625E-05	1653.91265582427
0.61065673828125	1.23748779296875E-05	1653.92740582423
0.615081787109375	1.263427734375E-05	1653.9421558242
0.6195068359375	1.251220703125E-05	1653.95690582416
0.623931884765625	1.28265380859375E-05	1653.97165582412
0.62835693359375	1.3165283203125E-05	1653.98640582409
0.632781982421875	1.3323974609375E-05	1654.00115582405
0.63720703125	1.35009765625E-05	1654.01590582401
0.641632080078125	1.38336181640625E-05	1654.03065582397
0.64605712890625	1.3909912109375E-05	1654.04540582394
0.650482177734375	1.42486572265625E-05	1654.0601558239
0.6549072265625	1.46636962890625E-05	1654.07490582386
0.659332275390625	1.48345947265625E-05	1654.08965582383
0.66375732421875	1.50543212890625E-05	1654.10440582379
0.668182373046875	1.52740478515625E-05	1654.11915582375
0.672607421875	1.572265625E-05	1654.13390582371
0.677032470703125	1.61651611328125E-05	1654.14865582368
0.68145751953125	1.6534423828125E-05	1654.16340582364
0.685882568359375	1.6748046875E-05	1654.1781558236
0.6903076171875	1.71112060546875E-05	1654.19290582356
0.694732666015625	1.74896240234375E-05	1654.20765582353
0.69915771484375	1.7718505859375E-05	1654.22240582349
0.703582763671875	1.82342529296875E-05	1654.23715582345
0.69915771484375	9.3963623046875E-06	1654.25190582342
0.694732666015625	6.0333251953125E-06	1654.26665582338
0.6903076171875	4.168701171875E-06	1654.28140582334
0.685882568359375	2.5262451171875E-06	1654.2961558233
0.68145751953125	1.134033203125E-06	1654.31090582327
0.677032470703125	2.471923828125E-07	1654.32565582323
0.672607421875	-3.7384033203125E-07	1654.34040582319
0.668182373046875	-1.15936279296875E-06	1654.35515582315
0.66375732421875	-1.6143798828125E-06	1654.36990582312
0.659332275390625	-1.97540283203125E-06	1654.38465582308
0.6549072265625	-2.54486083984375E-06	1654.39940582304
0.650482177734375	-3.13323974609375E-06	1654.41415582301
0.64605712890625	-3.35296630859375E-06	1654.42890582297
0.641632080078125	-3.58642578125E-06	1654.44365582293
0.63720703125	-4.0740966796875E-06	1654.45840582289
0.632781982421875	-4.29168701171875E-06	1654.47315582286
0.62835693359375	-4.32220458984375E-06	1654.48790582282
0.623931884765625	-4.6551513671875E-06	1654.50265582278
0.6195068359375	-4.83001708984375E-06	1654.51740582275
0.615081787109375	-5.14251708984375E-06	1654.53215582271
0.61065673828125	-5.155029296875E-06	1654.54690582267
0.606231689453125	-5.34271240234375E-06	1654.56165582263
0.601806640625	-5.5499267578125E-06	1654.5764058226
0.597381591796875	-5.57861328125E-06	1654.59115582256
0.59295654296875	-5.66253662109375E-06	1654.60590582252
0.588531494140625	-5.98388671875E-06	1654.62065582248
0.5841064453125	-6.06597900390625E-06	1654.63540582245
0.579681396484375	-6.0089111328125E-06	1654.65015582241
0.57525634765625	-5.780029296875E-06	1654.66490582237
0.570831298828125	-5.987548828125E-06	1654.67965582234
0.56640625	-6.0516357421875E-06	1654.6944058223
0.561981201171875	-6.2469482421875E-06	1654.70915582226
0.55755615234375	-6.26220703125E-06	1654.72390582222
0.553131103515625	-6.34765625E-06	1654.73865582219
0.5487060546875	-6.40869140625E-06	1654.75340582215
0.544281005859375	-6.4727783203125E-06	1654.76815582211
0.53985595703125	-6.4239501953125E-06	1654.78290582207
0.535430908203125	-6.4788818359375E-06	1654.79765582204
0.531005859375	-6.524658203125E-06	1654.812405822
0.526580810546875	-6.3690185546875E-06	1654.82715582196
0.52215576171875	-6.646728515625E-06	1654.84190582193
0.517730712890625	-6.5887451171875E-06	1654.85665582189
0.5133056640625	-6.6253662109375E-06	1654.87140582185
0.508880615234375	-6.5521240234375E-06	1654.88615582181
0.50445556640625	-6.4483642578125E-06	1654.90090582178
0.500030517578125	-6.7169189453125E-06	1654.91565582174
0.49560546875	-6.6070556640625E-06	1654.9304058217
0.491180419921875	-6.671142578125E-06	1654.94515582167
0.48675537109375	-6.4788818359375E-06	1654.95990582163
0.482330322265625	-6.93359375E-06	1654.97465582159
0.4779052734375	-6.84814453125E-06	1654.98940582155
0.473480224609375	-6.67724609375E-06	1655.00415582152
0.46905517578125	-6.7413330078125E-06	1655.01890582148
0.464630126953125	-6.5277099609375E-06	1655.03365582144
0.460205078125	-6.7626953125E-06	1655.0484058214
0.455780029296875	-6.689453125E-06	1655.06315582137
0.45135498046875	-6.6680908203125E-06	1655.07790582133
0.446929931640625	-6.646728515625E-06	1655.09265582129
0.4425048828125	-6.610107421875E-06	1655.10740582126
0.438079833984375	-6.82373046875E-06	1655.12215582122
0.43365478515625	-6.9549560546875E-06	1655.13690582118
0.429229736328125	-6.87255859375E-06	1655.15165582114
0.4248046875	-6.6497802734375E-06	1655.16640582111
0.420379638671875	-6.719970703125E-06	1655.18115582107
0.41595458984375	-6.7596435546875E-06	1655.19590582103
0.411529541015625	-6.8359375E-06	1655.21065582099
0.4071044921875	-6.7047119140625E-06	1655.22540582096
0.402679443359375	-6.6558837890625E-06	1655.24015582092
0.39825439453125	-6.8511962890625E-06	1655.25490582088
0.393829345703125	-6.92138671875E-06	1655.26965582085
0.389404296875	-6.9183349609375E-06	1655.28440582081
0.384979248046875	-6.8878173828125E-06	1655.29915582077
0.38055419921875	-6.93359375E-06	1655.31390582073
0.376129150390625	-6.8023681640625E-06	1655.3286558207
0.3717041015625	-7.12890625E-06	1655.34340582066
0.367279052734375	-7.0037841796875E-06	1655.35815582062
0.36285400390625	-6.9793701171875E-06	1655.37290582059
0.358428955078125	-6.8878173828125E-06	1655.38765582055
0.35400390625	-7.0037841796875E-06	1655.40240582051
0.349578857421875	-7.177734375E-06	1655.41715582047
0.34515380859375	-6.9976806640625E-06	1655.43190582044
0.340728759765625	-7.0831298828125E-06	1655.4466558204
0.3363037109375	-7.1319580078125E-06	1655.46140582036
0.331878662109375	-7.04345703125E-06	1655.47615582032
0.32745361328125	-7.0648193359375E-06	1655.49090582029
0.323028564453125	-7.11669921875E-06	1655.50565582025
0.318603515625	-7.025146484375E-06	1655.52040582021
0.314178466796875	-7.0159912109375E-06	1655.53515582018
0.30975341796875	-6.988525390625E-06	1655.54990582014
0.305328369140625	-7.086181640625E-06	1655.5646558201
0.3009033203125	-7.086181640625E-06	1655.57940582006
0.296478271484375	-6.9000244140625E-06	1655.59415582003
0.29205322265625	-6.9305419921875E-06	1655.60890581999
0.287628173828125	-7.257080078125E-06	1655.62365581995
0.283203125	-7.073974609375E-06	1655.63840581991
0.278778076171875	-7.2052001953125E-06	1655.65315581988
0.27435302734375	-7.14111328125E-06	1655.66790581984
0.269927978515625	-7.1929931640625E-06	1655.6826558198
0.2655029296875	-7.354736328125E-06	1655.69740581977
0.261077880859375	-7.3333740234375E-06	1655.71215581973
0.25665283203125	-7.354736328125E-06	1655.72690581969
0.252227783203125	-7.403564453125E-06	1655.74165581965
0.247802734375	-7.391357421875E-06	1655.75640581962
0.243377685546875	-7.4462890625E-06	1655.77115581958
0.23895263671875	-7.5103759765625E-06	1655.78590581954
0.234527587890625	-7.5836181640625E-06	1655.80065581951
0.2301025390625	-7.659912109375E-06	1655.81540581947
0.225677490234375	-7.6385498046875E-06	1655.83015581943
0.22125244140625	-7.7392578125E-06	1655.84490581939
0.216827392578125	-7.855224609375E-06	1655.85965581936
0.21240234375	-7.879638671875E-06	1655.87440581932
0.207977294921875	-7.8643798828125E-06	1655.88915581928
0.20355224609375	-7.8582763671875E-06	1655.90390581924
0.199127197265625	-7.9925537109375E-06	1655.91865581921
0.1947021484375	-8.1634521484375E-06	1655.93340581917
0.190277099609375	-8.148193359375E-06	1655.94815581913
0.18585205078125	-8.367919921875E-06	1655.9629058191
0.181427001953125	-8.2672119140625E-06	1655.97765581906
0.177001953125	-8.4014892578125E-06	1655.99240581902
0.172576904296875	-8.49609375E-06	1656.00715581898
0.16815185546875	-8.575439453125E-06	1656.02190581895
0.163726806640625	-8.6578369140625E-06	1656.03665581891
0.1593017578125	-8.58154296875E-06	1656.05140581887
0.154876708984375	-8.5845947265625E-06	1656.06615581883
0.15045166015625	-8.734130859375E-06	1656.0809058188
0.146026611328125	-8.978271484375E-06	1656.09565581876
0.1416015625	-8.9630126953125E-06	1656.11040581872
0.137176513671875	-9.08203125E-06	1656.12515581869
0.13275146484375	-9.19189453125E-06	1656.13990581865
0.128326416015625	-9.2864990234375E-06	1656.15465581861
0.1239013671875	-9.417724609375E-06	1656.16940581857
0.119476318359375	-9.716796875E-06	1656.18415581854
0.11505126953125	-9.783935546875E-06	1656.1989058185
0.110626220703125	-9.9273681640625E-06	1656.21365581846
0.106201171875	-1.015625E-05	1656.22840581843
0.101776123046875	-1.04095458984375E-05	1656.24315581839
0.09735107421875	-1.06201171875E-05	1656.25790581835
0.092926025390625	-1.08734130859375E-05	1656.27265581831
0.0885009765625	-1.0992431640625E-05	1656.28740581828
0.084075927734375	-1.16119384765625E-05	1656.30215581824
0.07965087890625	-1.1822509765625E-05	1656.3169058182
0.075225830078125	-1.197509765625E-05	1656.33165581816
0.07080078125	-1.22833251953125E-05	1656.34640581813
0.066375732421875	-1.25946044921875E-05	1656.36115581809
0.06195068359375	-1.3018798828125E-05	1656.37590581805
0.057525634765625	-1.3153076171875E-05	1656.39065581802
0.0531005859375	-1.30615234375E-05	1656.40540581798
0.048675537109375	-1.31805419921875E-05	1656.42015581794
0.04425048828125	-1.33880615234375E-05	1656.4349058179
0.039825439453125	-1.337890625E-05	1656.44965581787
0.035400390625	-1.32904052734375E-05	1656.46440581783
0.030975341796875	-1.32598876953125E-05	1656.47915581779
0.02655029296875	-1.32476806640625E-05	1656.49390581775
0.022125244140625	-1.30584716796875E-05	1656.50865581772
0.0177001953125	-1.3189697265625E-05	1656.52340581768
0.013275146484375	-1.3201904296875E-05	1656.53815581764
0.00885009765625	-1.307373046875E-05	1656.55290581761
0.004425048828125	-1.3134765625E-05	1656.56765581757
0	-1.32476806640625E-05	1656.58240581753
0.004425048828125	-6.7718505859375E-06	1656.59715581749
0.00885009765625	-3.9794921875E-06	1656.61190581746
0.013275146484375	-2.68310546875E-06	1656.62665581742
0.0177001953125	-1.45416259765625E-06	1656.64140581738
0.022125244140625	-9.3719482421875E-07	1656.65615581735
0.02655029296875	-1.28173828125E-07	1656.67090581731
0.030975341796875	3.69873046875E-07	1656.68565581727
0.035400390625	9.3536376953125E-07	1656.70040581723
0.039825439453125	1.26068115234375E-06	1656.7151558172
0.04425048828125	1.61407470703125E-06	1656.72990581716
0.048675537109375	1.92626953125E-06	1656.74465581712
0.0531005859375	2.36175537109375E-06	1656.75940581708
0.057525634765625	2.65594482421875E-06	1656.77415581705
0.06195068359375	2.90863037109375E-06	1656.78890581701
0.066375732421875	3.123779296875E-06	1656.80365581697
0.07080078125	3.297119140625E-06	1656.81840581694
0.075225830078125	3.4619140625E-06	1656.8331558169
0.07965087890625	3.77288818359375E-06	1656.84790581686
0.084075927734375	3.9556884765625E-06	1656.86265581682
0.0885009765625	4.16839599609375E-06	1656.87740581679
0.092926025390625	4.185791015625E-06	1656.89215581675
0.09735107421875	4.4525146484375E-06	1656.90690581671
0.101776123046875	4.7869873046875E-06	1656.92165581667
0.106201171875	4.6673583984375E-06	1656.93640581664
0.110626220703125	5.074462890625E-06	1656.9511558166
0.11505126953125	4.94781494140625E-06	1656.96590581656
0.119476318359375	5.17578125E-06	1656.98065581653
0.1239013671875	5.1788330078125E-06	1656.99540581649
0.128326416015625	5.25665283203125E-06	1657.01015581645
0.13275146484375	5.5474853515625E-06	1657.02490581641
0.137176513671875	5.53955078125E-06	1657.03965581638
0.1416015625	5.4779052734375E-06	1657.05440581634
0.146026611328125	5.50262451171875E-06	1657.0691558163
0.15045166015625	5.51055908203125E-06	1657.08390581627
0.154876708984375	5.51666259765625E-06	1657.09865581623
0.1593017578125	5.46539306640625E-06	1657.11340581619
0.163726806640625	5.51361083984375E-06	1657.12815581615
0.16815185546875	5.589599609375E-06	1657.14290581612
0.172576904296875	5.584716796875E-06	1657.15765581608
0.177001953125	5.6182861328125E-06	1657.17240581604
0.181427001953125	5.56793212890625E-06	1657.187155816
0.18585205078125	5.45806884765625E-06	1657.20190581597
0.190277099609375	5.47119140625E-06	1657.21665581593
0.1947021484375	5.72296142578125E-06	1657.23140581589
0.199127197265625	5.64849853515625E-06	1657.24615581586
0.20355224609375	5.47393798828125E-06	1657.26090581582
0.207977294921875	5.5084228515625E-06	1657.27565581578
0.21240234375	5.5230712890625E-06	1657.29040581574
0.216827392578125	5.78277587890625E-06	1657.30515581571
0.22125244140625	5.611572265625E-06	1657.31990581567
0.225677490234375	5.5474853515625E-06	1657.33465581563
0.2301025390625	5.6732177734375E-06	1657.34940581559
0.234527587890625	5.6463623046875E-06	1657.36415581556
0.23895263671875	5.87127685546875E-06	1657.37890581552
0.243377685546875	5.7354736328125E-06	1657.39365581548
0.247802734375	5.61309814453125E-06	1657.40840581545
0.252227783203125	5.66131591796875E-06	1657.42315581541
0.25665283203125	5.57037353515625E-06	1657.43790581537
0.261077880859375	5.7513427734375E-06	1657.45265581533
0.2655029296875	5.7476806640625E-06	1657.4674058153
0.269927978515625	5.5023193359375E-06	1657.48215581526
0.27435302734375	5.50262451171875E-06	1657.49690581522
0.278778076171875	5.6005859375E-06	1657.51165581519
0.283203125	5.72601318359375E-06	1657.52640581515
0.287628173828125	5.5535888671875E-06	1657.54115581511
0.29205322265625	5.638427734375E-06	1657.55590581507
0.296478271484375	5.5975341796875E-06	1657.57065581504
0.3009033203125	5.75469970703125E-06	1657.585405815
0.305328369140625	5.73822021484375E-06	1657.60015581496
0.30975341796875	5.7781982421875E-06	1657.61490581492
0.314178466796875	5.6890869140625E-06	1657.62965581489
0.318603515625	5.731201171875E-06	1657.64440581485
0.323028564453125	5.8984375E-06	1657.65915581481
0.32745361328125	5.9661865234375E-06	1657.67390581478
0.331878662109375	5.7421875E-06	1657.68865581474
0.3363037109375	5.802001953125E-06	1657.7034058147
0.340728759765625	5.98846435546875E-06	1657.71815581466
0.34515380859375	5.89080810546875E-06	1657.73290581463
0.349578857421875	6.0711669921875E-06	1657.74765581459
0.35400390625	5.9326171875E-06	1657.76240581455
0.358428955078125	6.2164306640625E-06	1657.77715581452
0.36285400390625	6.243896484375E-06	1657.79190581448
0.367279052734375	6.1676025390625E-06	1657.80665581444
0.3717041015625	6.365966796875E-06	1657.8214058144
0.376129150390625	6.23779296875E-06	1657.83615581437
0.38055419921875	6.3995361328125E-06	1657.85090581433
0.384979248046875	6.5155029296875E-06	1657.86565581429
0.389404296875	6.40869140625E-06	1657.88040581425
0.393829345703125	6.5032958984375E-06	1657.89515581422
0.39825439453125	6.3873291015625E-06	1657.90990581418
0.402679443359375	6.5673828125E-06	1657.92465581414
0.4071044921875	6.4910888671875E-06	1657.93940581411
0.411529541015625	6.585693359375E-06	1657.95415581407
0.41595458984375	6.6131591796875E-06	1657.96890581403
0.420379638671875	6.6864013671875E-06	1657.98365581399
0.4248046875	6.7840576171875E-06	1657.99840581396
0.429229736328125	6.8695068359375E-06	1658.01315581392
0.43365478515625	6.781005859375E-06	1658.02790581388
0.438079833984375	6.854248046875E-06	1658.04265581384
0.4425048828125	6.9610595703125E-06	1658.05740581381
0.446929931640625	6.9244384765625E-06	1658.07215581377
0.45135498046875	7.037353515625E-06	1658.08690581373
0.455780029296875	7.244873046875E-06	1658.1016558137
0.460205078125	7.220458984375E-06	1658.11640581366
0.464630126953125	7.3333740234375E-06	1658.13115581362
0.46905517578125	7.58056640625E-06	1658.14590581358
0.473480224609375	7.513427734375E-06	1658.16065581355
0.4779052734375	7.4920654296875E-06	1658.17540581351
0.482330322265625	7.440185546875E-06	1658.19015581347
0.48675537109375	7.7117919921875E-06	1658.20490581344
0.491180419921875	7.5347900390625E-06	1658.2196558134
0.49560546875	7.9620361328125E-06	1658.23440581336
0.500030517578125	7.9620361328125E-06	1658.24915581332
0.50445556640625	8.0841064453125E-06	1658.26390581329
0.508880615234375	8.074951171875E-06	1658.27865581325
0.5133056640625	8.19091796875E-06	1658.29340581321
0.517730712890625	8.294677734375E-06	1658.30815581317
0.52215576171875	8.526611328125E-06	1658.32290581314
0.526580810546875	8.477783203125E-06	1658.3376558131
0.531005859375	8.72802734375E-06	1658.35240581306
0.535430908203125	8.892822265625E-06	1658.36715581303
0.53985595703125	8.7921142578125E-06	1658.38190581299
0.544281005859375	8.9111328125E-06	1658.39665581295
0.5487060546875	9.149169921875E-06	1658.41140581291
0.553131103515625	9.527587890625E-06	1658.42615581288
0.55755615234375	9.375E-06	1658.44090581284
0.561981201171875	9.4635009765625E-06	1658.4556558128
0.56640625	9.70458984375E-06	1658.47040581276
0.570831298828125	9.869384765625E-06	1658.48515581273
0.57525634765625	1.00738525390625E-05	1658.49990581269
0.579681396484375	1.0015869140625E-05	1658.51465581265
0.5841064453125	1.0400390625E-05	1658.52940581262
0.588531494140625	1.05224609375E-05	1658.54415581258
0.59295654296875	1.07025146484375E-05	1658.55890581254
0.597381591796875	1.07452392578125E-05	1658.5736558125
0.601806640625	1.0882568359375E-05	1658.58840581247
0.606231689453125	1.11297607421875E-05	1658.60315581243
0.61065673828125	1.126708984375E-05	1658.61790581239
0.615081787109375	1.16302490234375E-05	1658.63265581236
0.6195068359375	1.18377685546875E-05	1658.64740581232
0.623931884765625	1.17706298828125E-05	1658.66215581228
0.62835693359375	1.21795654296875E-05	1658.67690581224
0.632781982421875	1.24725341796875E-05	1658.69165581221
0.63720703125	1.26678466796875E-05	1658.70640581217
0.641632080078125	1.28692626953125E-05	1658.72115581213
0.64605712890625	1.32476806640625E-05	1658.73590581209
0.650482177734375	1.356201171875E-05	1658.75065581206
0.6549072265625	1.3848876953125E-05	1658.76540581202
0.659332275390625	1.3916015625E-05	1658.78015581198
0.66375732421875	1.4208984375E-05	1658.79490581195
0.668182373046875	1.4599609375E-05	1658.80965581191
0.672607421875	1.49017333984375E-05	1658.82440581187
0.677032470703125	1.5289306640625E-05	1658.83915581183
0.68145751953125	1.53594970703125E-05	1658.8539058118
0.685882568359375	1.58538818359375E-05	1658.86865581176
0.6903076171875	1.61590576171875E-05	1658.88340581172
0.694732666015625	1.663818359375E-05	1658.89815581168
0.69915771484375	1.72088623046875E-05	1658.91290581165
0.703582763671875	1.74560546875E-05	1658.92765581161
0.69915771484375	8.6517333984375E-06	1658.94240581157
0.694732666015625	5.5999755859375E-06	1658.95715581154
0.6903076171875	3.6285400390625E-06	1658.9719058115
0.685882568359375	2.193603515625E-06	1658.98665581146
0.68145751953125	9.2315673828125E-07	1659.00140581142
0.677032470703125	-2.3529052734375E-07	1659.01615581139
0.672607421875	-8.2366943359375E-07	1659.03090581135
0.668182373046875	-1.22894287109375E-06	1659.04565581131
0.66375732421875	-2.0703125E-06	1659.06040581128
0.659332275390625	-2.574462890625E-06	1659.07515581124
0.6549072265625	-2.92816162109375E-06	1659.0899058112
0.650482177734375	-3.316650390625E-06	1659.10465581116
0.64605712890625	-3.59771728515625E-06	1659.11940581113
0.641632080078125	-3.91387939453125E-06	1659.13415581109
0.63720703125	-4.18548583984375E-06	1659.14890581105
0.632781982421875	-4.5751953125E-06	1659.16365581101
0.62835693359375	-4.8162841796875E-06	1659.17840581098
0.623931884765625	-4.76531982421875E-06	1659.19315581094
0.6195068359375	-5.01861572265625E-06	1659.2079058109
0.615081787109375	-5.06256103515625E-06	1659.22265581087
0.61065673828125	-5.3863525390625E-06	1659.23740581083
0.606231689453125	-5.52978515625E-06	1659.25215581079
0.601806640625	-5.5438232421875E-06	1659.26690581075
0.597381591796875	-5.5157470703125E-06	1659.28165581072
0.59295654296875	-5.92254638671875E-06	1659.29640581068
0.588531494140625	-5.9100341796875E-06	1659.31115581064
0.5841064453125	-5.765380859375E-06	1659.3259058106
0.579681396484375	-5.91278076171875E-06	1659.34065581057
0.57525634765625	-6.1651611328125E-06	1659.35540581053
0.570831298828125	-6.1431884765625E-06	1659.37015581049
0.56640625	-6.280517578125E-06	1659.38490581046
0.561981201171875	-6.3995361328125E-06	1659.39965581042
0.55755615234375	-6.3934326171875E-06	1659.41440581038
0.553131103515625	-6.3446044921875E-06	1659.42915581034
0.5487060546875	-6.3446044921875E-06	1659.44390581031
0.544281005859375	-6.3323974609375E-06	1659.45865581027
0.53985595703125	-6.4849853515625E-06	1659.47340581023
0.535430908203125	-6.57958984375E-06	1659.4881558102
0.531005859375	-6.5673828125E-06	1659.50290581016
0.526580810546875	-6.549072265625E-06	1659.51765581012
0.52215576171875	-6.6558837890625E-06	1659.53240581008
0.517730712890625	-6.646728515625E-06	1659.54715581005
0.5133056640625	-6.707763671875E-06	1659.56190581001
0.508880615234375	-6.6375732421875E-06	1659.57665580997
0.50445556640625	-6.640625E-06	1659.59140580993
0.500030517578125	-6.6497802734375E-06	1659.6061558099
0.49560546875	-6.7108154296875E-06	1659.62090580986
0.491180419921875	-6.9183349609375E-06	1659.63565580982
0.48675537109375	-6.793212890625E-06	1659.65040580979
0.482330322265625	-6.6162109375E-06	1659.66515580975
0.4779052734375	-6.658935546875E-06	1659.67990580971
0.473480224609375	-6.8145751953125E-06	1659.69465580967
0.46905517578125	-6.79931640625E-06	1659.70940580964
0.464630126953125	-6.7230224609375E-06	1659.7241558096
0.460205078125	-6.84814453125E-06	1659.73890580956
0.455780029296875	-6.8450927734375E-06	1659.75365580952
0.45135498046875	-6.8756103515625E-06	1659.76840580949
0.446929931640625	-6.8511962890625E-06	1659.78315580945
0.4425048828125	-6.8389892578125E-06	1659.79790580941
0.438079833984375	-6.7169189453125E-06	1659.81265580938
0.43365478515625	-6.8511962890625E-06	1659.82740580934
0.429229736328125	-7.000732421875E-06	1659.8421558093
0.4248046875	-6.9488525390625E-06	1659.85690580926
0.420379638671875	-6.72607421875E-06	1659.87165580923
0.41595458984375	-6.768798828125E-06	1659.88640580919
0.411529541015625	-6.719970703125E-06	1659.90115580915
0.4071044921875	-6.9610595703125E-06	1659.91590580912
0.402679443359375	-6.9091796875E-06	1659.93065580908
0.39825439453125	-6.9122314453125E-06	1659.94540580904
0.393829345703125	-6.7474365234375E-06	1659.960155809
0.389404296875	-6.8939208984375E-06	1659.97490580897
0.384979248046875	-6.9732666015625E-06	1659.98965580893
0.38055419921875	-6.8511962890625E-06	1660.00440580889
0.376129150390625	-6.9183349609375E-06	1660.01915580885
0.3717041015625	-6.9671630859375E-06	1660.03390580882
0.367279052734375	-6.927490234375E-06	1660.04865580878
0.36285400390625	-6.99462890625E-06	1660.06340580874
0.358428955078125	-7.0220947265625E-06	1660.07815580871
0.35400390625	-6.988525390625E-06	1660.09290580867
0.349578857421875	-6.7626953125E-06	1660.10765580863
0.34515380859375	-7.086181640625E-06	1660.12240580859
0.340728759765625	-7.14111328125E-06	1660.13715580856
0.3363037109375	-7.1807861328125E-06	1660.15190580852
0.331878662109375	-7.1258544921875E-06	1660.16665580848
0.32745361328125	-7.12890625E-06	1660.18140580844
0.323028564453125	-7.012939453125E-06	1660.19615580841
0.318603515625	-7.0098876953125E-06	1660.21090580837
0.314178466796875	-7.1075439453125E-06	1660.22565580833
0.30975341796875	-7.0892333984375E-06	1660.2404058083
0.305328369140625	-7.2113037109375E-06	1660.25515580826
0.3009033203125	-7.26318359375E-06	1660.26990580822
0.296478271484375	-7.1136474609375E-06	1660.28465580818
0.29205322265625	-7.1197509765625E-06	1660.29940580815
0.287628173828125	-7.257080078125E-06	1660.31415580811
0.283203125	-7.2021484375E-06	1660.32890580807
0.278778076171875	-7.1533203125E-06	1660.34365580804
0.27435302734375	-7.1044921875E-06	1660.358405808
0.269927978515625	-7.244873046875E-06	1660.37315580796
0.2655029296875	-7.2174072265625E-06	1660.38790580792
0.261077880859375	-7.4554443359375E-06	1660.40265580789
0.25665283203125	-7.33642578125E-06	1660.41740580785
0.252227783203125	-7.476806640625E-06	1660.43215580781
0.247802734375	-7.55615234375E-06	1660.44690580777
0.243377685546875	-7.781982421875E-06	1660.46165580774
0.23895263671875	-7.708740234375E-06	1660.4764058077
0.234527587890625	-7.67822265625E-06	1660.49115580766
0.2301025390625	-7.5775146484375E-06	1660.50590580763
0.225677490234375	-7.6507568359375E-06	1660.52065580759
0.22125244140625	-7.75146484375E-06	1660.53540580755
0.216827392578125	-7.9742431640625E-06	1660.55015580751
0.21240234375	-7.9193115234375E-06	1660.56490580748
0.207977294921875	-7.952880859375E-06	1660.57965580744
0.20355224609375	-8.11767578125E-06	1660.5944058074
0.199127197265625	-8.1329345703125E-06	1660.60915580736
0.1947021484375	-8.258056640625E-06	1660.62390580733
0.190277099609375	-8.33740234375E-06	1660.63865580729
0.18585205078125	-8.294677734375E-06	1660.65340580725
0.181427001953125	-8.343505859375E-06	1660.66815580722
0.177001953125	-8.453369140625E-06	1660.68290580718
0.172576904296875	-8.5235595703125E-06	1660.69765580714
0.16815185546875	-8.63037109375E-06	1660.7124058071
0.163726806640625	-8.6456298828125E-06	1660.72715580707
0.1593017578125	-8.428955078125E-06	1660.74190580703
0.154876708984375	-8.6761474609375E-06	1660.75665580699
0.15045166015625	-8.8226318359375E-06	1660.77140580696
0.146026611328125	-8.85009765625E-06	1660.78615580692
0.1416015625	-8.94775390625E-06	1660.80090580688
0.137176513671875	-9.1644287109375E-06	1660.81565580684
0.13275146484375	-9.26513671875E-06	1660.83040580681
0.128326416015625	-9.3841552734375E-06	1660.84515580677
0.1239013671875	-9.5550537109375E-06	1660.85990580673
0.119476318359375	-9.7503662109375E-06	1660.87465580669
0.11505126953125	-9.8785400390625E-06	1660.88940580666
0.110626220703125	-9.979248046875E-06	1660.90415580662
0.106201171875	-1.01806640625E-05	1660.91890580658
0.101776123046875	-1.0565185546875E-05	1660.93365580655
0.09735107421875	-1.07879638671875E-05	1660.94840580651
0.092926025390625	-1.08306884765625E-05	1660.96315580647
0.0885009765625	-1.1114501953125E-05	1660.97790580643
0.084075927734375	-1.14898681640625E-05	1660.9926558064
0.07965087890625	-1.175537109375E-05	1661.00740580636
0.075225830078125	-1.20513916015625E-05	1661.02215580632
0.07080078125	-1.251220703125E-05	1661.03690580628
0.066375732421875	-1.2921142578125E-05	1661.05165580625
0.06195068359375	-1.28997802734375E-05	1661.06640580621
0.057525634765625	-1.33544921875E-05	1661.08115580617
0.0531005859375	-1.34368896484375E-05	1661.09590580614
0.048675537109375	-1.34002685546875E-05	1661.1106558061
0.04425048828125	-1.34735107421875E-05	1661.12540580606
0.039825439453125	-1.36749267578125E-05	1661.14015580602
0.035400390625	-1.351318359375E-05	1661.15490580599
0.030975341796875	-1.35406494140625E-05	1661.16965580595
0.02655029296875	-1.3427734375E-05	1661.18440580591
0.022125244140625	-1.33270263671875E-05	1661.19915580588
0.0177001953125	-1.351318359375E-05	1661.21390580584
0.013275146484375	-1.34002685546875E-05	1661.2286558058
0.00885009765625	-1.35040283203125E-05	1661.24340580576
0.004425048828125	-1.34368896484375E-05	1661.25815580573
0	-1.33544921875E-05	1661.27290580569
0.004425048828125	-6.82373046875E-06	1661.28765580565
0.00885009765625	-4.4281005859375E-06	1661.30240580561
0.013275146484375	-2.8265380859375E-06	1661.31715580558
0.0177001953125	-1.81060791015625E-06	1661.33190580554
0.022125244140625	-8.9324951171875E-07	1661.3466558055
0.02655029296875	-3.3966064453125E-07	1661.36140580547
0.030975341796875	3.2501220703125E-07	1661.37615580543
0.035400390625	8.7554931640625E-07	1661.39090580539
0.039825439453125	1.22772216796875E-06	1661.40565580535
0.04425048828125	1.50909423828125E-06	1661.42040580532
0.048675537109375	1.75018310546875E-06	1661.43515580528
0.0531005859375	2.25921630859375E-06	1661.44990580524
0.057525634765625	2.52105712890625E-06	1661.4646558052
0.06195068359375	2.55096435546875E-06	1661.47940580517
0.066375732421875	2.70751953125E-06	1661.49415580513
0.07080078125	3.24798583984375E-06	1661.50890580509
0.075225830078125	3.60870361328125E-06	1661.52365580506
0.07965087890625	3.6688232421875E-06	1661.53840580502
0.084075927734375	3.743896484375E-06	1661.55315580498
0.0885009765625	4.12994384765625E-06	1661.56790580494
0.092926025390625	4.18914794921875E-06	1661.58265580491
0.09735107421875	4.42657470703125E-06	1661.59740580487
0.101776123046875	4.60113525390625E-06	1661.61215580483
0.106201171875	4.71435546875E-06	1661.6269058048
0.110626220703125	4.898681640625E-06	1661.64165580476
0.11505126953125	4.94415283203125E-06	1661.65640580472
0.119476318359375	5.1458740234375E-06	1661.67115580468
0.1239013671875	5.08148193359375E-06	1661.68590580465
0.128326416015625	5.2130126953125E-06	1661.70065580461
0.13275146484375	5.34576416015625E-06	1661.71540580457
0.137176513671875	5.372314453125E-06	1661.73015580453
0.1416015625	5.34942626953125E-06	1661.7449058045
0.146026611328125	5.39886474609375E-06	1661.75965580446
0.15045166015625	5.4339599609375E-06	1661.77440580442
0.154876708984375	5.59112548828125E-06	1661.78915580439
0.1593017578125	5.44677734375E-06	1661.80390580435
0.163726806640625	5.4681396484375E-06	1661.81865580431
0.16815185546875	5.4071044921875E-06	1661.83340580427
0.172576904296875	5.4931640625E-06	1661.84815580424
0.177001953125	5.51666259765625E-06	1661.8629058042
0.181427001953125	5.4656982421875E-06	1661.87765580416
0.18585205078125	5.53863525390625E-06	1661.89240580413
0.190277099609375	5.506591796875E-06	1661.90715580409
0.1947021484375	5.56549072265625E-06	1661.92190580405
0.199127197265625	5.70465087890625E-06	1661.93665580401
0.20355224609375	5.5438232421875E-06	1661.95140580398
0.207977294921875	5.5108642578125E-06	1661.96615580394
0.21240234375	5.478515625E-06	1661.9809058039
0.216827392578125	5.6524658203125E-06	1661.99565580386
0.22125244140625	5.65032958984375E-06	1662.01040580383
0.225677490234375	5.54351806640625E-06	1662.02515580379
0.2301025390625	5.59173583984375E-06	1662.03990580375
0.234527587890625	5.6268310546875E-06	1662.05465580372
0.23895263671875	5.5621337890625E-06	1662.06940580368
0.243377685546875	5.665283203125E-06	1662.08415580364
0.247802734375	5.82611083984375E-06	1662.0989058036
0.252227783203125	5.46295166015625E-06	1662.11365580357
0.25665283203125	5.699462890625E-06	1662.12840580353
0.261077880859375	5.73211669921875E-06	1662.14315580349
0.2655029296875	5.692138671875E-06	1662.15790580345
0.269927978515625	5.489501953125E-06	1662.17265580342
0.27435302734375	5.68603515625E-06	1662.18740580338
0.278778076171875	5.83831787109375E-06	1662.20215580334
0.283203125	5.50323486328125E-06	1662.21690580331
0.287628173828125	5.72113037109375E-06	1662.23165580327
0.29205322265625	5.55084228515625E-06	1662.24640580323
0.296478271484375	5.49835205078125E-06	1662.26115580319
0.3009033203125	5.58563232421875E-06	1662.27590580316
0.305328369140625	5.73272705078125E-06	1662.29065580312
0.30975341796875	5.58380126953125E-06	1662.30540580308
0.314178466796875	5.62652587890625E-06	1662.32015580305
0.318603515625	5.56793212890625E-06	1662.33490580301
0.323028564453125	5.83282470703125E-06	1662.34965580297
0.32745361328125	5.78857421875E-06	1662.36440580293
0.331878662109375	5.872802734375E-06	1662.3791558029
0.3363037109375	5.91339111328125E-06	1662.39390580286
0.340728759765625	5.963134765625E-06	1662.40865580282
0.34515380859375	5.9869384765625E-06	1662.42340580278
0.349578857421875	6.00006103515625E-06	1662.43815580275
0.35400390625	5.859375E-06	1662.45290580271
0.358428955078125	6.011962890625E-06	1662.46765580267
0.36285400390625	6.18896484375E-06	1662.48240580264
0.367279052734375	6.256103515625E-06	1662.4971558026
0.3717041015625	6.219482421875E-06	1662.51190580256
0.376129150390625	6.170654296875E-06	1662.52665580252
0.38055419921875	6.402587890625E-06	1662.54140580249
0.384979248046875	6.4300537109375E-06	1662.55615580245
0.389404296875	6.396484375E-06	1662.57090580241
0.393829345703125	6.463623046875E-06	1662.58565580237
0.39825439453125	6.5093994140625E-06	1662.60040580234
0.402679443359375	6.5887451171875E-06	1662.6151558023
0.4071044921875	6.573486328125E-06	1662.62990580226
0.411529541015625	6.6253662109375E-06	1662.64465580223
0.41595458984375	6.6802978515625E-06	1662.65940580219
0.420379638671875	6.5643310546875E-06	1662.67415580215
0.4248046875	6.671142578125E-06	1662.68890580211
0.429229736328125	6.951904296875E-06	1662.70365580208
0.43365478515625	6.866455078125E-06	1662.71840580204
0.438079833984375	6.671142578125E-06	1662.733155802
0.4425048828125	6.8817138671875E-06	1662.74790580197
0.446929931640625	7.049560546875E-06	1662.76265580193
0.45135498046875	7.1197509765625E-06	1662.77740580189
0.455780029296875	7.18994140625E-06	1662.79215580185
0.460205078125	7.1563720703125E-06	1662.80690580182
0.464630126953125	7.3150634765625E-06	1662.82165580178
0.46905517578125	7.281494140625E-06	1662.83640580174
0.473480224609375	7.2906494140625E-06	1662.8511558017
0.4779052734375	7.3211669921875E-06	1662.86590580167
0.482330322265625	7.513427734375E-06	1662.88065580163
0.48675537109375	7.537841796875E-06	1662.89540580159
0.491180419921875	7.7972412109375E-06	1662.91015580156
0.49560546875	7.8369140625E-06	1662.92490580152
0.500030517578125	7.9803466796875E-06	1662.93965580148
0.50445556640625	8.1268310546875E-06	1662.95440580144
0.508880615234375	8.001708984375E-06	1662.96915580141
0.5133056640625	8.2122802734375E-06	1662.98390580137
0.517730712890625	8.306884765625E-06	1662.99865580133
0.52215576171875	8.392333984375E-06	1663.01340580129
0.526580810546875	8.4991455078125E-06	1663.02815580126
0.531005859375	8.612060546875E-06	1663.04290580122
0.535430908203125	8.8104248046875E-06	1663.05765580118
0.53985595703125	8.8348388671875E-06	1663.07240580115
0.544281005859375	9.02099609375E-06	1663.08715580111
0.5487060546875	9.1278076171875E-06	1663.10190580107
0.553131103515625	9.2132568359375E-06	1663.11665580103
0.55755615234375	9.6221923828125E-06	1663.131405801
0.561981201171875	9.442138671875E-06	1663.14615580096
0.56640625	9.912109375E-06	1663.16090580092
0.570831298828125	9.918212890625E-06	1663.17565580089
0.57525634765625	9.9151611328125E-06	1663.19040580085
0.579681396484375	1.007080078125E-05	1663.20515580081
0.5841064453125	1.0186767578125E-05	1663.21990580077
0.588531494140625	1.041259765625E-05	1663.23465580074
0.59295654296875	1.05987548828125E-05	1663.2494058007
0.597381591796875	1.0809326171875E-05	1663.26415580066
0.601806640625	1.08978271484375E-05	1663.27890580062
0.606231689453125	1.08489990234375E-05	1663.29365580059
0.61065673828125	1.1273193359375E-05	1663.30840580055
0.615081787109375	1.15570068359375E-05	1663.32315580051
0.6195068359375	1.173095703125E-05	1663.33790580048
0.623931884765625	1.16607666015625E-05	1663.35265580044
0.62835693359375	1.20941162109375E-05	1663.3674058004
0.632781982421875	1.23870849609375E-05	1663.38215580036
0.63720703125	1.256103515625E-05	1663.39690580033
0.641632080078125	1.28814697265625E-05	1663.41165580029
0.64605712890625	1.2890625E-05	1663.42640580025
0.650482177734375	1.3201904296875E-05	1663.44115580021
0.6549072265625	1.358642578125E-05	1663.45590580018
0.659332275390625	1.3970947265625E-05	1663.47065580014
0.66375732421875	1.41754150390625E-05	1663.4854058001
0.668182373046875	1.431884765625E-05	1663.50015580007
0.672607421875	1.47216796875E-05	1663.51490580003
0.677032470703125	1.51214599609375E-05	1663.52965579999
0.68145751953125	1.5411376953125E-05	1663.54440579995
0.685882568359375	1.57440185546875E-05	1663.55915579992
0.6903076171875	1.58233642578125E-05	1663.57390579988
0.694732666015625	1.65679931640625E-05	1663.58865579984
0.69915771484375	1.70806884765625E-05	1663.60340579981
0.703582763671875	1.756591796875E-05	1663.61815579977
0.69915771484375	8.6578369140625E-06	1663.63290579973
0.694732666015625	5.67626953125E-06	1663.64765579969
0.6903076171875	3.546142578125E-06	1663.66240579966
0.685882568359375	1.8804931640625E-06	1663.67715579962
0.68145751953125	9.1522216796875E-07	1663.69190579958
0.677032470703125	-1.2603759765625E-07	1663.70665579954
0.672607421875	-7.8094482421875E-07	1663.72140579951
0.668182373046875	-1.3702392578125E-06	1663.73615579947
0.66375732421875	-1.9927978515625E-06	1663.75090579943
0.659332275390625	-2.50732421875E-06	1663.7656557994
0.6549072265625	-2.8997802734375E-06	1663.78040579936
0.650482177734375	-3.2958984375E-06	1663.79515579932
0.64605712890625	-3.74114990234375E-06	1663.80990579928
0.641632080078125	-3.9080810546875E-06	1663.82465579925
0.63720703125	-4.2047119140625E-06	1663.83940579921
0.632781982421875	-4.6197509765625E-06	1663.85415579917
0.62835693359375	-4.81292724609375E-06	1663.86890579913
0.623931884765625	-4.79461669921875E-06	1663.8836557991
0.6195068359375	-4.84710693359375E-06	1663.89840579906
0.615081787109375	-5.4425048828125E-06	1663.91315579902
0.61065673828125	-5.30364990234375E-06	1663.92790579899
0.606231689453125	-5.2398681640625E-06	1663.94265579895
0.601806640625	-5.59417724609375E-06	1663.95740579891
0.597381591796875	-5.77972412109375E-06	1663.97215579887
0.59295654296875	-5.665283203125E-06	1663.98690579884
0.588531494140625	-5.8819580078125E-06	1664.0016557988
0.5841064453125	-5.93597412109375E-06	1664.01640579876
0.579681396484375	-5.97900390625E-06	1664.03115579873
0.57525634765625	-6.0211181640625E-06	1664.04590579869
0.570831298828125	-6.26220703125E-06	1664.06065579865
0.56640625	-6.1676025390625E-06	1664.07540579861
0.561981201171875	-6.3079833984375E-06	1664.09015579858
0.55755615234375	-6.3140869140625E-06	1664.10490579854
0.553131103515625	-6.45751953125E-06	1664.1196557985
0.5487060546875	-6.3507080078125E-06	1664.13440579846
0.544281005859375	-6.365966796875E-06	1664.14915579843
0.53985595703125	-6.494140625E-06	1664.16390579839
0.535430908203125	-6.549072265625E-06	1664.17865579835
0.531005859375	-6.6925048828125E-06	1664.19340579832
0.526580810546875	-6.549072265625E-06	1664.20815579828
0.52215576171875	-6.597900390625E-06	1664.22290579824
0.517730712890625	-6.6802978515625E-06	1664.2376557982
0.5133056640625	-6.9122314453125E-06	1664.25240579817
0.508880615234375	-6.658935546875E-06	1664.26715579813
0.50445556640625	-6.5093994140625E-06	1664.28190579809
0.500030517578125	-6.54296875E-06	1664.29665579805
0.49560546875	-6.640625E-06	1664.31140579802
0.491180419921875	-6.6986083984375E-06	1664.32615579798
0.48675537109375	-6.5704345703125E-06	1664.34090579794
0.482330322265625	-6.7474365234375E-06	1664.35565579791
0.4779052734375	-6.793212890625E-06	1664.37040579787
0.473480224609375	-6.6864013671875E-06	1664.38515579783
0.46905517578125	-6.756591796875E-06	1664.39990579779
0.464630126953125	-6.756591796875E-06	1664.41465579776
0.460205078125	-6.732177734375E-06	1664.42940579772
0.455780029296875	-6.6864013671875E-06	1664.44415579768
0.45135498046875	-6.7962646484375E-06	1664.45890579765
0.446929931640625	-6.8756103515625E-06	1664.47365579761
0.4425048828125	-6.6802978515625E-06	1664.48840579757
0.438079833984375	-6.787109375E-06	1664.50315579753
0.43365478515625	-6.7169189453125E-06	1664.5179057975
0.429229736328125	-6.719970703125E-06	1664.53265579746
0.4248046875	-6.8634033203125E-06	1664.54740579742
0.420379638671875	-6.8145751953125E-06	1664.56215579738
0.41595458984375	-6.94580078125E-06	1664.57690579735
0.411529541015625	-6.890869140625E-06	1664.59165579731
0.4071044921875	-6.744384765625E-06	1664.60640579727
0.402679443359375	-6.8359375E-06	1664.62115579724
0.39825439453125	-6.67724609375E-06	1664.6359057972
0.393829345703125	-6.8634033203125E-06	1664.65065579716
0.389404296875	-6.903076171875E-06	1664.66540579712
0.384979248046875	-6.817626953125E-06	1664.68015579709
0.38055419921875	-7.061767578125E-06	1664.69490579705
0.376129150390625	-6.93359375E-06	1664.70965579701
0.3717041015625	-6.817626953125E-06	1664.72440579697
0.367279052734375	-7.0465087890625E-06	1664.73915579694
0.36285400390625	-7.073974609375E-06	1664.7539057969
0.358428955078125	-7.14111328125E-06	1664.76865579686
0.35400390625	-6.988525390625E-06	1664.78340579683
0.349578857421875	-7.0831298828125E-06	1664.79815579679
0.34515380859375	-7.1014404296875E-06	1664.81290579675
0.340728759765625	-7.0159912109375E-06	1664.82765579671
0.3363037109375	-7.0953369140625E-06	1664.84240579668
0.331878662109375	-7.0159912109375E-06	1664.85715579664
0.32745361328125	-7.1197509765625E-06	1664.8719057966
0.323028564453125	-7.03125E-06	1664.88665579657
0.318603515625	-7.110595703125E-06	1664.90140579653
0.314178466796875	-7.196044921875E-06	1664.91615579649
0.30975341796875	-7.098388671875E-06	1664.93090579645
0.305328369140625	-7.0068359375E-06	1664.94565579642
0.3009033203125	-7.147216796875E-06	1664.96040579638
0.296478271484375	-7.1929931640625E-06	1664.97515579634
0.29205322265625	-7.1685791015625E-06	1664.9899057963
0.287628173828125	-7.2662353515625E-06	1665.00465579627
0.283203125	-7.3272705078125E-06	1665.01940579623
0.278778076171875	-7.1563720703125E-06	1665.03415579619
0.27435302734375	-7.232666015625E-06	1665.04890579616
0.269927978515625	-7.2540283203125E-06	1665.06365579612
0.2655029296875	-7.4249267578125E-06	1665.07840579608
0.261077880859375	-7.2998046875E-06	1665.09315579604
0.25665283203125	-7.3028564453125E-06	1665.10790579601
0.252227783203125	-7.183837890625E-06	1665.12265579597
0.247802734375	-7.3211669921875E-06	1665.13740579593
0.243377685546875	-7.58056640625E-06	1665.15215579589
0.23895263671875	-7.598876953125E-06	1665.16690579586
0.234527587890625	-7.7301025390625E-06	1665.18165579582
0.2301025390625	-7.5531005859375E-06	1665.19640579578
0.225677490234375	-7.6812744140625E-06	1665.21115579575
0.22125244140625	-7.684326171875E-06	1665.22590579571
0.216827392578125	-7.9559326171875E-06	1665.24065579567
0.21240234375	-8.02001953125E-06	1665.25540579563
0.207977294921875	-8.099365234375E-06	1665.2701557956
0.20355224609375	-8.10546875E-06	1665.28490579556
0.199127197265625	-8.1146240234375E-06	1665.29965579552
0.1947021484375	-8.2000732421875E-06	1665.31440579549
0.190277099609375	-8.2275390625E-06	1665.32915579545
0.18585205078125	-8.23974609375E-06	1665.34390579541
0.181427001953125	-8.43505859375E-06	1665.35865579537
0.177001953125	-8.245849609375E-06	1665.37340579534
0.172576904296875	-8.3984375E-06	1665.3881557953
0.16815185546875	-8.49609375E-06	1665.40290579526
0.163726806640625	-8.6212158203125E-06	1665.41765579522
0.1593017578125	-8.6395263671875E-06	1665.43240579519
0.154876708984375	-8.87451171875E-06	1665.44715579515
0.15045166015625	-8.7860107421875E-06	1665.46190579511
0.146026611328125	-9.0240478515625E-06	1665.47665579508
0.1416015625	-8.978271484375E-06	1665.49140579504
0.137176513671875	-9.11865234375E-06	1665.506155795
0.13275146484375	-9.1156005859375E-06	1665.52090579496
0.128326416015625	-9.38720703125E-06	1665.53565579493
0.1239013671875	-9.7503662109375E-06	1665.55040579489
0.119476318359375	-9.80224609375E-06	1665.56515579485
0.11505126953125	-9.6832275390625E-06	1665.57990579481
0.110626220703125	-1.0009765625E-05	1665.59465579478
0.106201171875	-1.01531982421875E-05	1665.60940579474
0.101776123046875	-1.04095458984375E-05	1665.6241557947
0.09735107421875	-1.0693359375E-05	1665.63890579467
0.092926025390625	-1.0882568359375E-05	1665.65365579463
0.0885009765625	-1.11297607421875E-05	1665.66840579459
0.084075927734375	-1.14837646484375E-05	1665.68315579455
0.07965087890625	-1.18072509765625E-05	1665.69790579452
0.075225830078125	-1.23443603515625E-05	1665.71265579448
0.07080078125	-1.25274658203125E-05	1665.72740579444
0.066375732421875	-1.26739501953125E-05	1665.74215579441
0.06195068359375	-1.28662109375E-05	1665.75690579437
0.057525634765625	-1.3177490234375E-05	1665.77165579433
0.0531005859375	-1.337890625E-05	1665.78640579429
0.048675537109375	-1.3409423828125E-05	1665.80115579426
0.04425048828125	-1.34368896484375E-05	1665.81590579422
0.039825439453125	-1.35406494140625E-05	1665.83065579418
0.035400390625	-1.36016845703125E-05	1665.84540579414
0.030975341796875	-1.36138916015625E-05	1665.86015579411
0.02655029296875	-1.36077880859375E-05	1665.87490579407
0.022125244140625	-1.33514404296875E-05	1665.88965579403
0.0177001953125	-1.336669921875E-05	1665.904405794
0.013275146484375	-1.33087158203125E-05	1665.91915579396
0.00885009765625	-1.34521484375E-05	1665.93390579392
0.004425048828125	-1.353759765625E-05	1665.94865579388
0	-1.34735107421875E-05	1665.96340579385
0.004425048828125	-6.817626953125E-06	1665.97815579381
0.00885009765625	-4.412841796875E-06	1665.99290579377
0.013275146484375	-2.862548828125E-06	1666.00765579374
