Potential applied (V)	WE(1).Current (A)	Time (s)
0.004425048828125	7.672119140625E-07	1679.69757075917
0.00885009765625	6.1126708984375E-06	1679.70642075915
0.013275146484375	8.013916015625E-06	1679.71527075913
0.0177001953125	8.917236328125E-06	1679.7241207591
0.022125244140625	9.7900390625E-06	1679.73297075908
0.02655029296875	1.06964111328125E-05	1679.74182075906
0.030975341796875	1.09832763671875E-05	1679.75067075904
0.035400390625	1.14715576171875E-05	1679.75952075901
0.039825439453125	1.16943359375E-05	1679.76837075899
0.04425048828125	1.22589111328125E-05	1679.77722075897
0.048675537109375	1.24725341796875E-05	1679.78607075895
0.0531005859375	1.302490234375E-05	1679.79492075893
0.057525634765625	1.307373046875E-05	1679.8037707589
0.06195068359375	1.31103515625E-05	1679.81262075888
0.066375732421875	1.3360595703125E-05	1679.82147075886
0.07080078125	1.33453369140625E-05	1679.83032075884
0.075225830078125	1.3702392578125E-05	1679.83917075881
0.07965087890625	1.38763427734375E-05	1679.84802075879
0.084075927734375	1.4190673828125E-05	1679.85687075877
0.0885009765625	1.40411376953125E-05	1679.86572075875
0.092926025390625	1.44195556640625E-05	1679.87457075872
0.09735107421875	1.42669677734375E-05	1679.8834207587
0.101776123046875	1.4447021484375E-05	1679.89227075868
0.106201171875	1.47735595703125E-05	1679.90112075866
0.110626220703125	1.47552490234375E-05	1679.90997075864
0.11505126953125	1.4971923828125E-05	1679.91882075861
0.119476318359375	1.5142822265625E-05	1679.92767075859
0.1239013671875	1.51763916015625E-05	1679.93652075857
0.128326416015625	1.52069091796875E-05	1679.94537075855
0.13275146484375	1.52130126953125E-05	1679.95422075852
0.137176513671875	1.551513671875E-05	1679.9630707585
0.1416015625	1.5478515625E-05	1679.97192075848
0.146026611328125	1.5545654296875E-05	1679.98077075846
0.15045166015625	1.5399169921875E-05	1679.98962075843
0.154876708984375	1.5606689453125E-05	1679.99847075841
0.1593017578125	1.5325927734375E-05	1680.00732075839
0.163726806640625	1.5374755859375E-05	1680.01617075837
0.16815185546875	1.53564453125E-05	1680.02502075834
0.172576904296875	1.53350830078125E-05	1680.03387075832
0.177001953125	1.568603515625E-05	1680.0427207583
0.181427001953125	1.53900146484375E-05	1680.05157075828
0.18585205078125	1.54876708984375E-05	1680.06042075826
0.190277099609375	1.53228759765625E-05	1680.06927075823
0.1947021484375	1.53350830078125E-05	1680.07812075821
0.199127197265625	1.55120849609375E-05	1680.08697075819
0.20355224609375	1.5313720703125E-05	1680.09582075817
0.207977294921875	1.544189453125E-05	1680.10467075814
0.21240234375	1.5313720703125E-05	1680.11352075812
0.216827392578125	1.51519775390625E-05	1680.1223707581
0.22125244140625	1.52435302734375E-05	1680.13122075808
0.225677490234375	1.50146484375E-05	1680.14007075805
0.2301025390625	1.52435302734375E-05	1680.14892075803
0.234527587890625	1.53656005859375E-05	1680.15777075801
0.23895263671875	1.507568359375E-05	1680.16662075799
0.243377685546875	1.5155029296875E-05	1680.17547075796
0.247802734375	1.492919921875E-05	1680.18432075794
0.252227783203125	1.5118408203125E-05	1680.19317075792
0.25665283203125	1.512451171875E-05	1680.2020207579
0.261077880859375	1.5032958984375E-05	1680.21087075788
0.2655029296875	1.50604248046875E-05	1680.21972075785
0.269927978515625	1.48406982421875E-05	1680.22857075783
0.27435302734375	1.490478515625E-05	1680.23742075781
0.278778076171875	1.500244140625E-05	1680.24627075779
0.283203125	1.48895263671875E-05	1680.25512075776
0.287628173828125	1.48681640625E-05	1680.26397075774
0.29205322265625	1.50238037109375E-05	1680.27282075772
0.296478271484375	1.47735595703125E-05	1680.2816707577
0.3009033203125	1.48773193359375E-05	1680.29052075767
0.305328369140625	1.4727783203125E-05	1680.29937075765
0.30975341796875	1.49169921875E-05	1680.30822075763
0.314178466796875	1.4990234375E-05	1680.31707075761
0.318603515625	1.49688720703125E-05	1680.32592075758
0.323028564453125	1.49505615234375E-05	1680.33477075756
0.32745361328125	1.5093994140625E-05	1680.34362075754
0.331878662109375	1.49261474609375E-05	1680.35247075752
0.3363037109375	1.497802734375E-05	1680.3613207575
0.340728759765625	1.5228271484375E-05	1680.37017075747
0.34515380859375	1.52252197265625E-05	1680.37902075745
0.349578857421875	1.52008056640625E-05	1680.38787075743
0.35400390625	1.51031494140625E-05	1680.39672075741
0.358428955078125	1.53564453125E-05	1680.40557075738
0.36285400390625	1.5594482421875E-05	1680.41442075736
0.367279052734375	1.5576171875E-05	1680.42327075734
0.3717041015625	1.56158447265625E-05	1680.43212075732
0.376129150390625	1.5643310546875E-05	1680.44097075729
0.38055419921875	1.59942626953125E-05	1680.44982075727
0.384979248046875	1.5826416015625E-05	1680.45867075725
0.389404296875	1.61041259765625E-05	1680.46752075723
0.393829345703125	1.6015625E-05	1680.47637075721
0.39825439453125	1.6015625E-05	1680.48522075718
0.402679443359375	1.634521484375E-05	1680.49407075716
0.4071044921875	1.62445068359375E-05	1680.50292075714
0.411529541015625	1.634521484375E-05	1680.51177075712
0.41595458984375	1.6278076171875E-05	1680.52062075709
0.420379638671875	1.64825439453125E-05	1680.52947075707
0.4248046875	1.65557861328125E-05	1680.53832075705
0.429229736328125	1.65313720703125E-05	1680.54717075703
0.43365478515625	1.67572021484375E-05	1680.556020757
0.438079833984375	1.66748046875E-05	1680.56487075698
0.4425048828125	1.6986083984375E-05	1680.57372075696
0.446929931640625	1.70745849609375E-05	1680.58257075694
0.45135498046875	1.71630859375E-05	1680.59142075691
0.455780029296875	1.71875E-05	1680.60027075689
0.460205078125	1.74041748046875E-05	1680.60912075687
0.464630126953125	1.74346923828125E-05	1680.61797075685
0.46905517578125	1.74835205078125E-05	1680.62682075683
0.473480224609375	1.77215576171875E-05	1680.6356707568
0.4779052734375	1.80145263671875E-05	1680.64452075678
0.482330322265625	1.81396484375E-05	1680.65337075676
0.48675537109375	1.8572998046875E-05	1680.66222075674
0.491180419921875	1.8658447265625E-05	1680.67107075671
0.49560546875	1.84234619140625E-05	1680.67992075669
0.500030517578125	1.86431884765625E-05	1680.68877075667
0.50445556640625	1.888427734375E-05	1680.69762075665
0.508880615234375	1.9158935546875E-05	1680.70647075662
0.5133056640625	1.91375732421875E-05	1680.7153207566
0.517730712890625	1.934814453125E-05	1680.72417075658
0.52215576171875	1.9873046875E-05	1680.73302075656
0.526580810546875	2.02239990234375E-05	1680.74187075653
0.531005859375	1.98577880859375E-05	1680.75072075651
0.535430908203125	2.012939453125E-05	1680.75957075649
0.53985595703125	2.034912109375E-05	1680.76842075647
0.544281005859375	2.0697021484375E-05	1680.77727075645
0.5487060546875	2.1099853515625E-05	1680.78612075642
0.553131103515625	2.174072265625E-05	1680.7949707564
0.55755615234375	2.12005615234375E-05	1680.80382075638
0.561981201171875	2.17041015625E-05	1680.81267075636
0.56640625	2.177734375E-05	1680.82152075633
0.570831298828125	2.21099853515625E-05	1680.83037075631
0.57525634765625	2.23907470703125E-05	1680.83922075629
0.579681396484375	2.27386474609375E-05	1680.84807075627
0.5841064453125	2.2802734375E-05	1680.85692075624
0.588531494140625	2.315673828125E-05	1680.86577075622
0.59295654296875	2.36053466796875E-05	1680.8746207562
0.597381591796875	2.3858642578125E-05	1680.88347075618
0.601806640625	2.418212890625E-05	1680.89232075615
0.606231689453125	2.4652099609375E-05	1680.90117075613
0.61065673828125	2.4603271484375E-05	1680.91002075611
0.615081787109375	2.50762939453125E-05	1680.91887075609
0.6195068359375	2.57049560546875E-05	1680.92772075607
0.623931884765625	2.60772705078125E-05	1680.93657075604
0.62835693359375	2.63397216796875E-05	1680.94542075602
0.632781982421875	2.6837158203125E-05	1680.954270756
0.63720703125	2.69012451171875E-05	1680.96312075598
0.641632080078125	2.7520751953125E-05	1680.97197075595
0.64605712890625	2.813720703125E-05	1680.98082075593
0.650482177734375	2.84912109375E-05	1680.98967075591
0.6549072265625	2.880859375E-05	1680.99852075589
0.659332275390625	2.93975830078125E-05	1681.00737075586
0.66375732421875	2.97210693359375E-05	1681.01622075584
0.668182373046875	3.01727294921875E-05	1681.02507075582
0.672607421875	3.07861328125E-05	1681.0339207558
0.677032470703125	3.1573486328125E-05	1681.04277075578
0.68145751953125	3.187255859375E-05	1681.05162075575
0.685882568359375	3.238525390625E-05	1681.06047075573
0.6903076171875	3.29803466796875E-05	1681.06932075571
0.694732666015625	3.33648681640625E-05	1681.07817075569
0.69915771484375	3.44970703125E-05	1681.08702075566
0.703582763671875	3.48388671875E-05	1681.09587075564
0.69915771484375	8.6669921875E-06	1681.10472075562
0.694732666015625	3.2318115234375E-06	1681.1135707556
0.6903076171875	-2.288818359375E-07	1681.12242075557
0.685882568359375	-2.5970458984375E-06	1681.13127075555
0.68145751953125	-4.339599609375E-06	1681.14012075553
0.677032470703125	-5.8746337890625E-06	1681.14897075551
0.672607421875	-7.04345703125E-06	1681.15782075548
0.668182373046875	-7.9986572265625E-06	1681.16667075546
0.66375732421875	-8.9599609375E-06	1681.17552075544
0.659332275390625	-9.97314453125E-06	1681.18437075542
0.6549072265625	-1.0321044921875E-05	1681.1932207554
0.650482177734375	-1.08367919921875E-05	1681.20207075537
0.64605712890625	-1.1456298828125E-05	1681.21092075535
0.641632080078125	-1.16546630859375E-05	1681.21977075533
0.63720703125	-1.2066650390625E-05	1681.22862075531
0.632781982421875	-1.26312255859375E-05	1681.23747075528
0.62835693359375	-1.29730224609375E-05	1681.24632075526
0.623931884765625	-1.30218505859375E-05	1681.25517075524
0.6195068359375	-1.32354736328125E-05	1681.26402075522
0.615081787109375	-1.33941650390625E-05	1681.27287075519
0.61065673828125	-1.36688232421875E-05	1681.28172075517
0.606231689453125	-1.37359619140625E-05	1681.29057075515
0.601806640625	-1.405029296875E-05	1681.29942075513
0.597381591796875	-1.4227294921875E-05	1681.3082707551
0.59295654296875	-1.41082763671875E-05	1681.31712075508
0.588531494140625	-1.422119140625E-05	1681.32597075506
0.5841064453125	-1.44287109375E-05	1681.33482075504
0.579681396484375	-1.4691162109375E-05	1681.34367075502
0.57525634765625	-1.4501953125E-05	1681.35252075499
0.570831298828125	-1.448974609375E-05	1681.36137075497
0.56640625	-1.46392822265625E-05	1681.37022075495
0.561981201171875	-1.46942138671875E-05	1681.37907075493
0.55755615234375	-1.47430419921875E-05	1681.3879207549
0.553131103515625	-1.47491455078125E-05	1681.39677075488
0.5487060546875	-1.48223876953125E-05	1681.40562075486
0.544281005859375	-1.4886474609375E-05	1681.41447075484
0.53985595703125	-1.5045166015625E-05	1681.42332075481
0.535430908203125	-1.50543212890625E-05	1681.43217075479
0.531005859375	-1.47857666015625E-05	1681.44102075477
0.526580810546875	-1.48651123046875E-05	1681.44987075475
0.52215576171875	-1.49200439453125E-05	1681.45872075472
0.517730712890625	-1.50054931640625E-05	1681.4675707547
0.5133056640625	-1.48651123046875E-05	1681.47642075468
0.508880615234375	-1.48895263671875E-05	1681.48527075466
0.50445556640625	-1.519775390625E-05	1681.49412075464
0.500030517578125	-1.51092529296875E-05	1681.50297075461
0.49560546875	-1.49932861328125E-05	1681.51182075459
0.491180419921875	-1.5008544921875E-05	1681.52067075457
0.48675537109375	-1.5045166015625E-05	1681.52952075455
0.482330322265625	-1.48345947265625E-05	1681.53837075452
0.4779052734375	-1.50054931640625E-05	1681.5472207545
0.473480224609375	-1.5106201171875E-05	1681.55607075448
0.46905517578125	-1.49200439453125E-05	1681.56492075446
0.464630126953125	-1.47216796875E-05	1681.57377075443
0.460205078125	-1.51153564453125E-05	1681.58262075441
0.455780029296875	-1.494140625E-05	1681.59147075439
0.45135498046875	-1.4581298828125E-05	1681.60032075437
0.446929931640625	-1.49322509765625E-05	1681.60917075435
0.4425048828125	-1.4776611328125E-05	1681.61802075432
0.438079833984375	-1.47918701171875E-05	1681.6268707543
0.43365478515625	-1.46240234375E-05	1681.63572075428
0.429229736328125	-1.474609375E-05	1681.64457075426
0.4248046875	-1.45477294921875E-05	1681.65342075423
0.420379638671875	-1.47308349609375E-05	1681.66227075421
0.41595458984375	-1.45965576171875E-05	1681.67112075419
0.411529541015625	-1.4691162109375E-05	1681.67997075417
0.4071044921875	-1.47796630859375E-05	1681.68882075414
0.402679443359375	-1.4697265625E-05	1681.69767075412
0.39825439453125	-1.4691162109375E-05	1681.7065207541
0.393829345703125	-1.48468017578125E-05	1681.71537075408
0.389404296875	-1.4825439453125E-05	1681.72422075405
0.384979248046875	-1.48040771484375E-05	1681.73307075403
0.38055419921875	-1.46759033203125E-05	1681.74192075401
0.376129150390625	-1.47186279296875E-05	1681.75077075399
0.3717041015625	-1.4556884765625E-05	1681.75962075397
0.367279052734375	-1.48406982421875E-05	1681.76847075394
0.36285400390625	-1.46575927734375E-05	1681.77732075392
0.358428955078125	-1.47125244140625E-05	1681.7861707539
0.35400390625	-1.4898681640625E-05	1681.79502075388
0.349578857421875	-1.4990234375E-05	1681.80387075385
0.34515380859375	-1.50726318359375E-05	1681.81272075383
0.340728759765625	-1.47125244140625E-05	1681.82157075381
0.3363037109375	-1.495361328125E-05	1681.83042075379
0.331878662109375	-1.4862060546875E-05	1681.83927075376
0.32745361328125	-1.47979736328125E-05	1681.84812075374
0.323028564453125	-1.50360107421875E-05	1681.85697075372
0.318603515625	-1.49658203125E-05	1681.8658207537
0.314178466796875	-1.50177001953125E-05	1681.87467075367
0.30975341796875	-1.51611328125E-05	1681.88352075365
0.305328369140625	-1.48773193359375E-05	1681.89237075363
0.3009033203125	-1.4935302734375E-05	1681.90122075361
0.296478271484375	-1.527099609375E-05	1681.91007075359
0.29205322265625	-1.5130615234375E-05	1681.91892075356
0.287628173828125	-1.50238037109375E-05	1681.92777075354
0.283203125	-1.5350341796875E-05	1681.93662075352
0.278778076171875	-1.514892578125E-05	1681.9454707535
0.27435302734375	-1.5203857421875E-05	1681.95432075347
0.269927978515625	-1.507568359375E-05	1681.96317075345
0.2655029296875	-1.50970458984375E-05	1681.97202075343
0.261077880859375	-1.51519775390625E-05	1681.98087075341
0.25665283203125	-1.5283203125E-05	1681.98972075338
0.252227783203125	-1.53839111328125E-05	1681.99857075336
0.247802734375	-1.56005859375E-05	1682.00742075334
0.243377685546875	-1.55975341796875E-05	1682.01627075332
0.23895263671875	-1.54815673828125E-05	1682.02512075329
0.234527587890625	-1.549072265625E-05	1682.03397075327
0.2301025390625	-1.59271240234375E-05	1682.04282075325
0.225677490234375	-1.59027099609375E-05	1682.05167075323
0.22125244140625	-1.57989501953125E-05	1682.06052075321
0.216827392578125	-1.646728515625E-05	1682.06937075318
0.21240234375	-1.65557861328125E-05	1682.07822075316
0.207977294921875	-1.62384033203125E-05	1682.08707075314
0.20355224609375	-1.63726806640625E-05	1682.09592075312
0.199127197265625	-1.65374755859375E-05	1682.10477075309
0.1947021484375	-1.67327880859375E-05	1682.11362075307
0.190277099609375	-1.6778564453125E-05	1682.12247075305
0.18585205078125	-1.693115234375E-05	1682.13132075303
0.181427001953125	-1.71661376953125E-05	1682.140170753
0.177001953125	-1.7034912109375E-05	1682.14902075298
0.172576904296875	-1.7327880859375E-05	1682.15787075296
0.16815185546875	-1.7266845703125E-05	1682.16672075294
0.163726806640625	-1.766357421875E-05	1682.17557075292
0.1593017578125	-1.75933837890625E-05	1682.18442075289
0.154876708984375	-1.76300048828125E-05	1682.19327075287
0.15045166015625	-1.78558349609375E-05	1682.20212075285
0.146026611328125	-1.80023193359375E-05	1682.21097075283
0.1416015625	-1.81243896484375E-05	1682.2198207528
0.137176513671875	-1.8206787109375E-05	1682.22867075278
0.13275146484375	-1.84356689453125E-05	1682.23752075276
0.128326416015625	-1.86065673828125E-05	1682.24637075274
0.1239013671875	-1.88873291015625E-05	1682.25522075271
0.119476318359375	-1.88934326171875E-05	1682.26407075269
0.11505126953125	-1.93023681640625E-05	1682.27292075267
0.110626220703125	-1.95648193359375E-05	1682.28177075265
0.106201171875	-1.99066162109375E-05	1682.29062075262
0.101776123046875	-2.03155517578125E-05	1682.2994707526
0.09735107421875	-2.04498291015625E-05	1682.30832075258
0.092926025390625	-2.09747314453125E-05	1682.31717075256
0.0885009765625	-2.135009765625E-05	1682.32602075253
0.084075927734375	-2.17620849609375E-05	1682.33487075251
0.07965087890625	-2.22198486328125E-05	1682.34372075249
0.075225830078125	-2.25006103515625E-05	1682.35257075247
0.07080078125	-2.32818603515625E-05	1682.36142075245
0.066375732421875	-2.327880859375E-05	1682.37027075242
0.06195068359375	-2.40234375E-05	1682.3791207524
0.057525634765625	-2.43438720703125E-05	1682.38797075238
0.0531005859375	-2.470703125E-05	1682.39682075236
0.048675537109375	-2.493896484375E-05	1682.40567075233
0.04425048828125	-2.5372314453125E-05	1682.41452075231
0.039825439453125	-2.54180908203125E-05	1682.42337075229
0.035400390625	-2.50396728515625E-05	1682.43222075227
0.030975341796875	-2.5445556640625E-05	1682.44107075224
0.02655029296875	-2.56744384765625E-05	1682.44992075222
0.022125244140625	-2.55157470703125E-05	1682.4587707522
0.0177001953125	-2.5396728515625E-05	1682.46762075218
0.013275146484375	-2.5604248046875E-05	1682.47647075216
0.00885009765625	-2.5506591796875E-05	1682.48532075213
0.004425048828125	-2.55157470703125E-05	1682.49417075211
0	-2.579345703125E-05	1682.50302075209
0.004425048828125	-6.182861328125E-06	1682.51187075207
0.00885009765625	-1.69525146484375E-06	1682.52072075204
0.013275146484375	8.294677734375E-07	1682.52957075202
0.0177001953125	2.5604248046875E-06	1682.538420752
0.022125244140625	3.9215087890625E-06	1682.54727075198
0.02655029296875	5.3497314453125E-06	1682.55612075195
0.030975341796875	6.085205078125E-06	1682.56497075193
0.035400390625	6.87255859375E-06	1682.57382075191
0.039825439453125	7.3760986328125E-06	1682.58267075189
0.04425048828125	8.0535888671875E-06	1682.59152075186
0.048675537109375	8.3404541015625E-06	1682.60037075184
0.0531005859375	8.9813232421875E-06	1682.60922075182
0.057525634765625	9.637451171875E-06	1682.6180707518
0.06195068359375	9.820556640625E-06	1682.62692075178
0.066375732421875	1.00311279296875E-05	1682.63577075175
0.07080078125	1.02783203125E-05	1682.64462075173
0.075225830078125	1.07940673828125E-05	1682.65347075171
0.07965087890625	1.0943603515625E-05	1682.66232075169
0.084075927734375	1.1285400390625E-05	1682.67117075166
0.0885009765625	1.16180419921875E-05	1682.68002075164
0.092926025390625	1.1578369140625E-05	1682.68887075162
0.09735107421875	1.1865234375E-05	1682.6977207516
0.101776123046875	1.21307373046875E-05	1682.70657075157
0.106201171875	1.23382568359375E-05	1682.71542075155
0.110626220703125	1.2298583984375E-05	1682.72427075153
0.11505126953125	1.25244140625E-05	1682.73312075151
0.119476318359375	1.270751953125E-05	1682.74197075149
0.1239013671875	1.23382568359375E-05	1682.75082075146
0.128326416015625	1.26861572265625E-05	1682.75967075144
0.13275146484375	1.32843017578125E-05	1682.76852075142
0.137176513671875	1.2908935546875E-05	1682.7773707514
0.1416015625	1.300048828125E-05	1682.78622075137
0.146026611328125	1.31927490234375E-05	1682.79507075135
0.15045166015625	1.3201904296875E-05	1682.80392075133
0.154876708984375	1.3397216796875E-05	1682.81277075131
0.1593017578125	1.3250732421875E-05	1682.82162075128
0.163726806640625	1.32537841796875E-05	1682.83047075126
0.16815185546875	1.331787109375E-05	1682.83932075124
0.172576904296875	1.3275146484375E-05	1682.84817075122
0.177001953125	1.32354736328125E-05	1682.85702075119
0.181427001953125	1.3427734375E-05	1682.86587075117
0.18585205078125	1.34429931640625E-05	1682.87472075115
0.190277099609375	1.3287353515625E-05	1682.88357075113
0.1947021484375	1.3238525390625E-05	1682.8924207511
0.199127197265625	1.32904052734375E-05	1682.90127075108
0.20355224609375	1.31927490234375E-05	1682.91012075106
0.207977294921875	1.302490234375E-05	1682.91897075104
0.21240234375	1.3372802734375E-05	1682.92782075102
0.216827392578125	1.3323974609375E-05	1682.93667075099
0.22125244140625	1.32659912109375E-05	1682.94552075097
0.225677490234375	1.32171630859375E-05	1682.95437075095
0.2301025390625	1.329345703125E-05	1682.96322075093
0.234527587890625	1.336669921875E-05	1682.9720707509
0.23895263671875	1.3330078125E-05	1682.98092075088
0.243377685546875	1.34002685546875E-05	1682.98977075086
0.247802734375	1.31622314453125E-05	1682.99862075084
0.252227783203125	1.34613037109375E-05	1683.00747075081
0.25665283203125	1.3189697265625E-05	1683.01632075079
0.261077880859375	1.3299560546875E-05	1683.02517075077
0.2655029296875	1.337890625E-05	1683.03402075075
0.269927978515625	1.3140869140625E-05	1683.04287075073
0.27435302734375	1.32843017578125E-05	1683.0517207507
0.278778076171875	1.3299560546875E-05	1683.06057075068
0.283203125	1.32293701171875E-05	1683.06942075066
0.287628173828125	1.34521484375E-05	1683.07827075064
0.29205322265625	1.33941650390625E-05	1683.08712075061
0.296478271484375	1.328125E-05	1683.09597075059
0.3009033203125	1.31622314453125E-05	1683.10482075057
0.305328369140625	1.33331298828125E-05	1683.11367075055
0.30975341796875	1.30523681640625E-05	1683.12252075052
0.314178466796875	1.34613037109375E-05	1683.1313707505
0.318603515625	1.3702392578125E-05	1683.14022075048
0.323028564453125	1.3421630859375E-05	1683.14907075046
0.32745361328125	1.33209228515625E-05	1683.15792075043
0.331878662109375	1.36688232421875E-05	1683.16677075041
0.3363037109375	1.361083984375E-05	1683.17562075039
0.340728759765625	1.36749267578125E-05	1683.18447075037
0.34515380859375	1.38214111328125E-05	1683.19332075035
0.349578857421875	1.385498046875E-05	1683.20217075032
0.35400390625	1.3916015625E-05	1683.2110207503
0.358428955078125	1.392822265625E-05	1683.21987075028
0.36285400390625	1.3909912109375E-05	1683.22872075026
0.367279052734375	1.41082763671875E-05	1683.23757075023
0.3717041015625	1.41265869140625E-05	1683.24642075021
0.376129150390625	1.4385986328125E-05	1683.25527075019
0.38055419921875	1.4501953125E-05	1683.26412075017
0.384979248046875	1.4739990234375E-05	1683.27297075014
0.389404296875	1.44805908203125E-05	1683.28182075012
0.393829345703125	1.475830078125E-05	1683.2906707501
0.39825439453125	1.4727783203125E-05	1683.29952075008
0.402679443359375	1.50054931640625E-05	1683.30837075006
0.4071044921875	1.497802734375E-05	1683.31722075003
0.411529541015625	1.5142822265625E-05	1683.32607075001
0.41595458984375	1.50115966796875E-05	1683.33492074999
0.420379638671875	1.49688720703125E-05	1683.34377074997
0.4248046875	1.52923583984375E-05	1683.35262074994
0.429229736328125	1.55853271484375E-05	1683.36147074992
0.43365478515625	1.5399169921875E-05	1683.3703207499
0.438079833984375	1.54998779296875E-05	1683.37917074988
0.4425048828125	1.561279296875E-05	1683.38802074985
0.446929931640625	1.5673828125E-05	1683.39687074983
0.45135498046875	1.5771484375E-05	1683.40572074981
0.455780029296875	1.612548828125E-05	1683.41457074979
0.460205078125	1.58905029296875E-05	1683.42342074976
0.464630126953125	1.6552734375E-05	1683.43227074974
0.46905517578125	1.630859375E-05	1683.44112074972
0.473480224609375	1.6363525390625E-05	1683.4499707497
0.4779052734375	1.6644287109375E-05	1683.45882074967
0.482330322265625	1.6632080078125E-05	1683.46767074965
0.48675537109375	1.7047119140625E-05	1683.47652074963
0.491180419921875	1.70440673828125E-05	1683.48537074961
0.49560546875	1.7315673828125E-05	1683.49422074959
0.500030517578125	1.7474365234375E-05	1683.50307074956
0.50445556640625	1.7352294921875E-05	1683.51192074954
0.508880615234375	1.78741455078125E-05	1683.52077074952
0.5133056640625	1.7950439453125E-05	1683.5296207495
0.517730712890625	1.8023681640625E-05	1683.53847074947
0.52215576171875	1.83319091796875E-05	1683.54732074945
0.526580810546875	1.8560791015625E-05	1683.55617074943
0.531005859375	1.87286376953125E-05	1683.56502074941
0.535430908203125	1.88140869140625E-05	1683.57387074938
0.53985595703125	1.90338134765625E-05	1683.58272074936
0.544281005859375	1.95068359375E-05	1683.59157074934
0.5487060546875	1.94610595703125E-05	1683.60042074932
0.553131103515625	1.96990966796875E-05	1683.6092707493
0.55755615234375	2.0068359375E-05	1683.61812074927
0.561981201171875	2.025146484375E-05	1683.62697074925
0.56640625	2.0440673828125E-05	1683.63582074923
0.570831298828125	2.0562744140625E-05	1683.64467074921
0.57525634765625	2.110595703125E-05	1683.65352074918
0.579681396484375	2.13134765625E-05	1683.66237074916
0.5841064453125	2.152099609375E-05	1683.67122074914
0.588531494140625	2.19635009765625E-05	1683.68007074912
0.59295654296875	2.19482421875E-05	1683.68892074909
0.597381591796875	2.2491455078125E-05	1683.69777074907
0.601806640625	2.28424072265625E-05	1683.70662074905
0.606231689453125	2.35076904296875E-05	1683.71547074903
0.61065673828125	2.318115234375E-05	1683.724320749
0.615081787109375	2.3931884765625E-05	1683.73317074898
0.6195068359375	2.3822021484375E-05	1683.74202074896
0.623931884765625	2.44903564453125E-05	1683.75087074894
0.62835693359375	2.5177001953125E-05	1683.75972074892
0.632781982421875	2.5225830078125E-05	1683.76857074889
0.63720703125	2.55462646484375E-05	1683.77742074887
0.641632080078125	2.5775146484375E-05	1683.78627074885
0.64605712890625	2.63214111328125E-05	1683.79512074883
0.650482177734375	2.69683837890625E-05	1683.8039707488
0.6549072265625	2.72918701171875E-05	1683.81282074878
0.659332275390625	2.769775390625E-05	1683.82167074876
0.66375732421875	2.81341552734375E-05	1683.83052074874
0.668182373046875	2.88360595703125E-05	1683.83937074871
0.672607421875	2.92388916015625E-05	1683.84822074869
0.677032470703125	2.97882080078125E-05	1683.85707074867
0.68145751953125	3.03253173828125E-05	1683.86592074865
0.685882568359375	3.0938720703125E-05	1683.87477074862
0.6903076171875	3.15093994140625E-05	1683.8836207486
0.694732666015625	3.22357177734375E-05	1683.89247074858
0.69915771484375	3.26202392578125E-05	1683.90132074856
0.703582763671875	3.323974609375E-05	1683.91017074854
0.69915771484375	7.7056884765625E-06	1683.91902074851
0.694732666015625	2.398681640625E-06	1683.92787074849
0.6903076171875	-1.0504150390625E-06	1683.93672074847
0.685882568359375	-3.3477783203125E-06	1683.94557074845
0.68145751953125	-5.26123046875E-06	1683.95442074842
0.677032470703125	-6.5155029296875E-06	1683.9632707484
0.672607421875	-7.4859619140625E-06	1683.97212074838
0.668182373046875	-8.6090087890625E-06	1683.98097074836
0.66375732421875	-9.527587890625E-06	1683.98982074833
0.659332275390625	-1.03271484375E-05	1683.99867074831
0.6549072265625	-1.0748291015625E-05	1684.00752074829
0.650482177734375	-1.141357421875E-05	1684.01637074827
0.64605712890625	-1.1627197265625E-05	1684.02522074824
0.641632080078125	-1.21673583984375E-05	1684.03407074822
0.63720703125	-1.256103515625E-05	1684.0429207482
0.632781982421875	-1.285400390625E-05	1684.05177074818
0.62835693359375	-1.331787109375E-05	1684.06062074816
0.623931884765625	-1.36077880859375E-05	1684.06947074813
0.6195068359375	-1.36962890625E-05	1684.07832074811
0.615081787109375	-1.35833740234375E-05	1684.08717074809
0.61065673828125	-1.370849609375E-05	1684.09602074807
0.606231689453125	-1.41387939453125E-05	1684.10487074804
0.601806640625	-1.419677734375E-05	1684.11372074802
0.597381591796875	-1.43524169921875E-05	1684.122570748
0.59295654296875	-1.44195556640625E-05	1684.13142074798
0.588531494140625	-1.436767578125E-05	1684.14027074795
0.5841064453125	-1.44439697265625E-05	1684.14912074793
0.579681396484375	-1.4984130859375E-05	1684.15797074791
0.57525634765625	-1.48223876953125E-05	1684.16682074789
0.570831298828125	-1.495361328125E-05	1684.17567074787
0.56640625	-1.4837646484375E-05	1684.18452074784
0.561981201171875	-1.48895263671875E-05	1684.19337074782
0.55755615234375	-1.50421142578125E-05	1684.2022207478
0.553131103515625	-1.47369384765625E-05	1684.21107074778
0.5487060546875	-1.49658203125E-05	1684.21992074775
0.544281005859375	-1.5057373046875E-05	1684.22877074773
0.53985595703125	-1.49932861328125E-05	1684.23762074771
0.535430908203125	-1.4959716796875E-05	1684.24647074769
0.531005859375	-1.50360107421875E-05	1684.25532074766
0.526580810546875	-1.52008056640625E-05	1684.26417074764
0.52215576171875	-1.50970458984375E-05	1684.27302074762
0.517730712890625	-1.53106689453125E-05	1684.2818707476
0.5133056640625	-1.49322509765625E-05	1684.29072074757
0.508880615234375	-1.5087890625E-05	1684.29957074755
0.50445556640625	-1.5057373046875E-05	1684.30842074753
0.500030517578125	-1.50787353515625E-05	1684.31727074751
0.49560546875	-1.50909423828125E-05	1684.32612074749
0.491180419921875	-1.495361328125E-05	1684.33497074746
0.48675537109375	-1.51519775390625E-05	1684.34382074744
0.482330322265625	-1.50238037109375E-05	1684.35267074742
0.4779052734375	-1.49169921875E-05	1684.3615207474
0.473480224609375	-1.50848388671875E-05	1684.37037074737
0.46905517578125	-1.4984130859375E-05	1684.37922074735
0.464630126953125	-1.50543212890625E-05	1684.38807074733
0.460205078125	-1.51885986328125E-05	1684.39692074731
0.455780029296875	-1.50543212890625E-05	1684.40577074728
0.45135498046875	-1.49932861328125E-05	1684.41462074726
0.446929931640625	-1.50848388671875E-05	1684.42347074724
0.4425048828125	-1.47308349609375E-05	1684.43232074722
0.438079833984375	-1.50604248046875E-05	1684.44117074719
0.43365478515625	-1.49749755859375E-05	1684.45002074717
0.429229736328125	-1.48345947265625E-05	1684.45887074715
0.4248046875	-1.48040771484375E-05	1684.46772074713
0.420379638671875	-1.48101806640625E-05	1684.47657074711
0.41595458984375	-1.48345947265625E-05	1684.48542074708
0.411529541015625	-1.4715576171875E-05	1684.49427074706
0.4071044921875	-1.484375E-05	1684.50312074704
0.402679443359375	-1.47857666015625E-05	1684.51197074702
0.39825439453125	-1.4764404296875E-05	1684.52082074699
0.393829345703125	-1.49322509765625E-05	1684.52967074697
0.389404296875	-1.488037109375E-05	1684.53852074695
0.384979248046875	-1.46881103515625E-05	1684.54737074693
0.38055419921875	-1.48468017578125E-05	1684.5562207469
0.376129150390625	-1.47705078125E-05	1684.56507074688
0.3717041015625	-1.48590087890625E-05	1684.57392074686
0.367279052734375	-1.49993896484375E-05	1684.58277074684
0.36285400390625	-1.47918701171875E-05	1684.59162074681
0.358428955078125	-1.50909423828125E-05	1684.60047074679
0.35400390625	-1.49505615234375E-05	1684.60932074677
0.349578857421875	-1.505126953125E-05	1684.61817074675
0.34515380859375	-1.49505615234375E-05	1684.62702074673
0.340728759765625	-1.49658203125E-05	1684.6358707467
0.3363037109375	-1.4935302734375E-05	1684.64472074668
0.331878662109375	-1.492919921875E-05	1684.65357074666
0.32745361328125	-1.51611328125E-05	1684.66242074664
0.323028564453125	-1.49017333984375E-05	1684.67127074661
0.318603515625	-1.492919921875E-05	1684.68012074659
0.314178466796875	-1.507568359375E-05	1684.68897074657
0.30975341796875	-1.4923095703125E-05	1684.69782074655
0.305328369140625	-1.502685546875E-05	1684.70667074652
0.3009033203125	-1.502685546875E-05	1684.7155207465
0.296478271484375	-1.5325927734375E-05	1684.72437074648
0.29205322265625	-1.505126953125E-05	1684.73322074646
0.287628173828125	-1.513671875E-05	1684.74207074644
0.283203125	-1.5301513671875E-05	1684.75092074641
0.278778076171875	-1.52069091796875E-05	1684.75977074639
0.27435302734375	-1.5277099609375E-05	1684.76862074637
0.269927978515625	-1.50848388671875E-05	1684.77747074635
0.2655029296875	-1.5283203125E-05	1684.78632074632
0.261077880859375	-1.52313232421875E-05	1684.7951707463
0.25665283203125	-1.54876708984375E-05	1684.80402074628
0.252227783203125	-1.5191650390625E-05	1684.81287074626
0.247802734375	-1.56158447265625E-05	1684.82172074623
0.243377685546875	-1.56463623046875E-05	1684.83057074621
0.23895263671875	-1.5472412109375E-05	1684.83942074619
0.234527587890625	-1.5863037109375E-05	1684.84827074617
0.2301025390625	-1.5777587890625E-05	1684.85712074614
0.225677490234375	-1.57958984375E-05	1684.86597074612
0.22125244140625	-1.6015625E-05	1684.8748207461
0.216827392578125	-1.61773681640625E-05	1684.88367074608
0.21240234375	-1.62078857421875E-05	1684.89252074606
0.207977294921875	-1.6363525390625E-05	1684.90137074603
0.20355224609375	-1.661376953125E-05	1684.91022074601
0.199127197265625	-1.66107177734375E-05	1684.91907074599
0.1947021484375	-1.6741943359375E-05	1684.92792074597
0.190277099609375	-1.68670654296875E-05	1684.93677074594
0.18585205078125	-1.7095947265625E-05	1684.94562074592
0.181427001953125	-1.724853515625E-05	1684.9544707459
0.177001953125	-1.71295166015625E-05	1684.96332074588
0.172576904296875	-1.72393798828125E-05	1684.97217074585
0.16815185546875	-1.75140380859375E-05	1684.98102074583
0.163726806640625	-1.73492431640625E-05	1684.98987074581
0.1593017578125	-1.76849365234375E-05	1684.99872074579
0.154876708984375	-1.773681640625E-05	1685.00757074576
0.15045166015625	-1.78863525390625E-05	1685.01642074574
0.146026611328125	-1.79901123046875E-05	1685.02527074572
0.1416015625	-1.81854248046875E-05	1685.0341207457
0.137176513671875	-1.8475341796875E-05	1685.04297074568
0.13275146484375	-1.85333251953125E-05	1685.05182074565
0.128326416015625	-1.8701171875E-05	1685.06067074563
0.1239013671875	-1.89056396484375E-05	1685.06952074561
0.119476318359375	-1.91558837890625E-05	1685.07837074559
0.11505126953125	-1.93878173828125E-05	1685.08722074556
0.110626220703125	-1.982421875E-05	1685.09607074554
0.106201171875	-1.99432373046875E-05	1685.10492074552
0.101776123046875	-1.968994140625E-05	1685.1137707455
0.09735107421875	-2.05291748046875E-05	1685.12262074547
0.092926025390625	-2.10662841796875E-05	1685.13147074545
0.0885009765625	-2.16705322265625E-05	1685.14032074543
0.084075927734375	-2.17864990234375E-05	1685.14917074541
0.07965087890625	-2.23846435546875E-05	1685.15802074538
0.075225830078125	-2.26348876953125E-05	1685.16687074536
0.07080078125	-2.33489990234375E-05	1685.17572074534
0.066375732421875	-2.35382080078125E-05	1685.18457074532
0.06195068359375	-2.41424560546875E-05	1685.1934207453
0.057525634765625	-2.4578857421875E-05	1685.20227074527
0.0531005859375	-2.4688720703125E-05	1685.21112074525
0.048675537109375	-2.51007080078125E-05	1685.21997074523
0.04425048828125	-2.5628662109375E-05	1685.22882074521
0.039825439453125	-2.54241943359375E-05	1685.23767074518
0.035400390625	-2.5628662109375E-05	1685.24652074516
0.030975341796875	-2.58880615234375E-05	1685.25537074514
0.02655029296875	-2.58636474609375E-05	1685.26422074512
0.022125244140625	-2.5848388671875E-05	1685.27307074509
0.0177001953125	-2.5872802734375E-05	1685.28192074507
0.013275146484375	-2.59490966796875E-05	1685.29077074505
0.00885009765625	-2.61474609375E-05	1685.29962074503
0.004425048828125	-2.58819580078125E-05	1685.30847074501
0	-2.61260986328125E-05	1685.31732074498
0.004425048828125	-6.5185546875E-06	1685.32617074496
0.00885009765625	-1.95343017578125E-06	1685.33502074494
0.013275146484375	5.1666259765625E-07	1685.34387074492
0.0177001953125	2.191162109375E-06	1685.35272074489
0.022125244140625	3.60107421875E-06	1685.36157074487
0.02655029296875	4.9957275390625E-06	1685.37042074485
0.030975341796875	6.558837890625E-06	1685.37927074483
0.035400390625	6.610107421875E-06	1685.3881207448
0.039825439453125	7.14111328125E-06	1685.39697074478
0.04425048828125	7.891845703125E-06	1685.40582074476
0.048675537109375	8.355712890625E-06	1685.41467074474
0.0531005859375	8.6395263671875E-06	1685.42352074471
0.057525634765625	9.36279296875E-06	1685.43237074469
0.06195068359375	9.3048095703125E-06	1685.44122074467
0.066375732421875	9.8602294921875E-06	1685.45007074465
0.07080078125	1.03424072265625E-05	1685.45892074463
0.075225830078125	1.0455322265625E-05	1685.4677707446
0.07965087890625	1.0601806640625E-05	1685.47662074458
0.084075927734375	1.09588623046875E-05	1685.48547074456
0.0885009765625	1.138916015625E-05	1685.49432074454
0.092926025390625	1.136474609375E-05	1685.50317074451
0.09735107421875	1.20635986328125E-05	1685.51202074449
0.101776123046875	1.1785888671875E-05	1685.52087074447
0.106201171875	1.2042236328125E-05	1685.52972074445
0.110626220703125	1.229248046875E-05	1685.53857074442
0.11505126953125	1.23443603515625E-05	1685.5474207444
0.119476318359375	1.2518310546875E-05	1685.55627074438
0.1239013671875	1.2518310546875E-05	1685.56512074436
0.128326416015625	1.265869140625E-05	1685.57397074433
0.13275146484375	1.2811279296875E-05	1685.58282074431
0.137176513671875	1.2890625E-05	1685.59167074429
0.1416015625	1.30828857421875E-05	1685.60052074427
0.146026611328125	1.29730224609375E-05	1685.60937074425
0.15045166015625	1.31500244140625E-05	1685.61822074422
0.154876708984375	1.30157470703125E-05	1685.6270707442
0.1593017578125	1.3165283203125E-05	1685.63592074418
0.163726806640625	1.32049560546875E-05	1685.64477074416
0.16815185546875	1.31500244140625E-05	1685.65362074413
0.172576904296875	1.3037109375E-05	1685.66247074411
0.177001953125	1.337890625E-05	1685.67132074409
0.181427001953125	1.33331298828125E-05	1685.68017074407
0.18585205078125	1.324462890625E-05	1685.68902074404
0.190277099609375	1.3275146484375E-05	1685.69787074402
0.1947021484375	1.326904296875E-05	1685.706720744
0.199127197265625	1.3116455078125E-05	1685.71557074398
0.20355224609375	1.32110595703125E-05	1685.72442074395
0.207977294921875	1.3116455078125E-05	1685.73327074393
0.21240234375	1.3226318359375E-05	1685.74212074391
0.216827392578125	1.32080078125E-05	1685.75097074389
0.22125244140625	1.33056640625E-05	1685.75982074387
0.225677490234375	1.2994384765625E-05	1685.76867074384
0.2301025390625	1.3311767578125E-05	1685.77752074382
0.234527587890625	1.34368896484375E-05	1685.7863707438
0.23895263671875	1.30035400390625E-05	1685.79522074378
0.243377685546875	1.30615234375E-05	1685.80407074375
0.247802734375	1.30767822265625E-05	1685.81292074373
0.252227783203125	1.3165283203125E-05	1685.82177074371
0.25665283203125	1.3372802734375E-05	1685.83062074369
0.261077880859375	1.32843017578125E-05	1685.83947074366
0.2655029296875	1.31256103515625E-05	1685.84832074364
0.269927978515625	1.32293701171875E-05	1685.85717074362
0.27435302734375	1.35040283203125E-05	1685.8660207436
0.278778076171875	1.35650634765625E-05	1685.87487074358
0.283203125	1.33148193359375E-05	1685.88372074355
0.287628173828125	1.32537841796875E-05	1685.89257074353
0.29205322265625	1.3043212890625E-05	1685.90142074351
0.296478271484375	1.31927490234375E-05	1685.91027074349
0.3009033203125	1.32904052734375E-05	1685.91912074346
0.305328369140625	1.31317138671875E-05	1685.92797074344
0.30975341796875	1.339111328125E-05	1685.93682074342
0.314178466796875	1.33941650390625E-05	1685.9456707434
0.318603515625	1.32049560546875E-05	1685.95452074337
0.323028564453125	1.319580078125E-05	1685.96337074335
0.32745361328125	1.32537841796875E-05	1685.97222074333
0.331878662109375	1.33819580078125E-05	1685.98107074331
0.3363037109375	1.34521484375E-05	1685.98992074328
0.340728759765625	1.37176513671875E-05	1685.99877074326
0.34515380859375	1.3763427734375E-05	1686.00762074324
0.349578857421875	1.38824462890625E-05	1686.01647074322
0.35400390625	1.40411376953125E-05	1686.0253207432
0.358428955078125	1.3861083984375E-05	1686.03417074317
0.36285400390625	1.3873291015625E-05	1686.04302074315
0.367279052734375	1.38641357421875E-05	1686.05187074313
0.3717041015625	1.43096923828125E-05	1686.06072074311
0.376129150390625	1.41387939453125E-05	1686.06957074308
0.38055419921875	1.42669677734375E-05	1686.07842074306
0.384979248046875	1.417236328125E-05	1686.08727074304
0.389404296875	1.4837646484375E-05	1686.09612074302
0.393829345703125	1.43402099609375E-05	1686.10497074299
0.39825439453125	1.46240234375E-05	1686.11382074297
0.402679443359375	1.48834228515625E-05	1686.12267074295
0.4071044921875	1.4801025390625E-05	1686.13152074293
0.411529541015625	1.50146484375E-05	1686.1403707429
0.41595458984375	1.49017333984375E-05	1686.14922074288
0.420379638671875	1.53228759765625E-05	1686.15807074286
0.4248046875	1.50543212890625E-05	1686.16692074284
0.429229736328125	1.5203857421875E-05	1686.17577074282
0.43365478515625	1.546630859375E-05	1686.18462074279
0.438079833984375	1.5362548828125E-05	1686.19347074277
0.4425048828125	1.5374755859375E-05	1686.20232074275
0.446929931640625	1.56097412109375E-05	1686.21117074273
0.45135498046875	1.578369140625E-05	1686.2200207427
0.455780029296875	1.5887451171875E-05	1686.22887074268
0.460205078125	1.6119384765625E-05	1686.23772074266
0.464630126953125	1.607666015625E-05	1686.24657074264
0.46905517578125	1.61834716796875E-05	1686.25542074261
0.473480224609375	1.612548828125E-05	1686.26427074259
0.4779052734375	1.6522216796875E-05	1686.27312074257
0.482330322265625	1.66656494140625E-05	1686.28197074255
0.48675537109375	1.69830322265625E-05	1686.29082074252
0.491180419921875	1.70257568359375E-05	1686.2996707425
0.49560546875	1.69921875E-05	1686.30852074248
0.500030517578125	1.72576904296875E-05	1686.31737074246
0.50445556640625	1.77001953125E-05	1686.32622074244
0.508880615234375	1.783447265625E-05	1686.33507074241
0.5133056640625	1.8084716796875E-05	1686.34392074239
0.517730712890625	1.8048095703125E-05	1686.35277074237
0.52215576171875	1.82769775390625E-05	1686.36162074235
0.526580810546875	1.84783935546875E-05	1686.37047074232
0.531005859375	1.8267822265625E-05	1686.3793207423
0.535430908203125	1.89361572265625E-05	1686.38817074228
0.53985595703125	1.91314697265625E-05	1686.39702074226
0.544281005859375	1.95892333984375E-05	1686.40587074223
0.5487060546875	1.92230224609375E-05	1686.41472074221
0.553131103515625	1.9793701171875E-05	1686.42357074219
0.55755615234375	1.99462890625E-05	1686.43242074217
0.561981201171875	1.98516845703125E-05	1686.44127074215
0.56640625	2.03857421875E-05	1686.45012074212
0.570831298828125	2.05352783203125E-05	1686.4589707421
0.57525634765625	2.08251953125E-05	1686.46782074208
0.579681396484375	2.09503173828125E-05	1686.47667074206
0.5841064453125	2.17041015625E-05	1686.48552074203
0.588531494140625	2.1630859375E-05	1686.49437074201
0.59295654296875	2.1820068359375E-05	1686.50322074199
0.597381591796875	2.247314453125E-05	1686.51207074197
0.601806640625	2.2283935546875E-05	1686.52092074194
0.606231689453125	2.33154296875E-05	1686.52977074192
0.61065673828125	2.3046875E-05	1686.5386207419
0.615081787109375	2.35809326171875E-05	1686.54747074188
0.6195068359375	2.3760986328125E-05	1686.55632074185
0.623931884765625	2.40631103515625E-05	1686.56517074183
0.62835693359375	2.48199462890625E-05	1686.57402074181
0.632781982421875	2.4945068359375E-05	1686.58287074179
0.63720703125	2.55035400390625E-05	1686.59172074177
0.641632080078125	2.5830078125E-05	1686.60057074174
0.64605712890625	2.61810302734375E-05	1686.60942074172
0.650482177734375	2.6702880859375E-05	1686.6182707417
0.6549072265625	2.703857421875E-05	1686.62712074168
0.659332275390625	2.7587890625E-05	1686.63597074165
0.66375732421875	2.7972412109375E-05	1686.64482074163
0.668182373046875	2.84515380859375E-05	1686.65367074161
0.672607421875	2.8936767578125E-05	1686.66252074159
0.677032470703125	2.96844482421875E-05	1686.67137074156
0.68145751953125	3.01361083984375E-05	1686.68022074154
0.685882568359375	3.0523681640625E-05	1686.68907074152
0.6903076171875	3.114013671875E-05	1686.6979207415
0.694732666015625	3.17596435546875E-05	1686.70677074147
0.69915771484375	3.24188232421875E-05	1686.71562074145
0.703582763671875	3.30780029296875E-05	1686.72447074143
0.69915771484375	7.1563720703125E-06	1686.73332074141
0.694732666015625	1.9451904296875E-06	1686.74217074139
0.6903076171875	-1.31103515625E-06	1686.75102074136
0.685882568359375	-3.3660888671875E-06	1686.75987074134
0.68145751953125	-5.3314208984375E-06	1686.76872074132
0.677032470703125	-6.5460205078125E-06	1686.7775707413
0.672607421875	-7.7423095703125E-06	1686.78642074127
0.668182373046875	-8.6883544921875E-06	1686.79527074125
0.66375732421875	-9.58251953125E-06	1686.80412074123
0.659332275390625	-1.02783203125E-05	1686.81297074121
0.6549072265625	-1.09375E-05	1686.82182074118
0.650482177734375	-1.12030029296875E-05	1686.83067074116
0.64605712890625	-1.15447998046875E-05	1686.83952074114
0.641632080078125	-1.240234375E-05	1686.84837074112
0.63720703125	-1.26190185546875E-05	1686.85722074109
0.632781982421875	-1.2847900390625E-05	1686.86607074107
0.62835693359375	-1.312255859375E-05	1686.87492074105
0.623931884765625	-1.36566162109375E-05	1686.88377074103
0.6195068359375	-1.36199951171875E-05	1686.89262074101
0.615081787109375	-1.37542724609375E-05	1686.90147074098
0.61065673828125	-1.40960693359375E-05	1686.91032074096
0.606231689453125	-1.39801025390625E-05	1686.91917074094
0.601806640625	-1.427001953125E-05	1686.92802074092
0.597381591796875	-1.42364501953125E-05	1686.93687074089
0.59295654296875	-1.44744873046875E-05	1686.94572074087
0.588531494140625	-1.4617919921875E-05	1686.95457074085
0.5841064453125	-1.46820068359375E-05	1686.96342074083
0.579681396484375	-1.48345947265625E-05	1686.9722707408
0.57525634765625	-1.46636962890625E-05	1686.98112074078
0.570831298828125	-1.488037109375E-05	1686.98997074076
0.56640625	-1.46240234375E-05	1686.99882074074
0.561981201171875	-1.4935302734375E-05	1687.00767074072
0.55755615234375	-1.507568359375E-05	1687.01652074069
0.553131103515625	-1.4923095703125E-05	1687.02537074067
0.5487060546875	-1.50482177734375E-05	1687.03422074065
0.544281005859375	-1.51580810546875E-05	1687.04307074063
0.53985595703125	-1.5277099609375E-05	1687.0519207406
0.535430908203125	-1.50054931640625E-05	1687.06077074058
0.531005859375	-1.502685546875E-05	1687.06962074056
0.526580810546875	-1.50787353515625E-05	1687.07847074054
0.52215576171875	-1.50390625E-05	1687.08732074051
0.517730712890625	-1.49505615234375E-05	1687.09617074049
0.5133056640625	-1.546630859375E-05	1687.10502074047
0.508880615234375	-1.502685546875E-05	1687.11387074045
0.50445556640625	-1.48468017578125E-05	1687.12272074042
0.500030517578125	-1.49444580078125E-05	1687.1315707404
0.49560546875	-1.4862060546875E-05	1687.14042074038
0.491180419921875	-1.512451171875E-05	1687.14927074036
0.48675537109375	-1.53961181640625E-05	1687.15812074034
0.482330322265625	-1.49749755859375E-05	1687.16697074031
0.4779052734375	-1.524658203125E-05	1687.17582074029
0.473480224609375	-1.4764404296875E-05	1687.18467074027
0.46905517578125	-1.4947509765625E-05	1687.19352074025
0.464630126953125	-1.50115966796875E-05	1687.20237074022
0.460205078125	-1.4837646484375E-05	1687.2112207402
0.455780029296875	-1.51397705078125E-05	1687.22007074018
0.45135498046875	-1.512451171875E-05	1687.22892074016
0.446929931640625	-1.47796630859375E-05	1687.23777074013
0.4425048828125	-1.48712158203125E-05	1687.24662074011
0.438079833984375	-1.4935302734375E-05	1687.25547074009
0.43365478515625	-1.494140625E-05	1687.26432074007
0.429229736328125	-1.48590087890625E-05	1687.27317074004
0.4248046875	-1.4697265625E-05	1687.28202074002
0.420379638671875	-1.485595703125E-05	1687.29087074
0.41595458984375	-1.47918701171875E-05	1687.29972073998
0.411529541015625	-1.49383544921875E-05	1687.30857073996
0.4071044921875	-1.48651123046875E-05	1687.31742073993
0.402679443359375	-1.46453857421875E-05	1687.32627073991
0.39825439453125	-1.49566650390625E-05	1687.33512073989
0.393829345703125	-1.47674560546875E-05	1687.34397073987
0.389404296875	-1.48345947265625E-05	1687.35282073984
0.384979248046875	-1.47674560546875E-05	1687.36167073982
0.38055419921875	-1.45751953125E-05	1687.3705207398
0.376129150390625	-1.52099609375E-05	1687.37937073978
0.3717041015625	-1.495361328125E-05	1687.38822073975
0.367279052734375	-1.4825439453125E-05	1687.39707073973
0.36285400390625	-1.4764404296875E-05	1687.40592073971
0.358428955078125	-1.46697998046875E-05	1687.41477073969
0.35400390625	-1.502685546875E-05	1687.42362073966
0.349578857421875	-1.50848388671875E-05	1687.43247073964
0.34515380859375	-1.5179443359375E-05	1687.44132073962
0.340728759765625	-1.50390625E-05	1687.4501707396
0.3363037109375	-1.48681640625E-05	1687.45902073958
0.331878662109375	-1.53594970703125E-05	1687.46787073955
0.32745361328125	-1.53350830078125E-05	1687.47672073953
0.323028564453125	-1.5252685546875E-05	1687.48557073951
0.318603515625	-1.505126953125E-05	1687.49442073949
0.314178466796875	-1.52496337890625E-05	1687.50327073946
0.30975341796875	-1.52313232421875E-05	1687.51212073944
0.305328369140625	-1.51458740234375E-05	1687.52097073942
0.3009033203125	-1.4898681640625E-05	1687.5298207394
0.296478271484375	-1.500244140625E-05	1687.53867073937
0.29205322265625	-1.50054931640625E-05	1687.54752073935
0.287628173828125	-1.5069580078125E-05	1687.55637073933
0.283203125	-1.52008056640625E-05	1687.56522073931
0.278778076171875	-1.5020751953125E-05	1687.57407073929
0.27435302734375	-1.5081787109375E-05	1687.58292073926
0.269927978515625	-1.51763916015625E-05	1687.59177073924
0.2655029296875	-1.5411376953125E-05	1687.60062073922
0.261077880859375	-1.5191650390625E-05	1687.6094707392
0.25665283203125	-1.54571533203125E-05	1687.61832073917
0.252227783203125	-1.55181884765625E-05	1687.62717073915
0.247802734375	-1.56280517578125E-05	1687.63602073913
0.243377685546875	-1.5631103515625E-05	1687.64487073911
0.23895263671875	-1.56890869140625E-05	1687.65372073908
0.234527587890625	-1.5765380859375E-05	1687.66257073906
0.2301025390625	-1.59942626953125E-05	1687.67142073904
0.225677490234375	-1.6119384765625E-05	1687.68027073902
0.22125244140625	-1.5966796875E-05	1687.68912073899
0.216827392578125	-1.595458984375E-05	1687.69797073897
0.21240234375	-1.639404296875E-05	1687.70682073895
0.207977294921875	-1.636962890625E-05	1687.71567073893
0.20355224609375	-1.6485595703125E-05	1687.72452073891
0.199127197265625	-1.666259765625E-05	1687.73337073888
0.1947021484375	-1.66961669921875E-05	1687.74222073886
0.190277099609375	-1.678466796875E-05	1687.75107073884
0.18585205078125	-1.707763671875E-05	1687.75992073882
0.181427001953125	-1.7041015625E-05	1687.76877073879
0.177001953125	-1.7144775390625E-05	1687.77762073877
0.172576904296875	-1.748046875E-05	1687.78647073875
0.16815185546875	-1.75140380859375E-05	1687.79532073873
0.163726806640625	-1.74896240234375E-05	1687.8041707387
0.1593017578125	-1.776123046875E-05	1687.81302073868
0.154876708984375	-1.778564453125E-05	1687.82187073866
0.15045166015625	-1.790771484375E-05	1687.83072073864
0.146026611328125	-1.81640625E-05	1687.83957073861
0.1416015625	-1.832275390625E-05	1687.84842073859
0.137176513671875	-1.8328857421875E-05	1687.85727073857
0.13275146484375	-1.85699462890625E-05	1687.86612073855
0.128326416015625	-1.873779296875E-05	1687.87497073853
0.1239013671875	-1.89849853515625E-05	1687.8838207385
0.119476318359375	-1.91558837890625E-05	1687.89267073848
0.11505126953125	-1.94549560546875E-05	1687.90152073846
0.110626220703125	-1.97235107421875E-05	1687.91037073844
0.106201171875	-1.99859619140625E-05	1687.91922073841
0.101776123046875	-2.037353515625E-05	1687.92807073839
0.09735107421875	-2.0562744140625E-05	1687.93692073837
0.092926025390625	-2.091064453125E-05	1687.94577073835
0.0885009765625	-2.1502685546875E-05	1687.95462073832
0.084075927734375	-2.16766357421875E-05	1687.9634707383
0.07965087890625	-2.22625732421875E-05	1687.97232073828
0.075225830078125	-2.28912353515625E-05	1687.98117073826
0.07080078125	-2.29949951171875E-05	1687.99002073823
0.066375732421875	-2.3675537109375E-05	1687.99887073821
0.06195068359375	-2.437744140625E-05	1688.00772073819
0.057525634765625	-2.4591064453125E-05	1688.01657073817
0.0531005859375	-2.47650146484375E-05	1688.02542073815
0.048675537109375	-2.5146484375E-05	1688.03427073812
0.04425048828125	-2.5494384765625E-05	1688.0431207381
0.039825439453125	-2.56103515625E-05	1688.05197073808
0.035400390625	-2.57781982421875E-05	1688.06082073806
0.030975341796875	-2.58697509765625E-05	1688.06967073803
0.02655029296875	-2.5909423828125E-05	1688.07852073801
0.022125244140625	-2.59033203125E-05	1688.08737073799
0.0177001953125	-2.60528564453125E-05	1688.09622073797
0.013275146484375	-2.58453369140625E-05	1688.10507073794
0.00885009765625	-2.58880615234375E-05	1688.11392073792
0.004425048828125	-2.56622314453125E-05	1688.1227707379
0	-2.6080322265625E-05	1688.13162073788
0.004425048828125	-6.8084716796875E-06	1688.14047073786
0.00885009765625	-2.281494140625E-06	1688.14932073783
0.013275146484375	5.9844970703125E-07	1688.15817073781
