Potential applied (V)	WE(1).Current (A)	Time (s)
0.004425048828125	-4.0863037109375E-07	860.579314827246
0.00885009765625	-3.558349609375E-07	861.021819826129
0.013275146484375	-2.9083251953125E-07	861.464324825012
0.0177001953125	-2.6519775390625E-07	861.906829823894
0.022125244140625	-1.806640625E-07	862.349334822777
0.02655029296875	-1.953125E-07	862.79183982166
0.030975341796875	-1.7242431640625E-07	863.234344820543
0.035400390625	-1.37939453125E-07	863.676849819426
0.039825439453125	-1.446533203125E-07	864.119354818308
0.04425048828125	-1.08642578125E-07	864.561859817191
0.048675537109375	-1.15966796875E-07	865.004364816074
0.0531005859375	-9.490966796875E-08	865.446869814957
0.057525634765625	-1.0101318359375E-07	865.889374813839
0.06195068359375	-6.28662109375E-08	866.331879812722
0.066375732421875	-2.655029296875E-08	866.774384811605
0.07080078125	-2.38037109375E-08	867.216889810488
0.075225830078125	-2.838134765625E-08	867.659394809371
0.07965087890625	3.0517578125E-10	868.101899808253
0.084075927734375	-6.7138671875E-09	868.544404807136
0.0885009765625	4.180908203125E-08	868.986909806019
0.092926025390625	2.685546875E-08	869.429414804902
0.09735107421875	5.950927734375E-08	869.871919803785
0.101776123046875	5.523681640625E-08	870.314424802667
0.106201171875	9.3994140625E-08	870.75692980155
0.110626220703125	1.0223388671875E-07	871.199434800433
0.11505126953125	6.805419921875E-08	871.641939799316
0.119476318359375	8.23974609375E-08	872.084444798198
0.1239013671875	8.880615234375E-08	872.526949797081
0.128326416015625	1.0894775390625E-07	872.969454795964
0.13275146484375	9.674072265625E-08	873.411959794847
0.137176513671875	1.23291015625E-07	873.85446479373
0.1416015625	1.0833740234375E-07	874.296969792612
0.146026611328125	1.1444091796875E-07	874.739474791495
0.15045166015625	1.0040283203125E-07	875.181979790378
0.154876708984375	1.4251708984375E-07	875.624484789261
0.1593017578125	1.2786865234375E-07	876.066989788143
0.163726806640625	9.124755859375E-08	876.509494787026
0.16815185546875	1.1962890625E-07	876.951999785909
0.172576904296875	1.1505126953125E-07	877.394504784792
0.177001953125	1.0986328125E-07	877.837009783675
0.181427001953125	1.4434814453125E-07	878.279514782557
0.18585205078125	1.1260986328125E-07	878.72201978144
0.190277099609375	1.1627197265625E-07	879.164524780323
0.1947021484375	1.40380859375E-07	879.607029779206
0.199127197265625	9.918212890625E-08	880.049534778089
0.20355224609375	1.3458251953125E-07	880.492039776971
0.207977294921875	1.2969970703125E-07	880.934544775854
0.21240234375	9.6435546875E-08	881.377049774737
0.216827392578125	9.6435546875E-08	881.81955477362
0.22125244140625	1.1688232421875E-07	882.262059772502
0.225677490234375	1.519775390625E-07	882.704564771385
0.2301025390625	1.1627197265625E-07	883.147069770268
0.234527587890625	1.4068603515625E-07	883.589574769151
0.23895263671875	1.4556884765625E-07	884.032079768034
0.243377685546875	1.4892578125E-07	884.474584766916
0.247802734375	1.788330078125E-07	884.917089765799
0.252227783203125	1.385498046875E-07	885.359594764682
0.25665283203125	1.33056640625E-07	885.802099763565
0.261077880859375	1.3580322265625E-07	886.244604762447
0.2655029296875	1.30615234375E-07	886.68710976133
0.269927978515625	1.531982421875E-07	887.129614760213
0.27435302734375	1.507568359375E-07	887.572119759096
0.278778076171875	1.4007568359375E-07	888.014624757979
0.283203125	1.373291015625E-07	888.457129756861
0.287628173828125	1.2908935546875E-07	888.899634755744
0.29205322265625	1.641845703125E-07	889.342139754627
0.296478271484375	1.6510009765625E-07	889.78464475351
0.3009033203125	1.513671875E-07	890.227149752393
0.305328369140625	1.30615234375E-07	890.669654751275
0.30975341796875	1.690673828125E-07	891.112159750158
0.314178466796875	1.5045166015625E-07	891.554664749041
0.318603515625	1.788330078125E-07	891.997169747924
0.323028564453125	1.4862060546875E-07	892.439674746806
0.32745361328125	1.5350341796875E-07	892.882179745689
0.331878662109375	1.470947265625E-07	893.324684744572
0.3363037109375	1.5289306640625E-07	893.767189743455
0.340728759765625	2.0294189453125E-07	894.209694742338
0.34515380859375	1.77001953125E-07	894.65219974122
0.349578857421875	1.519775390625E-07	895.094704740103
0.35400390625	1.9134521484375E-07	895.537209738986
0.358428955078125	1.898193359375E-07	895.979714737869
0.36285400390625	1.8524169921875E-07	896.422219736751
0.367279052734375	1.8035888671875E-07	896.864724735634
0.3717041015625	2.0843505859375E-07	897.307229734517
0.376129150390625	2.0050048828125E-07	897.7497347334
0.38055419921875	1.8157958984375E-07	898.192239732283
0.384979248046875	2.0782470703125E-07	898.634744731165
0.389404296875	1.9683837890625E-07	899.077249730048
0.393829345703125	2.3834228515625E-07	899.519754728931
0.39825439453125	1.7974853515625E-07	899.962259727814
0.402679443359375	2.1728515625E-07	900.404764726696
0.4071044921875	2.0111083984375E-07	900.847269725579
0.411529541015625	2.0172119140625E-07	901.289774724462
0.41595458984375	2.47802734375E-07	901.732279723345
0.420379638671875	2.5482177734375E-07	902.174784722228
0.4248046875	2.6397705078125E-07	902.61728972111
0.429229736328125	2.3101806640625E-07	903.059794719993
0.43365478515625	2.5054931640625E-07	903.502299718876
0.438079833984375	2.5115966796875E-07	903.944804717759
0.4425048828125	2.57568359375E-07	904.387309716642
0.446929931640625	3.118896484375E-07	904.829814715524
0.45135498046875	2.9571533203125E-07	905.272319714407
0.455780029296875	2.7801513671875E-07	905.71482471329
0.460205078125	2.978515625E-07	906.157329712173
0.464630126953125	2.77099609375E-07	906.599834711055
0.46905517578125	2.716064453125E-07	907.042339709938
0.473480224609375	3.5888671875E-07	907.484844708821
0.4779052734375	3.1829833984375E-07	907.927349707704
0.482330322265625	3.5369873046875E-07	908.369854706587
0.48675537109375	3.0792236328125E-07	908.812359705469
0.491180419921875	3.6834716796875E-07	909.254864704352
0.49560546875	3.4271240234375E-07	909.697369703235
0.500030517578125	3.45458984375E-07	910.139874702118
0.50445556640625	3.7109375E-07	910.582379701
0.508880615234375	3.741455078125E-07	911.024884699883
0.5133056640625	3.9215087890625E-07	911.467389698766
0.517730712890625	4.0283203125E-07	911.909894697649
0.52215576171875	4.0313720703125E-07	912.352399696532
0.526580810546875	4.1290283203125E-07	912.794904695414
0.531005859375	4.364013671875E-07	913.237409694297
0.535430908203125	4.4677734375E-07	913.67991469318
0.53985595703125	4.6356201171875E-07	914.122419692063
0.544281005859375	4.736328125E-07	914.564924690946
0.5487060546875	5.029296875E-07	915.007429689828
0.553131103515625	4.94384765625E-07	915.449934688711
0.55755615234375	4.9163818359375E-07	915.892439687594
0.561981201171875	5.0628662109375E-07	916.334944686477
0.56640625	5.902099609375E-07	916.777449685359
0.570831298828125	5.60302734375E-07	917.219954684242
0.57525634765625	5.517578125E-07	917.662459683125
0.579681396484375	5.889892578125E-07	918.104964682008
0.5841064453125	5.8380126953125E-07	918.547469680891
0.588531494140625	5.804443359375E-07	918.989974679773
0.59295654296875	5.9600830078125E-07	919.432479678656
0.597381591796875	6.0821533203125E-07	919.874984677539
0.601806640625	6.2774658203125E-07	920.317489676422
0.606231689453125	6.8389892578125E-07	920.759994675304
0.61065673828125	6.7535400390625E-07	921.202499674187
0.615081787109375	6.7352294921875E-07	921.64500467307
0.6195068359375	7.159423828125E-07	922.087509671953
0.623931884765625	7.623291015625E-07	922.530014670836
0.62835693359375	7.60498046875E-07	922.972519669718
0.632781982421875	7.8643798828125E-07	923.415024668601
0.63720703125	8.1085205078125E-07	923.857529667484
0.641632080078125	8.2855224609375E-07	924.300034666367
0.64605712890625	8.5113525390625E-07	924.74253966525
0.650482177734375	8.6822509765625E-07	925.185044664132
0.6549072265625	9.0057373046875E-07	925.627549663015
0.659332275390625	9.70458984375E-07	926.070054661898
0.66375732421875	9.6954345703125E-07	926.512559660781
0.668182373046875	9.9456787109375E-07	926.955064659663
0.672607421875	1.0565185546875E-06	927.397569658546
0.677032470703125	1.0614013671875E-06	927.840074657429
0.68145751953125	1.134033203125E-06	928.282579656312
0.685882568359375	1.14715576171875E-06	928.725084655195
0.6903076171875	1.2078857421875E-06	929.167589654077
0.694732666015625	1.25152587890625E-06	929.61009465296
0.69915771484375	1.36444091796875E-06	930.052599651843
0.703582763671875	1.32232666015625E-06	930.495104650726
0.69915771484375	1.0137939453125E-06	930.937609649608
0.694732666015625	8.1512451171875E-07	931.380114648491
0.6903076171875	6.3812255859375E-07	931.822619647374
0.685882568359375	5.0933837890625E-07	932.265124646257
0.68145751953125	4.0374755859375E-07	932.70762964514
0.677032470703125	3.1494140625E-07	933.150134644022
0.672607421875	2.294921875E-07	933.592639642905
0.668182373046875	2.020263671875E-07	934.035144641788
0.66375732421875	1.153564453125E-07	934.477649640671
0.659332275390625	8.819580078125E-08	934.920154639554
0.6549072265625	3.570556640625E-08	935.362659638436
0.650482177734375	6.40869140625E-09	935.805164637319
0.64605712890625	-2.25830078125E-08	936.247669636202
0.641632080078125	-3.814697265625E-08	936.690174635085
0.63720703125	-7.354736328125E-08	937.132679633967
0.632781982421875	-1.01318359375E-07	937.57518463285
0.62835693359375	-1.214599609375E-07	938.017689631733
0.623931884765625	-1.513671875E-07	938.460194630616
0.6195068359375	-1.9989013671875E-07	938.902699629499
0.615081787109375	-1.35498046875E-07	939.345204628381
0.61065673828125	-1.8157958984375E-07	939.787709627264
0.606231689453125	-2.3406982421875E-07	940.230214626147
0.601806640625	-2.1728515625E-07	940.67271962503
0.597381591796875	-2.6092529296875E-07	941.115224623912
0.59295654296875	-2.349853515625E-07	941.557729622795
0.588531494140625	-2.691650390625E-07	942.000234621678
0.5841064453125	-2.4932861328125E-07	942.442739620561
0.579681396484375	-2.825927734375E-07	942.885244619444
0.57525634765625	-2.9541015625E-07	943.327749618326
0.570831298828125	-2.9937744140625E-07	943.770254617209
0.56640625	-3.2318115234375E-07	944.212759616092
0.561981201171875	-3.0670166015625E-07	944.655264614975
0.55755615234375	-3.076171875E-07	945.097769613858
0.553131103515625	-2.9205322265625E-07	945.54027461274
0.5487060546875	-3.240966796875E-07	945.982779611623
0.544281005859375	-3.1829833984375E-07	946.425284610506
0.53985595703125	-3.5400390625E-07	946.867789609389
0.535430908203125	-3.3660888671875E-07	947.310294608271
0.531005859375	-3.411865234375E-07	947.752799607154
0.526580810546875	-3.28369140625E-07	948.195304606037
0.52215576171875	-2.972412109375E-07	948.63780960492
0.517730712890625	-3.2806396484375E-07	949.080314603803
0.5133056640625	-3.2562255859375E-07	949.522819602685
0.508880615234375	-3.3447265625E-07	949.965324601568
0.50445556640625	-3.3935546875E-07	950.407829600451
0.500030517578125	-3.33251953125E-07	950.850334599334
0.49560546875	-3.2623291015625E-07	951.292839598216
0.491180419921875	-3.3843994140625E-07	951.735344597099
0.48675537109375	-3.6712646484375E-07	952.177849595982
0.482330322265625	-3.411865234375E-07	952.620354594865
0.4779052734375	-3.8665771484375E-07	953.062859593748
0.473480224609375	-3.5308837890625E-07	953.50536459263
0.46905517578125	-3.6041259765625E-07	953.947869591513
0.464630126953125	-3.40576171875E-07	954.390374590396
0.460205078125	-3.7322998046875E-07	954.832879589279
0.455780029296875	-3.6529541015625E-07	955.275384588162
0.45135498046875	-3.5247802734375E-07	955.717889587044
0.446929931640625	-3.662109375E-07	956.160394585927
0.4425048828125	-3.4912109375E-07	956.60289958481
0.438079833984375	-3.619384765625E-07	957.045404583693
0.43365478515625	-3.3050537109375E-07	957.487909582575
0.429229736328125	-3.558349609375E-07	957.930414581458
0.4248046875	-3.497314453125E-07	958.372919580341
0.420379638671875	-3.3905029296875E-07	958.815424579224
0.41595458984375	-3.40576171875E-07	959.257929578107
0.411529541015625	-3.5675048828125E-07	959.700434576989
0.4071044921875	-3.619384765625E-07	960.142939575872
0.402679443359375	-3.7109375E-07	960.585444574755
0.39825439453125	-3.4576416015625E-07	961.027949573638
0.393829345703125	-3.4912109375E-07	961.47045457252
0.389404296875	-3.472900390625E-07	961.912959571403
0.384979248046875	-3.5736083984375E-07	962.355464570286
0.38055419921875	-3.6651611328125E-07	962.797969569169
0.376129150390625	-3.5980224609375E-07	963.240474568052
0.3717041015625	-3.8543701171875E-07	963.682979566934
0.367279052734375	-3.5919189453125E-07	964.125484565817
0.36285400390625	-3.7689208984375E-07	964.5679895647
0.358428955078125	-3.3203125E-07	965.010494563583
0.35400390625	-3.80859375E-07	965.452999562465
0.349578857421875	-3.729248046875E-07	965.895504561348
0.34515380859375	-3.7689208984375E-07	966.338009560231
0.340728759765625	-3.5614013671875E-07	966.780514559114
0.3363037109375	-3.5858154296875E-07	967.223019557997
0.331878662109375	-3.509521484375E-07	967.665524556879
0.32745361328125	-3.2623291015625E-07	968.108029555762
0.323028564453125	-3.631591796875E-07	968.550534554645
0.318603515625	-3.680419921875E-07	968.993039553528
0.314178466796875	-3.8330078125E-07	969.435544552411
0.30975341796875	-3.60107421875E-07	969.878049551293
0.305328369140625	-3.5003662109375E-07	970.320554550176
0.3009033203125	-3.7200927734375E-07	970.763059549059
0.296478271484375	-3.7506103515625E-07	971.205564547942
0.29205322265625	-3.8848876953125E-07	971.648069546824
0.287628173828125	-3.4881591796875E-07	972.090574545707
0.283203125	-3.9031982421875E-07	972.53307954459
0.278778076171875	-3.61328125E-07	972.975584543473
0.27435302734375	-3.5552978515625E-07	973.418089542356
0.269927978515625	-3.6407470703125E-07	973.860594541238
0.2655029296875	-3.8299560546875E-07	974.303099540121
0.261077880859375	-3.594970703125E-07	974.745604539004
0.25665283203125	-3.717041015625E-07	975.188109537887
0.252227783203125	-3.77197265625E-07	975.630614536769
0.247802734375	-3.5369873046875E-07	976.073119535652
0.243377685546875	-3.729248046875E-07	976.515624534535
0.23895263671875	-3.84521484375E-07	976.958129533418
0.234527587890625	-3.912353515625E-07	977.400634532301
0.2301025390625	-4.11376953125E-07	977.843139531183
0.225677490234375	-4.107666015625E-07	978.285644530066
0.22125244140625	-4.21142578125E-07	978.728149528949
0.216827392578125	-4.1168212890625E-07	979.170654527832
0.21240234375	-3.973388671875E-07	979.613159526715
0.207977294921875	-4.1778564453125E-07	980.055664525597
0.20355224609375	-4.278564453125E-07	980.49816952448
0.199127197265625	-4.779052734375E-07	980.940674523363
0.1947021484375	-4.327392578125E-07	981.383179522246
0.190277099609375	-4.510498046875E-07	981.825684521128
0.18585205078125	-4.2144775390625E-07	982.268189520011
0.181427001953125	-4.8065185546875E-07	982.710694518894
0.177001953125	-4.632568359375E-07	983.153199517777
0.172576904296875	-4.6783447265625E-07	983.59570451666
0.16815185546875	-5.3070068359375E-07	984.038209515542
0.163726806640625	-5.096435546875E-07	984.480714514425
0.1593017578125	-5.2154541015625E-07	984.923219513308
0.154876708984375	-5.62744140625E-07	985.365724512191
0.15045166015625	-5.853271484375E-07	985.808229511073
0.146026611328125	-5.7159423828125E-07	986.250734509956
0.1416015625	-6.0638427734375E-07	986.693239508839
0.137176513671875	-6.5155029296875E-07	987.135744507722
0.13275146484375	-6.6497802734375E-07	987.578249506605
0.128326416015625	-6.89697265625E-07	988.020754505487
0.1239013671875	-7.598876953125E-07	988.46325950437
0.119476318359375	-7.4859619140625E-07	988.905764503253
0.11505126953125	-8.10546875E-07	989.348269502136
0.110626220703125	-8.367919921875E-07	989.790774501019
0.106201171875	-8.416748046875E-07	990.233279499901
0.101776123046875	-8.746337890625E-07	990.675784498784
0.09735107421875	-8.5601806640625E-07	991.118289497667
0.092926025390625	-8.9080810546875E-07	991.56079449655
0.0885009765625	-8.612060546875E-07	992.003299495432
0.084075927734375	-8.935546875E-07	992.445804494315
0.07965087890625	-8.770751953125E-07	992.888309493198
0.075225830078125	-8.7158203125E-07	993.330814492081
0.07080078125	-8.319091796875E-07	993.773319490964
0.066375732421875	-8.3160400390625E-07	994.215824489846
0.06195068359375	-8.1268310546875E-07	994.658329488729
0.057525634765625	-8.074951171875E-07	995.100834487612
0.0531005859375	-7.94677734375E-07	995.543339486495
0.048675537109375	-7.9010009765625E-07	995.985844485377
0.04425048828125	-7.94677734375E-07	996.42834948426
0.039825439453125	-7.84912109375E-07	996.870854483143
0.035400390625	-7.8887939453125E-07	997.313359482026
0.030975341796875	-7.7667236328125E-07	997.755864480909
0.02655029296875	-7.8338623046875E-07	998.198369479791
0.022125244140625	-7.5653076171875E-07	998.640874478674
0.0177001953125	-8.062744140625E-07	999.083379477557
0.013275146484375	-8.2305908203125E-07	999.52588447644
0.00885009765625	-8.1512451171875E-07	999.968389475323
0.004425048828125	-7.9986572265625E-07	1000.41089447421
0	-8.3587646484375E-07	1000.85339947309
0.004425048828125	-6.634521484375E-07	1001.29590447197
0.00885009765625	-5.4901123046875E-07	1001.73840947085
0.013275146484375	-4.7576904296875E-07	1002.18091446974
0.0177001953125	-4.046630859375E-07	1002.62341946862
0.022125244140625	-4.00390625E-07	1003.0659244675
0.02655029296875	-3.5064697265625E-07	1003.50842946638
0.030975341796875	-2.9754638671875E-07	1003.95093446527
0.035400390625	-2.685546875E-07	1004.39343946415
0.039825439453125	-2.813720703125E-07	1004.83594446303
0.04425048828125	-1.9866943359375E-07	1005.27844946192
0.048675537109375	-2.0477294921875E-07	1005.7209544608
0.0531005859375	-1.72119140625E-07	1006.16345945968
0.057525634765625	-1.74560546875E-07	1006.60596445856
0.06195068359375	-1.47705078125E-07	1007.04846945745
0.066375732421875	-1.1962890625E-07	1007.49097445633
0.07080078125	-8.056640625E-08	1007.93347945521
0.075225830078125	-1.0009765625E-07	1008.3759844541
0.07965087890625	-7.50732421875E-08	1008.81848945298
0.084075927734375	-7.2021484375E-08	1009.26099445186
0.0885009765625	-3.72314453125E-08	1009.70349945074
0.092926025390625	-3.997802734375E-08	1010.14600444963
0.09735107421875	-2.105712890625E-08	1010.58850944851
0.101776123046875	-3.96728515625E-09	1011.03101444739
0.106201171875	1.251220703125E-08	1011.47351944627
0.110626220703125	3.082275390625E-08	1011.91602444516
0.11505126953125	2.62451171875E-08	1012.35852944404
0.119476318359375	3.11279296875E-08	1012.80103444292
0.1239013671875	5.859375E-08	1013.24353944181
0.128326416015625	8.48388671875E-08	1013.68604444069
0.13275146484375	5.462646484375E-08	1014.12854943957
0.137176513671875	5.4931640625E-08	1014.57105443845
0.1416015625	8.209228515625E-08	1015.01355943734
0.146026611328125	6.256103515625E-08	1015.45606443622
0.15045166015625	8.97216796875E-08	1015.8985694351
0.154876708984375	6.40869140625E-08	1016.34107443399
0.1593017578125	8.11767578125E-08	1016.78357943287
0.163726806640625	7.9345703125E-08	1017.22608443175
0.16815185546875	8.453369140625E-08	1017.66858943063
0.172576904296875	7.171630859375E-08	1018.11109442952
0.177001953125	9.82666015625E-08	1018.5535994284
0.181427001953125	9.82666015625E-08	1018.99610442728
0.18585205078125	7.87353515625E-08	1019.43860942616
0.190277099609375	9.3994140625E-08	1019.88111442505
0.1947021484375	1.18408203125E-07	1020.32361942393
0.199127197265625	1.1505126953125E-07	1020.76612442281
0.20355224609375	9.70458984375E-08	1021.2086294217
0.207977294921875	9.246826171875E-08	1021.65113442058
0.21240234375	1.0406494140625E-07	1022.09363941946
0.216827392578125	7.14111328125E-08	1022.53614441834
0.22125244140625	8.30078125E-08	1022.97864941723
0.225677490234375	1.1199951171875E-07	1023.42115441611
0.2301025390625	9.94873046875E-08	1023.86365941499
0.234527587890625	1.3397216796875E-07	1024.30616441388
0.23895263671875	7.99560546875E-08	1024.74866941276
0.243377685546875	1.2847900390625E-07	1025.19117441164
0.247802734375	1.4007568359375E-07	1025.63367941052
0.252227783203125	9.368896484375E-08	1026.07618440941
0.25665283203125	1.0345458984375E-07	1026.51868940829
0.261077880859375	1.055908203125E-07	1026.96119440717
0.2655029296875	1.1962890625E-07	1027.40369940606
0.269927978515625	1.165771484375E-07	1027.84620440494
0.27435302734375	1.0772705078125E-07	1028.28870940382
0.278778076171875	1.1138916015625E-07	1028.7312144027
0.283203125	1.251220703125E-07	1029.17371940159
0.287628173828125	1.0040283203125E-07	1029.61622440047
0.29205322265625	1.0772705078125E-07	1030.05872939935
0.296478271484375	1.0986328125E-07	1030.50123439823
0.3009033203125	1.226806640625E-07	1030.94373939712
0.305328369140625	1.0833740234375E-07	1031.386244396
0.30975341796875	1.177978515625E-07	1031.82874939488
0.314178466796875	1.2939453125E-07	1032.27125439377
0.318603515625	1.348876953125E-07	1032.71375939265
0.323028564453125	1.544189453125E-07	1033.15626439153
0.32745361328125	1.47705078125E-07	1033.59876939041
0.331878662109375	1.4495849609375E-07	1034.0412743893
0.3363037109375	1.239013671875E-07	1034.48377938818
0.340728759765625	1.47705078125E-07	1034.92628438706
0.34515380859375	1.4404296875E-07	1035.36878938595
0.349578857421875	1.5899658203125E-07	1035.81129438483
0.35400390625	1.69677734375E-07	1036.25379938371
0.358428955078125	1.507568359375E-07	1036.69630438259
0.36285400390625	1.568603515625E-07	1037.13880938148
0.367279052734375	1.6815185546875E-07	1037.58131438036
0.3717041015625	1.5472412109375E-07	1038.02381937924
0.376129150390625	1.556396484375E-07	1038.46632437812
0.38055419921875	1.666259765625E-07	1038.90882937701
0.384979248046875	1.7974853515625E-07	1039.35133437589
0.389404296875	2.044677734375E-07	1039.79383937477
0.393829345703125	2.0050048828125E-07	1040.23634437366
0.39825439453125	1.86767578125E-07	1040.67884937254
0.402679443359375	2.142333984375E-07	1041.12135437142
0.4071044921875	1.873779296875E-07	1041.5638593703
0.411529541015625	2.1392822265625E-07	1042.00636436919
0.41595458984375	1.86767578125E-07	1042.44886936807
0.420379638671875	2.227783203125E-07	1042.89137436695
0.4248046875	2.1759033203125E-07	1043.33387936584
0.429229736328125	1.5289306640625E-07	1043.77638436472
0.43365478515625	1.9989013671875E-07	1044.2188893636
0.438079833984375	2.337646484375E-07	1044.66139436248
0.4425048828125	2.35595703125E-07	1045.10389936137
0.446929931640625	2.3773193359375E-07	1045.54640436025
0.45135498046875	2.4139404296875E-07	1045.98890935913
0.455780029296875	2.5634765625E-07	1046.43141435801
0.460205078125	2.587890625E-07	1046.8739193569
0.464630126953125	2.5238037109375E-07	1047.31642435578
0.46905517578125	2.4627685546875E-07	1047.75892935466
0.473480224609375	2.79541015625E-07	1048.20143435355
0.4779052734375	2.8411865234375E-07	1048.64393935243
0.482330322265625	3.3843994140625E-07	1049.08644435131
0.48675537109375	3.1341552734375E-07	1049.52894935019
0.491180419921875	2.9205322265625E-07	1049.97145434908
0.49560546875	3.01513671875E-07	1050.41395934796
0.500030517578125	3.43017578125E-07	1050.85646434684
0.50445556640625	3.4942626953125E-07	1051.29896934573
0.508880615234375	3.3905029296875E-07	1051.74147434461
0.5133056640625	3.72314453125E-07	1052.18397934349
0.517730712890625	3.363037109375E-07	1052.62648434237
0.52215576171875	3.546142578125E-07	1053.06898934126
0.526580810546875	3.7139892578125E-07	1053.51149434014
0.531005859375	3.7628173828125E-07	1053.95399933902
0.535430908203125	4.119873046875E-07	1054.3965043379
0.53985595703125	4.058837890625E-07	1054.83900933679
0.544281005859375	4.2144775390625E-07	1055.28151433567
0.5487060546875	4.2022705078125E-07	1055.72401933455
0.553131103515625	4.290771484375E-07	1056.16652433344
0.55755615234375	4.6356201171875E-07	1056.60902933232
0.561981201171875	4.681396484375E-07	1057.0515343312
0.56640625	4.8736572265625E-07	1057.49403933008
0.570831298828125	4.6905517578125E-07	1057.93654432897
0.57525634765625	4.913330078125E-07	1058.37904932785
0.579681396484375	5.572509765625E-07	1058.82155432673
0.5841064453125	5.3802490234375E-07	1059.26405932562
0.588531494140625	5.157470703125E-07	1059.7065643245
0.59295654296875	5.352783203125E-07	1060.14906932338
0.597381591796875	5.5572509765625E-07	1060.59157432226
0.601806640625	5.9814453125E-07	1061.03407932115
0.606231689453125	6.1920166015625E-07	1061.47658432003
0.61065673828125	6.31103515625E-07	1061.91908931891
0.615081787109375	6.5673828125E-07	1062.36159431779
0.6195068359375	6.5460205078125E-07	1062.80409931668
0.623931884765625	7.0709228515625E-07	1063.24660431556
0.62835693359375	7.2479248046875E-07	1063.68910931444
0.632781982421875	7.3028564453125E-07	1064.13161431333
0.63720703125	7.6690673828125E-07	1064.57411931221
0.641632080078125	7.318115234375E-07	1065.01662431109
0.64605712890625	7.904052734375E-07	1065.45912930997
0.650482177734375	8.1756591796875E-07	1065.90163430886
0.6549072265625	8.6029052734375E-07	1066.34413930774
0.659332275390625	9.344482421875E-07	1066.78664430662
0.66375732421875	9.539794921875E-07	1067.22914930551
0.668182373046875	9.7320556640625E-07	1067.67165430439
0.672607421875	1.00860595703125E-06	1068.11415930327
0.677032470703125	1.02813720703125E-06	1068.55666430215
0.68145751953125	1.06170654296875E-06	1068.99916930104
0.685882568359375	1.08612060546875E-06	1069.44167429992
0.6903076171875	1.14288330078125E-06	1069.8841792988
0.694732666015625	1.21124267578125E-06	1070.32668429769
0.69915771484375	1.2890625E-06	1070.76918929657
0.703582763671875	1.32843017578125E-06	1071.21169429545
0.69915771484375	9.710693359375E-07	1071.65419929433
0.694732666015625	7.62939453125E-07	1072.09670429322
0.6903076171875	6.2469482421875E-07	1072.5392092921
0.685882568359375	5.035400390625E-07	1072.98171429098
0.68145751953125	3.961181640625E-07	1073.42421928986
0.677032470703125	2.6397705078125E-07	1073.86672428875
0.672607421875	2.215576171875E-07	1074.30922928763
0.668182373046875	1.5472412109375E-07	1074.75173428651
0.66375732421875	1.3671875E-07	1075.1942392854
0.659332275390625	6.53076171875E-08	1075.63674428428
0.6549072265625	-4.364013671875E-08	1076.07924928316
0.650482177734375	-8.23974609375E-09	1076.52175428204
0.64605712890625	-2.685546875E-08	1076.96425928093
0.641632080078125	-8.72802734375E-08	1077.40676427981
0.63720703125	-1.153564453125E-07	1077.84926927869
0.632781982421875	-8.6669921875E-08	1078.29177427757
0.62835693359375	-1.641845703125E-07	1078.73427927646
0.623931884765625	-1.9378662109375E-07	1079.17678427534
0.6195068359375	-1.69677734375E-07	1079.61928927422
0.615081787109375	-2.0721435546875E-07	1080.06179427311
0.61065673828125	-2.2552490234375E-07	1080.50429927199
0.606231689453125	-2.18505859375E-07	1080.94680427087
0.601806640625	-2.24609375E-07	1081.38930926975
0.597381591796875	-2.81982421875E-07	1081.83181426864
0.59295654296875	-2.4810791015625E-07	1082.27431926752
0.588531494140625	-2.6275634765625E-07	1082.7168242664
0.5841064453125	-2.5787353515625E-07	1083.15932926529
0.579681396484375	-2.740478515625E-07	1083.60183426417
0.57525634765625	-2.9205322265625E-07	1084.04433926305
0.570831298828125	-2.9632568359375E-07	1084.48684426193
0.56640625	-3.0609130859375E-07	1084.92934926082
0.561981201171875	-3.2928466796875E-07	1085.3718542597
0.55755615234375	-2.91748046875E-07	1085.81435925858
0.553131103515625	-3.0853271484375E-07	1086.25686425747
0.5487060546875	-2.978515625E-07	1086.69936925635
0.544281005859375	-3.2379150390625E-07	1087.14187425523
0.53985595703125	-3.1219482421875E-07	1087.58437925411
0.535430908203125	-3.3416748046875E-07	1088.026884253
0.531005859375	-3.3721923828125E-07	1088.46938925188
0.526580810546875	-3.216552734375E-07	1088.91189425076
0.52215576171875	-3.2073974609375E-07	1089.35439924964
0.517730712890625	-3.3355712890625E-07	1089.79690424853
0.5133056640625	-3.741455078125E-07	1090.23940924741
0.508880615234375	-3.33251953125E-07	1090.68191424629
0.50445556640625	-3.265380859375E-07	1091.12441924518
0.500030517578125	-3.50341796875E-07	1091.56692424406
0.49560546875	-3.4454345703125E-07	1092.00942924294
0.491180419921875	-3.4210205078125E-07	1092.45193424182
0.48675537109375	-3.4088134765625E-07	1092.89443924071
0.482330322265625	-3.7628173828125E-07	1093.33694423959
0.4779052734375	-3.4027099609375E-07	1093.77944923847
0.473480224609375	-3.326416015625E-07	1094.22195423736
0.46905517578125	-3.55224609375E-07	1094.66445923624
0.464630126953125	-3.6895751953125E-07	1095.10696423512
0.460205078125	-3.3355712890625E-07	1095.549469234
0.455780029296875	-3.5064697265625E-07	1095.99197423289
0.45135498046875	-3.67431640625E-07	1096.43447923177
0.446929931640625	-3.485107421875E-07	1096.87698423065
0.4425048828125	-3.546142578125E-07	1097.31948922953
0.438079833984375	-3.5736083984375E-07	1097.76199422842
0.43365478515625	-3.5614013671875E-07	1098.2044992273
0.429229736328125	-3.4881591796875E-07	1098.64700422618
0.4248046875	-3.4759521484375E-07	1099.08950922507
0.420379638671875	-3.558349609375E-07	1099.53201422395
0.41595458984375	-3.5491943359375E-07	1099.97451922283
0.411529541015625	-3.3782958984375E-07	1100.41702422171
0.4071044921875	-3.5614013671875E-07	1100.8595292206
0.402679443359375	-3.643798828125E-07	1101.30203421948
0.39825439453125	-3.43017578125E-07	1101.74453921836
0.393829345703125	-3.643798828125E-07	1102.18704421725
0.389404296875	-3.5797119140625E-07	1102.62954921613
0.384979248046875	-3.84521484375E-07	1103.07205421501
0.38055419921875	-3.4210205078125E-07	1103.51455921389
0.376129150390625	-3.3599853515625E-07	1103.95706421278
0.3717041015625	-3.45458984375E-07	1104.39956921166
0.367279052734375	-3.594970703125E-07	1104.84207421054
0.36285400390625	-3.7017822265625E-07	1105.28457920942
0.358428955078125	-3.4698486328125E-07	1105.72708420831
0.35400390625	-3.448486328125E-07	1106.16958920719
0.349578857421875	-3.7109375E-07	1106.61209420607
0.34515380859375	-3.460693359375E-07	1107.05459920496
0.340728759765625	-3.656005859375E-07	1107.49710420384
0.3363037109375	-3.5003662109375E-07	1107.93960920272
0.331878662109375	-3.631591796875E-07	1108.3821142016
0.32745361328125	-3.662109375E-07	1108.82461920049
0.323028564453125	-3.436279296875E-07	1109.26712419937
0.318603515625	-3.5797119140625E-07	1109.70962919825
0.314178466796875	-3.6651611328125E-07	1110.15213419714
0.30975341796875	-3.680419921875E-07	1110.59463919602
0.305328369140625	-4.4677734375E-07	1111.0371441949
0.3009033203125	-3.5888671875E-07	1111.47964919378
0.296478271484375	-3.43017578125E-07	1111.92215419267
0.29205322265625	-3.5858154296875E-07	1112.36465919155
0.287628173828125	-3.7261962890625E-07	1112.80716419043
0.283203125	-3.778076171875E-07	1113.24966918931
0.278778076171875	-3.6834716796875E-07	1113.6921741882
0.27435302734375	-3.656005859375E-07	1114.13467918708
0.269927978515625	-3.900146484375E-07	1114.57718418596
0.2655029296875	-4.0191650390625E-07	1115.01968918485
0.261077880859375	-3.9581298828125E-07	1115.46219418373
0.25665283203125	-3.741455078125E-07	1115.90469918261
0.252227783203125	-3.6468505859375E-07	1116.34720418149
0.247802734375	-3.45458984375E-07	1116.78970918038
0.243377685546875	-3.6407470703125E-07	1117.23221417926
0.23895263671875	-4.1229248046875E-07	1117.67471917814
0.234527587890625	-4.0374755859375E-07	1118.11722417703
0.2301025390625	-3.8787841796875E-07	1118.55972917591
0.225677490234375	-4.0435791015625E-07	1119.00223417479
0.22125244140625	-4.19921875E-07	1119.44473917367
0.216827392578125	-4.2205810546875E-07	1119.88724417256
0.21240234375	-4.010009765625E-07	1120.32974917144
0.207977294921875	-4.2999267578125E-07	1120.77225417032
0.20355224609375	-4.3212890625E-07	1121.2147591692
0.199127197265625	-4.241943359375E-07	1121.65726416809
0.1947021484375	-4.7210693359375E-07	1122.09976916697
0.190277099609375	-4.4281005859375E-07	1122.54227416585
0.18585205078125	-4.58984375E-07	1122.98477916474
0.181427001953125	-4.72412109375E-07	1123.42728416362
0.177001953125	-4.6295166015625E-07	1123.8697891625
0.172576904296875	-5.0628662109375E-07	1124.31229416138
0.16815185546875	-4.8980712890625E-07	1124.75479916027
0.163726806640625	-5.1605224609375E-07	1125.19730415915
0.1593017578125	-5.3253173828125E-07	1125.63980915803
0.154876708984375	-5.364990234375E-07	1126.08231415692
0.15045166015625	-5.340576171875E-07	1126.5248191558
0.146026611328125	-5.8502197265625E-07	1126.96732415468
0.1416015625	-6.292724609375E-07	1127.40982915356
0.137176513671875	-6.396484375E-07	1127.85233415245
0.13275146484375	-6.4483642578125E-07	1128.29483915133
0.128326416015625	-7.09228515625E-07	1128.73734415021
0.1239013671875	-7.391357421875E-07	1129.17984914909
0.119476318359375	-7.4310302734375E-07	1129.62235414798
0.11505126953125	-8.0902099609375E-07	1130.06485914686
0.110626220703125	-8.2855224609375E-07	1130.50736414574
0.106201171875	-8.58154296875E-07	1130.94986914463
0.101776123046875	-8.642578125E-07	1131.39237414351
0.09735107421875	-8.3160400390625E-07	1131.83487914239
0.092926025390625	-8.477783203125E-07	1132.27738414127
0.0885009765625	-8.831787109375E-07	1132.71988914016
0.084075927734375	-8.636474609375E-07	1133.16239413904
0.07965087890625	-8.538818359375E-07	1133.60489913792
0.075225830078125	-8.5540771484375E-07	1134.04740413681
0.07080078125	-8.209228515625E-07	1134.48990913569
0.066375732421875	-8.58154296875E-07	1134.93241413457
0.06195068359375	-8.10546875E-07	1135.37491913345
0.057525634765625	-7.7972412109375E-07	1135.81742413234
0.0531005859375	-8.1390380859375E-07	1136.25992913122
0.048675537109375	-7.7117919921875E-07	1136.7024341301
0.04425048828125	-7.7728271484375E-07	1137.14493912899
0.039825439453125	-7.684326171875E-07	1137.58744412787
0.035400390625	-7.9803466796875E-07	1138.02994912675
0.030975341796875	-7.928466796875E-07	1138.47245412563
0.02655029296875	-7.8948974609375E-07	1138.91495912452
0.022125244140625	-8.148193359375E-07	1139.3574641234
0.0177001953125	-8.0078125E-07	1139.79996912228
0.013275146484375	-7.7728271484375E-07	1140.24247412116
0.00885009765625	-7.9071044921875E-07	1140.68497912005
0.004425048828125	-8.416748046875E-07	1141.12748411893
0	-8.349609375E-07	1141.56998911781
0.004425048828125	-7.2052001953125E-07	1142.0124941167
0.00885009765625	-5.682373046875E-07	1142.45499911558
0.013275146484375	-5.2703857421875E-07	1142.89750411446
0.0177001953125	-4.3243408203125E-07	1143.34000911334
0.022125244140625	-3.6224365234375E-07	1143.78251411223
0.02655029296875	-3.3660888671875E-07	1144.22501911111
0.030975341796875	-2.8472900390625E-07	1144.66752410999
0.035400390625	-2.618408203125E-07	1145.11002910888
0.039825439453125	-2.5177001953125E-07	1145.55253410776
0.04425048828125	-2.459716796875E-07	1145.99503910664
0.048675537109375	-2.020263671875E-07	1146.43754410552
0.0531005859375	-1.568603515625E-07	1146.88004910441
0.057525634765625	-1.52587890625E-07	1147.32255410329
0.06195068359375	-1.5533447265625E-07	1147.76505910217
0.066375732421875	-1.4129638671875E-07	1148.20756410105
0.07080078125	-1.129150390625E-07	1148.65006909994
0.075225830078125	-1.092529296875E-07	1149.09257409882
0.07965087890625	-9.307861328125E-08	1149.5350790977
0.084075927734375	-7.26318359375E-08	1149.97758409659
0.0885009765625	-5.7373046875E-08	1150.42008909547
0.092926025390625	-3.662109375E-08	1150.86259409435
0.09735107421875	-7.01904296875E-09	1151.30509909323
0.101776123046875	-3.173828125E-08	1151.74760409212
0.106201171875	1.220703125E-08	1152.190109091
0.110626220703125	2.838134765625E-08	1152.63261408988
0.11505126953125	5.67626953125E-08	1153.07511908877
0.119476318359375	5.126953125E-08	1153.51762408765
0.1239013671875	7.32421875E-08	1153.96012908653
0.128326416015625	5.584716796875E-08	1154.40263408541
0.13275146484375	7.2021484375E-08	1154.8451390843
0.137176513671875	5.92041015625E-08	1155.28764408318
0.1416015625	5.9814453125E-08	1155.73014908206
0.146026611328125	6.988525390625E-08	1156.17265408094
0.15045166015625	7.720947265625E-08	1156.61515907983
0.154876708984375	6.8359375E-08	1157.05766407871
0.1593017578125	8.72802734375E-08	1157.50016907759
0.163726806640625	6.591796875E-08	1157.94267407648
0.16815185546875	6.65283203125E-08	1158.38517907536
0.172576904296875	4.21142578125E-08	1158.82768407424
0.177001953125	7.781982421875E-08	1159.27018907312
0.181427001953125	9.3994140625E-08	1159.71269407201
0.18585205078125	9.185791015625E-08	1160.15519907089
0.190277099609375	8.544921875E-08	1160.59770406977
0.1947021484375	9.796142578125E-08	1161.04020906866
0.199127197265625	9.429931640625E-08	1161.48271406754
0.20355224609375	1.08642578125E-07	1161.92521906642
0.207977294921875	1.0284423828125E-07	1162.3677240653
0.21240234375	1.40380859375E-07	1162.81022906419
0.216827392578125	8.36181640625E-08	1163.25273406307
0.22125244140625	8.331298828125E-08	1163.69523906195
0.225677490234375	8.819580078125E-08	1164.13774406083
0.2301025390625	1.3580322265625E-07	1164.58024905972
0.234527587890625	1.0955810546875E-07	1165.0227540586
0.23895263671875	1.2451171875E-07	1165.46525905748
0.243377685546875	1.11083984375E-07	1165.90776405637
0.247802734375	1.1138916015625E-07	1166.35026905525
0.252227783203125	1.07421875E-07	1166.79277405413
0.25665283203125	1.2176513671875E-07	1167.23527905301
0.261077880859375	1.0009765625E-07	1167.6777840519
0.2655029296875	9.94873046875E-08	1168.12028905078
0.269927978515625	1.141357421875E-07	1168.56279404966
0.27435302734375	1.2298583984375E-07	1169.00529904855
0.278778076171875	1.2420654296875E-07	1169.44780404743
0.283203125	9.82666015625E-08	1169.89030904631
0.287628173828125	1.1627197265625E-07	1170.33281404519
0.29205322265625	1.043701171875E-07	1170.77531904408
0.296478271484375	1.0223388671875E-07	1171.21782404296
0.3009033203125	1.3702392578125E-07	1171.66032904184
0.305328369140625	1.3427734375E-07	1172.10283404072
0.30975341796875	1.3702392578125E-07	1172.54533903961
0.314178466796875	1.3946533203125E-07	1172.98784403849
0.318603515625	1.4434814453125E-07	1173.43034903737
0.323028564453125	1.3916015625E-07	1173.87285403626
0.32745361328125	1.214599609375E-07	1174.31535903514
0.331878662109375	1.434326171875E-07	1174.75786403402
0.3363037109375	1.2451171875E-07	1175.2003690329
0.340728759765625	1.458740234375E-07	1175.64287403179
0.34515380859375	1.263427734375E-07	1176.08537903067
0.349578857421875	1.4190673828125E-07	1176.52788402955
0.35400390625	1.55029296875E-07	1176.97038902844
0.358428955078125	1.422119140625E-07	1177.41289402732
0.36285400390625	1.5594482421875E-07	1177.8553990262
0.367279052734375	1.5625E-07	1178.29790402508
0.3717041015625	1.67236328125E-07	1178.74040902397
0.376129150390625	1.5045166015625E-07	1179.18291402285
0.38055419921875	1.739501953125E-07	1179.62541902173
0.384979248046875	1.8310546875E-07	1180.06792402062
0.389404296875	2.0538330078125E-07	1180.5104290195
0.393829345703125	1.641845703125E-07	1180.95293401838
0.39825439453125	1.5655517578125E-07	1181.39543901726
0.402679443359375	1.7181396484375E-07	1181.83794401615
0.4071044921875	1.873779296875E-07	1182.28044901503
0.411529541015625	2.056884765625E-07	1182.72295401391
0.41595458984375	1.7425537109375E-07	1183.16545901279
0.420379638671875	2.056884765625E-07	1183.60796401168
0.4248046875	2.1575927734375E-07	1184.05046901056
0.429229736328125	2.0111083984375E-07	1184.49297400944
0.43365478515625	2.3193359375E-07	1184.93547900833
0.438079833984375	2.2491455078125E-07	1185.37798400721
0.4425048828125	2.4261474609375E-07	1185.82048900609
0.446929931640625	2.6123046875E-07	1186.26299400497
0.45135498046875	2.142333984375E-07	1186.70549900386
0.455780029296875	2.2857666015625E-07	1187.14800400274
0.460205078125	1.922607421875E-07	1187.59050900162
0.464630126953125	2.630615234375E-07	1188.0330140005
0.46905517578125	2.5238037109375E-07	1188.47551899939
0.473480224609375	2.7252197265625E-07	1188.91802399827
0.4779052734375	2.74658203125E-07	1189.36052899715
0.482330322265625	2.9937744140625E-07	1189.80303399604
0.48675537109375	2.72216796875E-07	1190.24553899492
0.491180419921875	2.7618408203125E-07	1190.6880439938
0.49560546875	3.0731201171875E-07	1191.13054899268
0.500030517578125	3.2684326171875E-07	1191.57305399157
0.50445556640625	3.4698486328125E-07	1192.01555899045
0.508880615234375	3.173828125E-07	1192.45806398933
0.5133056640625	3.546142578125E-07	1192.90056898822
0.517730712890625	3.5552978515625E-07	1193.3430739871
0.52215576171875	3.8848876953125E-07	1193.78557898598
0.526580810546875	3.62548828125E-07	1194.22808398486
0.531005859375	3.9764404296875E-07	1194.67058898375
0.535430908203125	3.826904296875E-07	1195.11309398263
0.53985595703125	4.095458984375E-07	1195.55559898151
0.544281005859375	4.1656494140625E-07	1195.9981039804
0.5487060546875	4.1534423828125E-07	1196.44060897928
0.553131103515625	4.8187255859375E-07	1196.88311397816
0.55755615234375	4.534912109375E-07	1197.32561897704
0.561981201171875	4.57763671875E-07	1197.76812397593
0.56640625	4.7760009765625E-07	1198.21062897481
0.570831298828125	4.4830322265625E-07	1198.65313397369
0.57525634765625	5.023193359375E-07	1199.09563897257
0.579681396484375	5.2093505859375E-07	1199.53814397146
0.5841064453125	5.38330078125E-07	1199.98064897034
0.588531494140625	5.4168701171875E-07	1200.42315396922
0.59295654296875	5.8135986328125E-07	1200.86565896811
0.597381591796875	5.7769775390625E-07	1201.30816396699
0.601806640625	5.6671142578125E-07	1201.75066896587
0.606231689453125	5.9417724609375E-07	1202.19317396475
0.61065673828125	6.1126708984375E-07	1202.63567896364
0.615081787109375	6.365966796875E-07	1203.07818396252
0.6195068359375	6.5704345703125E-07	1203.5206889614
0.623931884765625	6.8450927734375E-07	1203.96319396029
0.62835693359375	6.9305419921875E-07	1204.40569895917
0.632781982421875	7.6080322265625E-07	1204.84820395805
0.63720703125	7.568359375E-07	1205.29070895693
0.641632080078125	8.14208984375E-07	1205.73321395582
0.64605712890625	8.0291748046875E-07	1206.1757189547
0.650482177734375	8.154296875E-07	1206.61822395358
0.6549072265625	8.5906982421875E-07	1207.06072895246
0.659332275390625	8.758544921875E-07	1207.50323395135
0.66375732421875	8.8653564453125E-07	1207.94573895023
0.668182373046875	9.246826171875E-07	1208.38824394911
0.672607421875	9.9456787109375E-07	1208.830748948
0.677032470703125	1.01806640625E-06	1209.27325394688
0.68145751953125	1.08795166015625E-06	1209.71575894576
0.685882568359375	1.11846923828125E-06	1210.15826394464
0.6903076171875	1.1407470703125E-06	1210.60076894353
0.694732666015625	1.14654541015625E-06	1211.04327394241
0.69915771484375	1.22589111328125E-06	1211.48577894129
0.703582763671875	1.31011962890625E-06	1211.92828394018
0.69915771484375	9.503173828125E-07	1212.37078893906
0.694732666015625	7.525634765625E-07	1212.81329393794
0.6903076171875	6.15234375E-07	1213.25579893682
0.685882568359375	4.791259765625E-07	1213.69830393571
0.68145751953125	3.8177490234375E-07	1214.14080893459
0.677032470703125	2.74658203125E-07	1214.58331393347
0.672607421875	2.069091796875E-07	1215.02581893235
0.668182373046875	1.4190673828125E-07	1215.46832393124
0.66375732421875	1.1199951171875E-07	1215.91082893012
0.659332275390625	3.204345703125E-08	1216.353333929
0.6549072265625	9.1552734375E-09	1216.79583892789
0.650482177734375	-1.8310546875E-09	1217.23834392677
0.64605712890625	-3.41796875E-08	1217.68084892565
0.641632080078125	-5.55419921875E-08	1218.12335392453
0.63720703125	-1.202392578125E-07	1218.56585892342
0.632781982421875	-1.2481689453125E-07	1219.0083639223
0.62835693359375	-2.288818359375E-07	1219.45086892118
0.623931884765625	-1.7303466796875E-07	1219.89337392007
0.6195068359375	-1.544189453125E-07	1220.33587891895
0.615081787109375	-1.8951416015625E-07	1220.77838391783
0.61065673828125	-1.96533203125E-07	1221.22088891671
0.606231689453125	-2.01416015625E-07	1221.6633939156
0.601806640625	-2.50244140625E-07	1222.10589891448
0.597381591796875	-2.5848388671875E-07	1222.54840391336
0.59295654296875	-2.557373046875E-07	1222.99090891224
0.588531494140625	-2.6214599609375E-07	1223.43341391113
0.5841064453125	-2.899169921875E-07	1223.87591891001
0.579681396484375	-2.7923583984375E-07	1224.31842390889
0.57525634765625	-2.4810791015625E-07	1224.76092890778
0.570831298828125	-3.0914306640625E-07	1225.20343390666
0.56640625	-2.9205322265625E-07	1225.64593890554
0.561981201171875	-3.16162109375E-07	1226.08844390442
0.55755615234375	-2.880859375E-07	1226.53094890331
0.553131103515625	-3.1036376953125E-07	1226.97345390219
0.5487060546875	-3.179931640625E-07	1227.41595890107
0.544281005859375	-3.3721923828125E-07	1227.85846389996
0.53985595703125	-3.4423828125E-07	1228.30096889884
0.535430908203125	-3.3355712890625E-07	1228.74347389772
0.531005859375	-3.1768798828125E-07	1229.1859788966
0.526580810546875	-3.485107421875E-07	1229.62848389549
0.52215576171875	-3.5247802734375E-07	1230.07098889437
0.517730712890625	-3.350830078125E-07	1230.51349389325
0.5133056640625	-3.533935546875E-07	1230.95599889213
0.508880615234375	-3.5919189453125E-07	1231.39850389102
0.50445556640625	-3.7353515625E-07	1231.8410088899
0.500030517578125	-3.3721923828125E-07	1232.28351388878
0.49560546875	-3.594970703125E-07	1232.72601888767
0.491180419921875	-3.7445068359375E-07	1233.16852388655
0.48675537109375	-3.6163330078125E-07	1233.61102888543
0.482330322265625	-3.2745361328125E-07	1234.05353388431
0.4779052734375	-3.5552978515625E-07	1234.4960388832
0.473480224609375	-3.6102294921875E-07	1234.93854388208
0.46905517578125	-4.0069580078125E-07	1235.38104888096
0.464630126953125	-3.533935546875E-07	1235.82355387985
0.460205078125	-3.759765625E-07	1236.26605887873
0.455780029296875	-3.546142578125E-07	1236.70856387761
0.45135498046875	-4.1107177734375E-07	1237.15106887649
0.446929931640625	-3.338623046875E-07	1237.59357387538
0.4425048828125	-3.4515380859375E-07	1238.03607887426
0.438079833984375	-3.3599853515625E-07	1238.47858387314
0.43365478515625	-3.594970703125E-07	1238.92108887202
0.429229736328125	-3.3660888671875E-07	1239.36359387091
0.4248046875	-3.8604736328125E-07	1239.80609886979
0.420379638671875	-3.3477783203125E-07	1240.24860386867
0.41595458984375	-3.5369873046875E-07	1240.69110886756
0.411529541015625	-3.6285400390625E-07	1241.13361386644
0.4071044921875	-3.6834716796875E-07	1241.57611886532
0.402679443359375	-3.680419921875E-07	1242.0186238642
0.39825439453125	-3.6224365234375E-07	1242.46112886309
0.393829345703125	-3.3172607421875E-07	1242.90363386197
0.389404296875	-3.28369140625E-07	1243.34613886085
0.384979248046875	-3.558349609375E-07	1243.78864385974
0.38055419921875	-3.47900390625E-07	1244.23114885862
0.376129150390625	-3.0975341796875E-07	1244.6736538575
0.3717041015625	-3.62548828125E-07	1245.11615885638
0.367279052734375	-3.460693359375E-07	1245.55866385527
0.36285400390625	-3.5919189453125E-07	1246.00116885415
0.358428955078125	-3.533935546875E-07	1246.44367385303
0.35400390625	-3.375244140625E-07	1246.88617885192
0.349578857421875	-3.7109375E-07	1247.3286838508
0.34515380859375	-3.5980224609375E-07	1247.77118884968
0.340728759765625	-3.521728515625E-07	1248.21369384856
0.3363037109375	-3.582763671875E-07	1248.65619884745
0.331878662109375	-3.7322998046875E-07	1249.09870384633
0.32745361328125	-3.3416748046875E-07	1249.54120884521
0.323028564453125	-3.497314453125E-07	1249.98371384409
0.318603515625	-3.6376953125E-07	1250.42621884298
0.314178466796875	-3.8818359375E-07	1250.86872384186
0.30975341796875	-3.485107421875E-07	1251.31122884074
0.305328369140625	-3.1341552734375E-07	1251.75373383963
0.3009033203125	-3.9398193359375E-07	1252.19623883851
0.296478271484375	-3.436279296875E-07	1252.63874383739
0.29205322265625	-3.619384765625E-07	1253.08124883627
0.287628173828125	-3.2867431640625E-07	1253.52375383516
0.283203125	-3.94287109375E-07	1253.96625883404
0.278778076171875	-3.6590576171875E-07	1254.40876383292
0.27435302734375	-3.43017578125E-07	1254.85126883181
0.269927978515625	-3.741455078125E-07	1255.29377383069
0.2655029296875	-3.41796875E-07	1255.73627882957
0.261077880859375	-3.79638671875E-07	1256.17878382845
0.25665283203125	-3.6712646484375E-07	1256.62128882734
0.252227783203125	-3.60107421875E-07	1257.06379382622
0.247802734375	-3.7628173828125E-07	1257.5062988251
0.243377685546875	-3.7628173828125E-07	1257.94880382398
0.23895263671875	-3.9520263671875E-07	1258.39130882287
0.234527587890625	-3.8848876953125E-07	1258.83381382175
0.2301025390625	-3.9093017578125E-07	1259.27631882063
0.225677490234375	-3.80859375E-07	1259.71882381952
0.22125244140625	-3.90625E-07	1260.1613288184
0.216827392578125	-4.1046142578125E-07	1260.60383381728
0.21240234375	-4.3243408203125E-07	1261.04633881616
0.207977294921875	-4.0069580078125E-07	1261.48884381505
0.20355224609375	-4.39453125E-07	1261.93134881393
0.199127197265625	-4.2205810546875E-07	1262.37385381281
0.1947021484375	-4.3792724609375E-07	1262.8163588117
0.190277099609375	-4.571533203125E-07	1263.25886381058
0.18585205078125	-4.43115234375E-07	1263.70136880946
0.181427001953125	-4.6539306640625E-07	1264.14387380834
0.177001953125	-4.5501708984375E-07	1264.58637880723
0.172576904296875	-4.9530029296875E-07	1265.02888380611
0.16815185546875	-4.693603515625E-07	1265.47138880499
0.163726806640625	-4.9163818359375E-07	1265.91389380387
0.1593017578125	-4.8309326171875E-07	1266.35639880276
0.154876708984375	-5.2642822265625E-07	1266.79890380164
0.15045166015625	-5.4962158203125E-07	1267.24140880052
0.146026611328125	-5.94482421875E-07	1267.68391379941
0.1416015625	-5.902099609375E-07	1268.12641879829
0.137176513671875	-5.7647705078125E-07	1268.56892379717
0.13275146484375	-6.3507080078125E-07	1269.01142879605
0.128326416015625	-6.9610595703125E-07	1269.45393379494
0.1239013671875	-7.1502685546875E-07	1269.89643879382
0.119476318359375	-7.470703125E-07	1270.3389437927
0.11505126953125	-7.958984375E-07	1270.78144879159
0.110626220703125	-8.0322265625E-07	1271.22395379047
0.106201171875	-8.1756591796875E-07	1271.66645878935
0.101776123046875	-8.8043212890625E-07	1272.10896378823
0.09735107421875	-8.9141845703125E-07	1272.55146878712
0.092926025390625	-8.5968017578125E-07	1272.993973786
0.0885009765625	-8.82568359375E-07	1273.43647878488
0.084075927734375	-8.819580078125E-07	1273.87898378376
0.07965087890625	-8.6212158203125E-07	1274.32148878265
0.075225830078125	-8.428955078125E-07	1274.76399378153
0.07080078125	-8.4686279296875E-07	1275.20649878041
0.066375732421875	-8.3251953125E-07	1275.6490037793
0.06195068359375	-7.928466796875E-07	1276.09150877818
0.057525634765625	-7.9742431640625E-07	1276.53401377706
0.0531005859375	-7.8277587890625E-07	1276.97651877594
0.048675537109375	-8.02001953125E-07	1277.41902377483
0.04425048828125	-7.77587890625E-07	1277.86152877371
0.039825439453125	-8.3251953125E-07	1278.30403377259
0.035400390625	-7.6873779296875E-07	1278.74653877148
0.030975341796875	-7.9010009765625E-07	1279.18904377036
0.02655029296875	-7.9315185546875E-07	1279.63154876924
0.022125244140625	-7.8857421875E-07	1280.07405376812
0.0177001953125	-7.7056884765625E-07	1280.51655876701
0.013275146484375	-7.9620361328125E-07	1280.95906376589
0.00885009765625	-8.38623046875E-07	1281.40156876477
0.004425048828125	-8.3251953125E-07	1281.84407376365
0	-8.55712890625E-07	1282.28657876254
0.004425048828125	-6.5155029296875E-07	1282.72908376142
0.00885009765625	-5.230712890625E-07	1283.1715887603
0.013275146484375	-4.69970703125E-07	1283.61409375919
