EXPLAIN
TAG	CHRONOP
TITLE	LABEL	Chronopotentiometry Scan	Test Identifier
DATE	LABEL	22/1/2025	Date
TIME	LABEL	22:07:28	Time
NOTES	NOTES	1	Notes...
	
PSTAT	PSTAT	IFC1010-42004	Potentiostat
IPRESTEP	QUANT	0.00000E+000	Pre-step Current(A)
TPRESTEP	QUANT	0.00000E+000	Pre-step Delay Time (s)
ISTEP1	QUANT	1.23000E-003	Step 1 Current (A)
TSTEP1	QUANT	5.00000E+003	Step 1 Time (s)
ISTEP2	QUANT	-1.23000E-003	Step 2 Current (A)
TSTEP2	QUANT	5.00000E+003	Step 2 Time (s)
SAMPLETIME	QUANT	1.00000E-002	Sample Period (s)
DECIMATE	TOGGLE	F	Decimate
VLIMITLOWER	QUANT	0.00000E+000	Lower Limit V (V)
VLIMITUPPER	QUANT	8.00000E-001	Upper Limit V (V)
EQDELAY	QUANT	1.00000E+000	Equil. Time (s)
SAMPLINGMODE	SELECTOR	1	Sampling Mode
AREA	QUANT	2.00000E+000	Sample Area (cm^2)
ELECTRODETYPE	SELECTOR	0	Electrode Type
STRIPPING	TOGGLE	F	Used for Stripping
SEQUENCER	TOGGLE	TRUE	Run as Sequence
PSTATMODEL	IQUANT	64	Pstat Model
PSTATSECTION	LABEL	IFC1010-42004	Pstat Section
PSTATSERIALNO	LABEL	42004	Pstat Serial Number
CTRLMODE	IQUANT	0	Control Mode
ELECTROMETER	IQUANT	0	RE=0 or CS=1
IESTAB	IQUANT	0	I/E Stability
CASPEED	IQUANT	4	Control Amp Speed
CONVENTION	IQUANT	1	Current Convention
ICHRANGE	IQUANT	2	Ich Range
ICHRANGEMODE	TOGGLE	T	Ich Auto Range
ICHOFFSETENABLE	TOGGLE	F	Ich Offset Enable
ICHOFFSET	QUANT	0	Ich Offset (V)
ICHFILTER	IQUANT	3	Ich Filter
VCHRANGE	IQUANT	3	Vch Range
VCHRANGEMODE	TOGGLE	T	Vch Auto Range
VCHOFFSETENABLE	TOGGLE	F	Vch Offset Enable
VCHOFFSET	QUANT	0	Vch Offset (V)
VCHFILTER	IQUANT	3	Vch Filter
IERANGELOWERLIMIT	IQUANT	4	I/E Range Lower Limit
IERANGEMODE	TOGGLE	F	I/E AutoRange
IERANGE	IQUANT	11	I/E Range
ACHSELECT	IQUANT	0	Ach Select
ACHRANGE	IQUANT	2	Ach Range
ACHOFFSETENABLE	TOGGLE	F	Ach Offset Enable
ACHOFFSET	QUANT	0	Ach Offset (V)
ACHFILTER	IQUANT	1	Ach Filter
SENSECABLEID	IQUANT	14	Sense Cable ID
PWRCABLEID	IQUANT	14	Power Cable ID
DCCALDATE	LABEL	1/22/2025	DC Calibration Date
ACCALDATE	LABEL	11/15/2024	AC Calibration Date
FRAMEWORKVERSION	LABEL	7.10.4	Framework Version
INSTRUMENTVERSION	LABEL	4.91	Instrument Version
COMMVERSION	LABEL	3.10	Communications Version
CPUPLDVERSION	LABEL	2.54	CPU PLD Version
CTRLPLDVERSION	LABEL	0.00	CTRL PLD Version
PSTATPLDVERSION	LABEL	0.00	PSTAT PLD Version
CURVE	TABLE	694
	Pt	T	Vf	Im	Vu	Sig	Ach	IERange	Over	Temp
	#	s	V vs. Ref.	A	V	V	V	#	bits	deg C
	0	0	2.30167E-001	-3.61224E-008	0.00000E+000	0.00000E+000	0.00000E+000	10	...........	1583.25
	1	0.01	2.42595E-001	1.22963E-003	0.00000E+000	3.70030E-001	0.00000E+000	10	...........	1583.25
	2	0.02	2.45209E-001	1.22959E-003	0.00000E+000	3.70030E-001	0.00000E+000	10	...........	1583.25
	3	0.03	2.47521E-001	1.22965E-003	0.00000E+000	3.70030E-001	0.00000E+000	10	...........	1583.25
	4	0.04	2.49749E-001	1.22967E-003	0.00000E+000	3.70030E-001	0.00000E+000	10	...........	1583.25
	5	0.05	2.51927E-001	1.22965E-003	0.00000E+000	3.70030E-001	0.00000E+000	10	...........	1583.25
	6	0.06	2.54084E-001	1.22966E-003	0.00000E+000	3.70030E-001	0.00000E+000	10	...........	1583.25
	7	0.07	2.56229E-001	1.22968E-003	0.00000E+000	3.70030E-001	0.00000E+000	10	...........	1583.25
	8	0.08	2.58357E-001	1.22968E-003	0.00000E+000	3.70030E-001	0.00000E+000	10	...........	1583.25
	9	0.09	2.60481E-001	1.22966E-003	0.00000E+000	3.70030E-001	0.00000E+000	10	...........	1583.25
	10	0.1	2.62602E-001	1.22964E-003	0.00000E+000	3.70030E-001	0.00000E+000	10	...........	1583.25
	11	0.11	2.64711E-001	1.22966E-003	0.00000E+000	3.70030E-001	0.00000E+000	10	...........	1583.25
	12	0.12	2.66825E-001	1.22966E-003	0.00000E+000	3.70030E-001	0.00000E+000	10	...........	1583.25
	13	0.13	2.68935E-001	1.22969E-003	0.00000E+000	3.70030E-001	0.00000E+000	10	...........	1583.25
	14	0.14	2.71037E-001	1.22973E-003	0.00000E+000	3.70030E-001	0.00000E+000	10	...........	1583.25
	15	0.15	2.73136E-001	1.22964E-003	0.00000E+000	3.70030E-001	0.00000E+000	10	...........	1583.25
	16	0.16	2.75208E-001	1.22962E-003	0.00000E+000	3.70030E-001	0.00000E+000	10	...........	1583.25
	17	0.17	2.77299E-001	1.22964E-003	0.00000E+000	3.70030E-001	0.00000E+000	10	...........	1583.25
	18	0.18	2.79398E-001	1.22963E-003	0.00000E+000	3.70030E-001	0.00000E+000	10	...........	1583.25
	19	0.19	2.81477E-001	1.22964E-003	0.00000E+000	3.70030E-001	0.00000E+000	10	...........	1583.25
	20	0.2	2.83614E-001	1.22969E-003	0.00000E+000	3.70030E-001	0.00000E+000	10	...........	1583.25
	21	0.21	2.85703E-001	1.22966E-003	0.00000E+000	3.70030E-001	0.00000E+000	10	...........	1583.25
	22	0.22	2.87790E-001	1.22963E-003	0.00000E+000	3.70030E-001	0.00000E+000	10	...........	1583.25
	23	0.23	2.89874E-001	1.22965E-003	0.00000E+000	3.70030E-001	0.00000E+000	10	...........	1583.25
	24	0.24	2.91962E-001	1.22974E-003	0.00000E+000	3.70030E-001	0.00000E+000	10	...........	1583.25
	25	0.25	2.94028E-001	1.22969E-003	0.00000E+000	3.70030E-001	0.00000E+000	10	...........	1583.25
	26	0.26	2.96136E-001	1.22973E-003	0.00000E+000	3.70030E-001	0.00000E+000	10	...........	1583.25
	27	0.27	2.98215E-001	1.22970E-003	0.00000E+000	3.70030E-001	0.00000E+000	10	...........	1583.25
	28	0.28	3.00295E-001	1.22962E-003	0.00000E+000	3.70030E-001	0.00000E+000	10	...........	1583.25
	29	0.29	3.02376E-001	1.22964E-003	0.00000E+000	3.70030E-001	0.00000E+000	10	...........	1583.25
	30	0.3	3.04445E-001	1.22964E-003	0.00000E+000	3.70030E-001	0.00000E+000	10	...........	1583.25
	31	0.31	3.06506E-001	1.22967E-003	0.00000E+000	3.70030E-001	0.00000E+000	10	...........	1583.25
	32	0.32	3.08646E-001	1.22974E-003	0.00000E+000	3.70030E-001	0.00000E+000	10	...........	1583.25
	33	0.33	3.10715E-001	1.22976E-003	0.00000E+000	3.70030E-001	0.00000E+000	10	...........	1583.25
	34	0.34	3.12778E-001	1.22974E-003	0.00000E+000	3.70030E-001	0.00000E+000	10	...........	1583.25
	35	0.35	3.14859E-001	1.22970E-003	0.00000E+000	3.70030E-001	0.00000E+000	10	...........	1583.25
	36	0.36	3.16914E-001	1.22971E-003	0.00000E+000	3.70030E-001	0.00000E+000	10	...........	1583.25
	37	0.37	3.18989E-001	1.22975E-003	0.00000E+000	3.70030E-001	0.00000E+000	10	...........	1583.25
	38	0.38	3.21081E-001	1.22973E-003	0.00000E+000	3.70030E-001	0.00000E+000	10	...........	1583.25
	39	0.39	3.23122E-001	1.22967E-003	0.00000E+000	3.70030E-001	0.00000E+000	10	...........	1583.25
	40	0.4	3.25176E-001	1.22967E-003	0.00000E+000	3.70030E-001	0.00000E+000	10	...........	1583.25
	41	0.41	3.27242E-001	1.22965E-003	0.00000E+000	3.70030E-001	0.00000E+000	10	...........	1583.25
	42	0.42	3.29317E-001	1.22963E-003	0.00000E+000	3.70030E-001	0.00000E+000	10	...........	1583.25
	43	0.43	3.31365E-001	1.22966E-003	0.00000E+000	3.70030E-001	0.00000E+000	10	...........	1583.25
	44	0.44	3.33455E-001	1.22971E-003	0.00000E+000	3.70030E-001	0.00000E+000	10	...........	1583.25
	45	0.45	3.35526E-001	1.22971E-003	0.00000E+000	3.70030E-001	0.00000E+000	10	...........	1583.25
	46	0.46	3.37600E-001	1.22971E-003	0.00000E+000	3.70030E-001	0.00000E+000	10	...........	1583.25
	47	0.47	3.39651E-001	1.22973E-003	0.00000E+000	3.70030E-001	0.00000E+000	10	...........	1583.25
	48	0.48	3.41694E-001	1.22971E-003	0.00000E+000	3.70030E-001	0.00000E+000	10	...........	1583.25
	49	0.49	3.43730E-001	1.22969E-003	0.00000E+000	3.70030E-001	0.00000E+000	10	...........	1583.25
	50	0.5	3.45788E-001	1.22969E-003	0.00000E+000	3.70030E-001	0.00000E+000	10	...........	1583.25
	51	0.51	3.47843E-001	1.22971E-003	0.00000E+000	3.70030E-001	0.00000E+000	10	...........	1583.25
	52	0.52	3.49891E-001	1.22970E-003	0.00000E+000	3.70030E-001	0.00000E+000	10	...........	1583.25
	53	0.53	3.51948E-001	1.22975E-003	0.00000E+000	3.70030E-001	0.00000E+000	10	...........	1583.25
	54	0.54	3.53993E-001	1.22974E-003	0.00000E+000	3.70030E-001	0.00000E+000	10	...........	1583.25
	55	0.55	3.56028E-001	1.22970E-003	0.00000E+000	3.70030E-001	0.00000E+000	10	...........	1583.25
	56	0.56	3.58058E-001	1.22977E-003	0.00000E+000	3.70030E-001	0.00000E+000	10	...........	1583.25
	57	0.57	3.60149E-001	1.22973E-003	0.00000E+000	3.70030E-001	0.00000E+000	10	...........	1583.25
	58	0.58	3.62193E-001	1.22974E-003	0.00000E+000	3.70030E-001	0.00000E+000	10	...........	1583.25
	59	0.59	3.64224E-001	1.22970E-003	0.00000E+000	3.70030E-001	0.00000E+000	10	...........	1583.25
	60	0.6	3.66260E-001	1.22966E-003	0.00000E+000	3.70030E-001	0.00000E+000	10	...........	1583.25
	61	0.61	3.68298E-001	1.22971E-003	0.00000E+000	3.70030E-001	0.00000E+000	10	...........	1583.25
	62	0.62	3.70324E-001	1.22969E-003	0.00000E+000	3.70030E-001	0.00000E+000	10	...........	1583.25
	63	0.63	3.72384E-001	1.22965E-003	0.00000E+000	3.70030E-001	0.00000E+000	10	...........	1583.25
	64	0.64	3.74400E-001	1.22969E-003	0.00000E+000	3.70030E-001	0.00000E+000	10	...........	1583.25
	65	0.65	3.76432E-001	1.22970E-003	0.00000E+000	3.70030E-001	0.00000E+000	10	...........	1583.25
	66	0.66	3.78485E-001	1.22963E-003	0.00000E+000	3.70030E-001	0.00000E+000	10	...........	1583.25
	67	0.67	3.80496E-001	1.22968E-003	0.00000E+000	3.70030E-001	0.00000E+000	10	...........	1583.25
	68	0.68	3.82529E-001	1.22968E-003	0.00000E+000	3.70030E-001	0.00000E+000	10	...........	1583.25
	69	0.69	3.84593E-001	1.22972E-003	0.00000E+000	3.70030E-001	0.00000E+000	10	...........	1583.53
	70	0.7	3.86643E-001	1.22975E-003	0.00000E+000	3.70030E-001	0.00000E+000	10	...........	1583.53
	71	0.71	3.88649E-001	1.22969E-003	0.00000E+000	3.70030E-001	0.00000E+000	10	...........	1583.53
	72	0.72	3.90663E-001	1.22966E-003	0.00000E+000	3.70030E-001	0.00000E+000	10	...........	1583.53
	73	0.73	3.92680E-001	1.22967E-003	0.00000E+000	3.70030E-001	0.00000E+000	10	...........	1583.53
	74	0.74	3.94710E-001	1.22969E-003	0.00000E+000	3.70030E-001	0.00000E+000	10	...........	1583.53
	75	0.75	3.96719E-001	1.22966E-003	0.00000E+000	3.70030E-001	0.00000E+000	10	...........	1583.53
	76	0.76	3.98765E-001	1.22971E-003	0.00000E+000	3.70030E-001	0.00000E+000	10	...........	1583.53
	77	0.77	4.00785E-001	1.22969E-003	0.00000E+000	3.70030E-001	0.00000E+000	10	...........	1583.53
	78	0.78	4.02790E-001	1.22975E-003	0.00000E+000	3.70030E-001	0.00000E+000	10	...........	1583.53
	79	0.79	4.04808E-001	1.22968E-003	0.00000E+000	3.70030E-001	0.00000E+000	10	...........	1583.53
	80	0.8	4.06845E-001	1.22976E-003	0.00000E+000	3.70030E-001	0.00000E+000	10	...........	1583.53
	81	0.81	4.08877E-001	1.22969E-003	0.00000E+000	3.70030E-001	0.00000E+000	10	...........	1583.53
	82	0.82	4.10901E-001	1.22970E-003	0.00000E+000	3.70030E-001	0.00000E+000	10	...........	1583.53
	83	0.83	4.12925E-001	1.22975E-003	0.00000E+000	3.70030E-001	0.00000E+000	10	...........	1583.53
	84	0.84	4.14915E-001	1.22973E-003	0.00000E+000	3.70030E-001	0.00000E+000	10	...........	1583.53
	85	0.85	4.16938E-001	1.22961E-003	0.00000E+000	3.70030E-001	0.00000E+000	10	...........	1583.53
	86	0.86	4.18923E-001	1.22968E-003	0.00000E+000	3.70030E-001	0.00000E+000	10	...........	1583.53
	87	0.87	4.20925E-001	1.22968E-003	0.00000E+000	3.70030E-001	0.00000E+000	10	...........	1583.53
	88	0.88	4.22962E-001	1.22966E-003	0.00000E+000	3.70030E-001	0.00000E+000	10	...........	1583.53
	89	0.89	4.24980E-001	1.22969E-003	0.00000E+000	3.70030E-001	0.00000E+000	10	...........	1583.53
	90	0.9	4.26963E-001	1.22968E-003	0.00000E+000	3.70030E-001	0.00000E+000	10	...........	1583.53
	91	0.91	4.28990E-001	1.22968E-003	0.00000E+000	3.70030E-001	0.00000E+000	10	...........	1583.53
	92	0.92	4.30998E-001	1.22970E-003	0.00000E+000	3.70030E-001	0.00000E+000	10	...........	1583.53
	93	0.93	4.33001E-001	1.22971E-003	0.00000E+000	3.70030E-001	0.00000E+000	10	...........	1583.53
	94	0.94	4.34990E-001	1.22974E-003	0.00000E+000	3.70030E-001	0.00000E+000	10	...........	1583.53
	95	0.95	4.37030E-001	1.22968E-003	0.00000E+000	3.70030E-001	0.00000E+000	10	...........	1583.53
	96	0.96	4.39011E-001	1.22968E-003	0.00000E+000	3.70030E-001	0.00000E+000	10	...........	1583.53
	97	0.97	4.41033E-001	1.22967E-003	0.00000E+000	3.70030E-001	0.00000E+000	10	...........	1583.53
	98	0.98	4.43018E-001	1.22966E-003	0.00000E+000	3.70030E-001	0.00000E+000	10	...........	1583.53
	99	0.99	4.45025E-001	1.22969E-003	0.00000E+000	3.70030E-001	0.00000E+000	10	...........	1583.53
	100	1	4.47007E-001	1.22966E-003	0.00000E+000	3.70030E-001	0.00000E+000	10	...........	1583.53
	101	1.01	4.49020E-001	1.22968E-003	0.00000E+000	3.70030E-001	0.00000E+000	10	...........	1583.53
	102	1.02	4.51028E-001	1.22970E-003	0.00000E+000	3.70030E-001	0.00000E+000	10	...........	1583.53
	103	1.03	4.53025E-001	1.22972E-003	0.00000E+000	3.70030E-001	0.00000E+000	10	...........	1583.53
	104	1.04	4.55011E-001	1.22969E-003	0.00000E+000	3.70030E-001	0.00000E+000	10	...........	1583.53
	105	1.05	4.56998E-001	1.22967E-003	0.00000E+000	3.70030E-001	0.00000E+000	10	...........	1583.53
	106	1.06	4.58990E-001	1.22968E-003	0.00000E+000	3.70030E-001	0.00000E+000	10	...........	1583.53
	107	1.07	4.61018E-001	1.22973E-003	0.00000E+000	3.70030E-001	0.00000E+000	10	...........	1583.53
	108	1.08	4.63010E-001	1.22970E-003	0.00000E+000	3.70030E-001	0.00000E+000	10	...........	1583.53
	109	1.09	4.64988E-001	1.22971E-003	0.00000E+000	3.70030E-001	0.00000E+000	10	...........	1583.53
	110	1.1	4.66985E-001	1.22972E-003	0.00000E+000	3.70030E-001	0.00000E+000	10	...........	1583.53
	111	1.11	4.68985E-001	1.22974E-003	0.00000E+000	3.70030E-001	0.00000E+000	10	...........	1583.53
	112	1.12	4.70958E-001	1.22971E-003	0.00000E+000	3.70030E-001	0.00000E+000	10	...........	1583.53
	113	1.13	4.72938E-001	1.22967E-003	0.00000E+000	3.70030E-001	0.00000E+000	10	...........	1583.53
	114	1.14	4.74941E-001	1.22971E-003	0.00000E+000	3.70030E-001	0.00000E+000	10	...........	1583.53
	115	1.15	4.76929E-001	1.22972E-003	0.00000E+000	3.70030E-001	0.00000E+000	10	...........	1583.53
	116	1.16	4.78893E-001	1.22970E-003	0.00000E+000	3.70030E-001	0.00000E+000	10	...........	1583.53
	117	1.17	4.80881E-001	1.22970E-003	0.00000E+000	3.70030E-001	0.00000E+000	10	...........	1583.53
	118	1.18	4.82879E-001	1.22975E-003	0.00000E+000	3.70030E-001	0.00000E+000	10	...........	1583.53
	119	1.19	4.84845E-001	1.22975E-003	0.00000E+000	3.70030E-001	0.00000E+000	10	...........	1583.53
	120	1.2	4.86867E-001	1.22976E-003	0.00000E+000	3.70030E-001	0.00000E+000	10	...........	1583.53
	121	1.21	4.88839E-001	1.22973E-003	0.00000E+000	3.70030E-001	0.00000E+000	10	...........	1583.53
	122	1.22	4.90820E-001	1.22973E-003	0.00000E+000	3.70030E-001	0.00000E+000	10	...........	1583.53
	123	1.23	4.92793E-001	1.22974E-003	0.00000E+000	3.70030E-001	0.00000E+000	10	...........	1583.53
	124	1.24	4.94760E-001	1.22972E-003	0.00000E+000	3.70030E-001	0.00000E+000	10	...........	1583.53
	125	1.25	4.96735E-001	1.22968E-003	0.00000E+000	3.70030E-001	0.00000E+000	10	...........	1583.53
	126	1.26	4.98714E-001	1.22965E-003	0.00000E+000	3.70030E-001	0.00000E+000	10	...........	1583.53
	127	1.27	5.00698E-001	1.22973E-003	0.00000E+000	3.70030E-001	0.00000E+000	10	...........	1583.53
	128	1.28	5.02693E-001	1.22973E-003	0.00000E+000	3.70030E-001	0.00000E+000	10	...........	1583.53
	129	1.29	5.04653E-001	1.22966E-003	0.00000E+000	3.70030E-001	0.00000E+000	10	...........	1583.53
	130	1.3	5.06610E-001	1.22966E-003	0.00000E+000	3.70030E-001	0.00000E+000	10	...........	1583.53
	131	1.31	5.08576E-001	1.22964E-003	0.00000E+000	3.70030E-001	0.00000E+000	10	...........	1583.53
	132	1.32	5.10562E-001	1.22967E-003	0.00000E+000	3.70030E-001	0.00000E+000	10	...........	1583.53
	133	1.33	5.12549E-001	1.22972E-003	0.00000E+000	3.70030E-001	0.00000E+000	10	...........	1583.53
	134	1.34	5.14509E-001	1.22967E-003	0.00000E+000	3.70030E-001	0.00000E+000	10	...........	1583.53
	135	1.35	5.16472E-001	1.22965E-003	0.00000E+000	3.70030E-001	0.00000E+000	10	...........	1583.53
	136	1.36	5.18434E-001	1.22968E-003	0.00000E+000	3.70030E-001	0.00000E+000	10	...........	1583.53
	137	1.37	5.20415E-001	1.22965E-003	0.00000E+000	3.70030E-001	0.00000E+000	10	...........	1583.53
	138	1.38	5.22392E-001	1.22967E-003	0.00000E+000	3.70030E-001	0.00000E+000	10	...........	1583.53
	139	1.39	5.24336E-001	1.22969E-003	0.00000E+000	3.70030E-001	0.00000E+000	10	...........	1583.53
	140	1.4	5.26331E-001	1.22964E-003	0.00000E+000	3.70030E-001	0.00000E+000	10	...........	1583.53
	141	1.41	5.28282E-001	1.22970E-003	0.00000E+000	3.70030E-001	0.00000E+000	10	...........	1583.53
	142	1.42	5.30242E-001	1.22969E-003	0.00000E+000	3.70030E-001	0.00000E+000	10	...........	1583.53
	143	1.43	5.32194E-001	1.22970E-003	0.00000E+000	3.70030E-001	0.00000E+000	10	...........	1583.53
	144	1.44	5.34143E-001	1.22966E-003	0.00000E+000	3.70030E-001	0.00000E+000	10	...........	1583.53
	145	1.45	5.36099E-001	1.22966E-003	0.00000E+000	3.70030E-001	0.00000E+000	10	...........	1583.53
	146	1.46	5.38077E-001	1.22970E-003	0.00000E+000	3.70030E-001	0.00000E+000	10	...........	1583.53
	147	1.47	5.40031E-001	1.22972E-003	0.00000E+000	3.70030E-001	0.00000E+000	10	...........	1583.53
	148	1.48	5.41988E-001	1.22967E-003	0.00000E+000	3.70030E-001	0.00000E+000	10	...........	1583.53
	149	1.49	5.43944E-001	1.22969E-003	0.00000E+000	3.70030E-001	0.00000E+000	10	...........	1583.53
	150	1.5	5.45907E-001	1.22970E-003	0.00000E+000	3.70030E-001	0.00000E+000	10	...........	1583.53
	151	1.51	5.47832E-001	1.22969E-003	0.00000E+000	3.70030E-001	0.00000E+000	10	...........	1583.53
	152	1.52	5.49801E-001	1.22968E-003	0.00000E+000	3.70030E-001	0.00000E+000	10	...........	1583.53
	153	1.53	5.51755E-001	1.22966E-003	0.00000E+000	3.70030E-001	0.00000E+000	10	...........	1583.53
	154	1.54	5.53695E-001	1.22966E-003	0.00000E+000	3.70030E-001	0.00000E+000	10	...........	1583.53
	155	1.55	5.55630E-001	1.22967E-003	0.00000E+000	3.70030E-001	0.00000E+000	10	...........	1583.53
	156	1.56	5.57590E-001	1.22966E-003	0.00000E+000	3.70030E-001	0.00000E+000	10	...........	1583.53
	157	1.57	5.59525E-001	1.22969E-003	0.00000E+000	3.70030E-001	0.00000E+000	10	...........	1583.53
	158	1.58	5.61482E-001	1.22972E-003	0.00000E+000	3.70030E-001	0.00000E+000	10	...........	1583.53
	159	1.59	5.63427E-001	1.22972E-003	0.00000E+000	3.70030E-001	0.00000E+000	10	...........	1583.53
	160	1.6	5.65381E-001	1.22971E-003	0.00000E+000	3.70030E-001	0.00000E+000	10	...........	1583.53
	161	1.61	5.67319E-001	1.22971E-003	0.00000E+000	3.70030E-001	0.00000E+000	10	...........	1583.53
	162	1.62	5.69239E-001	1.22970E-003	0.00000E+000	3.70030E-001	0.00000E+000	10	...........	1583.53
	163	1.63	5.71189E-001	1.22969E-003	0.00000E+000	3.70030E-001	0.00000E+000	10	...........	1583.53
	164	1.64	5.73129E-001	1.22966E-003	0.00000E+000	3.70030E-001	0.00000E+000	10	...........	1583.53
	165	1.65	5.75055E-001	1.22971E-003	0.00000E+000	3.70030E-001	0.00000E+000	10	...........	1583.53
	166	1.66	5.77019E-001	1.22967E-003	0.00000E+000	3.70030E-001	0.00000E+000	10	...........	1583.53
	167	1.67	5.78953E-001	1.22972E-003	0.00000E+000	3.70030E-001	0.00000E+000	10	...........	1583.53
	168	1.68	5.80873E-001	1.22969E-003	0.00000E+000	3.70030E-001	0.00000E+000	10	...........	1583.53
	169	1.69	5.82797E-001	1.22968E-003	0.00000E+000	3.70030E-001	0.00000E+000	10	...........	1583.15
	170	1.7	5.84720E-001	1.22965E-003	0.00000E+000	3.70030E-001	0.00000E+000	10	...........	1583.15
	171	1.71	5.86645E-001	1.22964E-003	0.00000E+000	3.70030E-001	0.00000E+000	10	...........	1583.15
	172	1.72	5.88567E-001	1.22967E-003	0.00000E+000	3.70030E-001	0.00000E+000	10	...........	1583.15
	173	1.73	5.90535E-001	1.22970E-003	0.00000E+000	3.70030E-001	0.00000E+000	10	...........	1583.15
	174	1.74	5.92457E-001	1.22970E-003	0.00000E+000	3.70030E-001	0.00000E+000	10	...........	1583.15
	175	1.75	5.94365E-001	1.22971E-003	0.00000E+000	3.70030E-001	0.00000E+000	10	...........	1583.15
	176	1.76	5.96296E-001	1.22968E-003	0.00000E+000	3.70030E-001	0.00000E+000	10	...........	1583.15
	177	1.77	5.98202E-001	1.22975E-003	0.00000E+000	3.70030E-001	0.00000E+000	10	...........	1583.15
	178	1.78	6.00131E-001	1.22978E-003	0.00000E+000	3.70030E-001	0.00000E+000	10	...........	1583.15
	179	1.79	6.02080E-001	1.22977E-003	0.00000E+000	3.70030E-001	0.00000E+000	10	...........	1583.15
	180	1.8	6.03980E-001	1.22970E-003	0.00000E+000	3.70030E-001	0.00000E+000	10	...........	1583.15
	181	1.81	6.05880E-001	1.22973E-003	0.00000E+000	3.70030E-001	0.00000E+000	10	...........	1583.15
	182	1.82	6.07801E-001	1.22972E-003	0.00000E+000	3.70030E-001	0.00000E+000	10	...........	1583.15
	183	1.83	6.09730E-001	1.22977E-003	0.00000E+000	3.70030E-001	0.00000E+000	10	...........	1583.15
	184	1.84	6.11637E-001	1.22971E-003	0.00000E+000	3.70030E-001	0.00000E+000	10	...........	1583.15
	185	1.85	6.13525E-001	1.22970E-003	0.00000E+000	3.70030E-001	0.00000E+000	10	...........	1583.15
	186	1.86	6.15438E-001	1.22969E-003	0.00000E+000	3.70030E-001	0.00000E+000	10	...........	1583.15
	187	1.87	6.17340E-001	1.22968E-003	0.00000E+000	3.70030E-001	0.00000E+000	10	...........	1583.15
	188	1.88	6.19250E-001	1.22967E-003	0.00000E+000	3.70030E-001	0.00000E+000	10	...........	1583.15
	189	1.89	6.21155E-001	1.22971E-003	0.00000E+000	3.70030E-001	0.00000E+000	10	...........	1583.15
	190	1.9	6.23040E-001	1.22974E-003	0.00000E+000	3.70030E-001	0.00000E+000	10	...........	1583.15
	191	1.91	6.24946E-001	1.22971E-003	0.00000E+000	3.70030E-001	0.00000E+000	10	...........	1583.15
	192	1.92	6.26844E-001	1.22969E-003	0.00000E+000	3.70030E-001	0.00000E+000	10	...........	1583.15
	193	1.93	6.28727E-001	1.22967E-003	0.00000E+000	3.70030E-001	0.00000E+000	10	...........	1583.15
	194	1.94	6.30613E-001	1.22963E-003	0.00000E+000	3.70030E-001	0.00000E+000	10	...........	1583.15
	195	1.95	6.32496E-001	1.22974E-003	0.00000E+000	3.70030E-001	0.00000E+000	10	...........	1583.15
	196	1.96	6.34403E-001	1.22974E-003	0.00000E+000	3.70030E-001	0.00000E+000	10	...........	1583.15
	197	1.97	6.36266E-001	1.22967E-003	0.00000E+000	3.70030E-001	0.00000E+000	10	...........	1583.15
	198	1.98	6.38145E-001	1.22970E-003	0.00000E+000	3.70030E-001	0.00000E+000	10	...........	1583.15
	199	1.99	6.40035E-001	1.22971E-003	0.00000E+000	3.70030E-001	0.00000E+000	10	...........	1583.15
	200	2	6.41932E-001	1.22973E-003	0.00000E+000	3.70030E-001	0.00000E+000	10	...........	1583.15
	201	2.01	6.43811E-001	1.22965E-003	0.00000E+000	3.70030E-001	0.00000E+000	10	...........	1583.15
	202	2.02	6.45672E-001	1.22973E-003	0.00000E+000	3.70030E-001	0.00000E+000	10	...........	1583.15
	203	2.03	6.47554E-001	1.22968E-003	0.00000E+000	3.70030E-001	0.00000E+000	10	...........	1583.15
	204	2.04	6.49416E-001	1.22970E-003	0.00000E+000	3.70030E-001	0.00000E+000	10	...........	1583.15
	205	2.05	6.51281E-001	1.22969E-003	0.00000E+000	3.70030E-001	0.00000E+000	10	...........	1583.15
	206	2.06	6.53158E-001	1.22968E-003	0.00000E+000	3.70030E-001	0.00000E+000	10	...........	1583.15
	207	2.07	6.55020E-001	1.22967E-003	0.00000E+000	3.70030E-001	0.00000E+000	10	...........	1583.15
	208	2.08	6.56882E-001	1.22972E-003	0.00000E+000	3.70030E-001	0.00000E+000	10	...........	1583.15
	209	2.09	6.58741E-001	1.22973E-003	0.00000E+000	3.70030E-001	0.00000E+000	10	...........	1583.15
	210	2.1	6.60601E-001	1.22966E-003	0.00000E+000	3.70030E-001	0.00000E+000	10	...........	1583.15
	211	2.11	6.62431E-001	1.22969E-003	0.00000E+000	3.70030E-001	0.00000E+000	10	...........	1583.15
	212	2.12	6.64279E-001	1.22966E-003	0.00000E+000	3.70030E-001	0.00000E+000	10	...........	1583.15
	213	2.13	6.66175E-001	1.22971E-003	0.00000E+000	3.70030E-001	0.00000E+000	10	...........	1583.15
	214	2.14	6.67997E-001	1.22978E-003	0.00000E+000	3.70030E-001	0.00000E+000	10	...........	1583.15
	215	2.15	6.69860E-001	1.22971E-003	0.00000E+000	3.70030E-001	0.00000E+000	10	...........	1583.15
	216	2.16	6.71681E-001	1.22969E-003	0.00000E+000	3.70030E-001	0.00000E+000	10	...........	1583.15
	217	2.17	6.73518E-001	1.22967E-003	0.00000E+000	3.70030E-001	0.00000E+000	10	...........	1583.15
	218	2.18	6.75347E-001	1.22968E-003	0.00000E+000	3.70030E-001	0.00000E+000	10	...........	1583.15
	219	2.19	6.77188E-001	1.22965E-003	0.00000E+000	3.70030E-001	0.00000E+000	10	...........	1583.15
	220	2.2	6.79043E-001	1.22963E-003	0.00000E+000	3.70030E-001	0.00000E+000	10	...........	1583.15
	221	2.21	6.80852E-001	1.22969E-003	0.00000E+000	3.70030E-001	0.00000E+000	10	...........	1583.15
	222	2.22	6.82671E-001	1.22967E-003	0.00000E+000	3.70030E-001	0.00000E+000	10	...........	1583.15
	223	2.23	6.84485E-001	1.22970E-003	0.00000E+000	3.70030E-001	0.00000E+000	10	...........	1583.15
	224	2.24	6.86300E-001	1.22969E-003	0.00000E+000	3.70030E-001	0.00000E+000	10	...........	1583.15
	225	2.25	6.88115E-001	1.22968E-003	0.00000E+000	3.70030E-001	0.00000E+000	10	...........	1583.15
	226	2.26	6.89914E-001	1.22969E-003	0.00000E+000	3.70030E-001	0.00000E+000	10	...........	1583.15
	227	2.27	6.91729E-001	1.22969E-003	0.00000E+000	3.70030E-001	0.00000E+000	10	...........	1583.15
	228	2.28	6.93562E-001	1.22969E-003	0.00000E+000	3.70030E-001	0.00000E+000	10	...........	1583.15
	229	2.29	6.95357E-001	1.22972E-003	0.00000E+000	3.70030E-001	0.00000E+000	10	...........	1583.15
	230	2.3	6.97162E-001	1.22969E-003	0.00000E+000	3.70030E-001	0.00000E+000	10	...........	1583.15
	231	2.31	6.98941E-001	1.22965E-003	0.00000E+000	3.70030E-001	0.00000E+000	10	...........	1583.15
	232	2.32	7.00719E-001	1.22962E-003	0.00000E+000	3.70030E-001	0.00000E+000	10	...........	1583.15
	233	2.33	7.02497E-001	1.22969E-003	0.00000E+000	3.70030E-001	0.00000E+000	10	...........	1583.15
	234	2.34	7.04305E-001	1.22969E-003	0.00000E+000	3.70030E-001	0.00000E+000	10	...........	1583.15
	235	2.35	7.06084E-001	1.22970E-003	0.00000E+000	3.70030E-001	0.00000E+000	10	...........	1583.15
	236	2.36	7.07873E-001	1.22965E-003	0.00000E+000	3.70030E-001	0.00000E+000	10	...........	1583.15
	237	2.37	7.09624E-001	1.22966E-003	0.00000E+000	3.70030E-001	0.00000E+000	10	...........	1583.15
	238	2.38	7.11404E-001	1.22969E-003	0.00000E+000	3.70030E-001	0.00000E+000	10	...........	1583.15
	239	2.39	7.13162E-001	1.22961E-003	0.00000E+000	3.70030E-001	0.00000E+000	10	...........	1583.15
	240	2.4	7.14927E-001	1.22971E-003	0.00000E+000	3.70030E-001	0.00000E+000	10	...........	1583.15
	241	2.41	7.16663E-001	1.22964E-003	0.00000E+000	3.70030E-001	0.00000E+000	10	...........	1583.15
	242	2.42	7.18461E-001	1.22965E-003	0.00000E+000	3.70030E-001	0.00000E+000	10	...........	1583.15
	243	2.43	7.20204E-001	1.22971E-003	0.00000E+000	3.70030E-001	0.00000E+000	10	...........	1583.15
	244	2.44	7.21941E-001	1.22973E-003	0.00000E+000	3.70030E-001	0.00000E+000	10	...........	1583.15
	245	2.45	7.23687E-001	1.22965E-003	0.00000E+000	3.70030E-001	0.00000E+000	10	...........	1583.15
	246	2.46	7.25407E-001	1.22973E-003	0.00000E+000	3.70030E-001	0.00000E+000	10	...........	1583.15
	247	2.47	7.27136E-001	1.22971E-003	0.00000E+000	3.70030E-001	0.00000E+000	10	...........	1583.15
	248	2.48	7.28849E-001	1.22967E-003	0.00000E+000	3.70030E-001	0.00000E+000	10	...........	1583.15
	249	2.49	7.30599E-001	1.22964E-003	0.00000E+000	3.70030E-001	0.00000E+000	10	...........	1583.15
	250	2.5	7.32308E-001	1.22972E-003	0.00000E+000	3.70030E-001	0.00000E+000	10	...........	1583.15
	251	2.51	7.34022E-001	1.22973E-003	0.00000E+000	3.70030E-001	0.00000E+000	10	...........	1583.15
	252	2.52	7.35730E-001	1.22973E-003	0.00000E+000	3.70030E-001	0.00000E+000	10	...........	1583.15
	253	2.53	7.37448E-001	1.22971E-003	0.00000E+000	3.70030E-001	0.00000E+000	10	...........	1583.15
	254	2.54	7.39134E-001	1.22971E-003	0.00000E+000	3.70030E-001	0.00000E+000	10	...........	1583.15
	255	2.55	7.40822E-001	1.22973E-003	0.00000E+000	3.70030E-001	0.00000E+000	10	...........	1583.15
	256	2.56	7.42506E-001	1.22968E-003	0.00000E+000	3.70030E-001	0.00000E+000	10	...........	1583.15
	257	2.57	7.44219E-001	1.22970E-003	0.00000E+000	3.70030E-001	0.00000E+000	10	...........	1583.15
	258	2.58	7.45898E-001	1.22968E-003	0.00000E+000	3.70030E-001	0.00000E+000	10	...........	1583.15
	259	2.59	7.47582E-001	1.22977E-003	0.00000E+000	3.70030E-001	0.00000E+000	10	...........	1583.15
	260	2.6	7.49257E-001	1.22971E-003	0.00000E+000	3.70030E-001	0.00000E+000	10	...........	1583.15
	261	2.61	7.50915E-001	1.22978E-003	0.00000E+000	3.70030E-001	0.00000E+000	10	...........	1583.15
	262	2.62	7.52578E-001	1.22975E-003	0.00000E+000	3.70030E-001	0.00000E+000	10	...........	1583.15
	263	2.63	7.54231E-001	1.22973E-003	0.00000E+000	3.70030E-001	0.00000E+000	10	...........	1583.15
	264	2.64	7.55896E-001	1.22977E-003	0.00000E+000	3.70030E-001	0.00000E+000	10	...........	1583.15
	265	2.65	7.57532E-001	1.22972E-003	0.00000E+000	3.70030E-001	0.00000E+000	10	...........	1583.15
	266	2.66	7.59184E-001	1.22968E-003	0.00000E+000	3.70030E-001	0.00000E+000	10	...........	1583.15
	267	2.67	7.60787E-001	1.22968E-003	0.00000E+000	3.70030E-001	0.00000E+000	10	...........	1583.15
	268	2.68	7.62412E-001	1.22966E-003	0.00000E+000	3.70030E-001	0.00000E+000	10	...........	1583.15
	269	2.69	7.64036E-001	1.22969E-003	0.00000E+000	3.70030E-001	0.00000E+000	10	...........	1582.96
	270	2.7	7.65665E-001	1.22973E-003	0.00000E+000	3.70030E-001	0.00000E+000	10	...........	1582.96
	271	2.71	7.67273E-001	1.22971E-003	0.00000E+000	3.70030E-001	0.00000E+000	10	...........	1582.96
	272	2.72	7.68896E-001	1.22973E-003	0.00000E+000	3.70030E-001	0.00000E+000	10	...........	1582.96
	273	2.73	7.70500E-001	1.22971E-003	0.00000E+000	3.70030E-001	0.00000E+000	10	...........	1582.96
	274	2.74	7.72093E-001	1.22968E-003	0.00000E+000	3.70030E-001	0.00000E+000	10	...........	1582.96
	275	2.75	7.73671E-001	1.22973E-003	0.00000E+000	3.70030E-001	0.00000E+000	10	...........	1582.96
	276	2.76	7.75256E-001	1.22968E-003	0.00000E+000	3.70030E-001	0.00000E+000	10	...........	1582.96
	277	2.77	7.76813E-001	1.22968E-003	0.00000E+000	3.70030E-001	0.00000E+000	10	...........	1582.96
	278	2.78	7.78377E-001	1.22966E-003	0.00000E+000	3.70030E-001	0.00000E+000	10	...........	1582.96
	279	2.79	7.79933E-001	1.22969E-003	0.00000E+000	3.70030E-001	0.00000E+000	10	...........	1582.96
	280	2.8	7.81509E-001	1.22973E-003	0.00000E+000	3.70030E-001	0.00000E+000	10	...........	1582.96
	281	2.81	7.83061E-001	1.22965E-003	0.00000E+000	3.70030E-001	0.00000E+000	10	...........	1582.96
	282	2.82	7.84589E-001	1.22968E-003	0.00000E+000	3.70030E-001	0.00000E+000	10	...........	1582.96
	283	2.83	7.86130E-001	1.22962E-003	0.00000E+000	3.70030E-001	0.00000E+000	10	...........	1582.96
	284	2.84	7.87665E-001	1.22970E-003	0.00000E+000	3.70030E-001	0.00000E+000	10	...........	1582.96
	285	2.85	7.89174E-001	1.22969E-003	0.00000E+000	3.70030E-001	0.00000E+000	10	...........	1582.96
	286	2.86	7.90661E-001	1.22974E-003	0.00000E+000	3.70030E-001	0.00000E+000	10	...........	1582.96
	287	2.87	7.92172E-001	1.22967E-003	0.00000E+000	3.70030E-001	0.00000E+000	10	...........	1582.96
	288	2.88	7.93679E-001	1.22973E-003	0.00000E+000	3.70030E-001	0.00000E+000	10	...........	1582.96
	289	2.89	7.95196E-001	1.22972E-003	0.00000E+000	3.70030E-001	0.00000E+000	10	...........	1582.96
	290	2.9	7.96660E-001	1.22967E-003	0.00000E+000	3.70030E-001	0.00000E+000	10	...........	1582.96
	291	2.91	7.98140E-001	1.22968E-003	0.00000E+000	3.70030E-001	0.00000E+000	10	...........	1582.96
	292	2.92	7.99597E-001	1.22973E-003	0.00000E+000	3.70030E-001	0.00000E+000	10	...........	1582.96
	293	2.93	8.01075E-001	1.22976E-003	0.00000E+000	3.70030E-001	0.00000E+000	10	...........	1582.96
	294	2.94	8.02522E-001	1.22971E-003	0.00000E+000	3.70030E-001	0.00000E+000	10	...........	1582.96
	295	2.95	8.03959E-001	1.22971E-003	0.00000E+000	3.70030E-001	0.00000E+000	10	...........	1582.96
	296	2.96	7.80853E-001	-1.22984E-003	0.00000E+000	-3.70030E-001	0.00000E+000	10	...........	1582.96
	297	2.97	7.76476E-001	-1.22990E-003	0.00000E+000	-3.70030E-001	0.00000E+000	10	...........	1582.96
	298	2.98	7.72774E-001	-1.22986E-003	0.00000E+000	-3.70030E-001	0.00000E+000	10	...........	1582.96
	299	2.99	7.69382E-001	-1.22991E-003	0.00000E+000	-3.70030E-001	0.00000E+000	10	...........	1582.96
	300	3	7.66180E-001	-1.22989E-003	0.00000E+000	-3.70030E-001	0.00000E+000	10	...........	1582.96
	301	3.01	7.63120E-001	-1.22995E-003	0.00000E+000	-3.70030E-001	0.00000E+000	10	...........	1582.96
	302	3.02	7.60140E-001	-1.23003E-003	0.00000E+000	-3.70030E-001	0.00000E+000	10	...........	1582.96
	303	3.03	7.57274E-001	-1.23003E-003	0.00000E+000	-3.70030E-001	0.00000E+000	10	...........	1582.96
	304	3.04	7.54451E-001	-1.23000E-003	0.00000E+000	-3.70030E-001	0.00000E+000	10	...........	1582.96
	305	3.05	7.51706E-001	-1.23004E-003	0.00000E+000	-3.70030E-001	0.00000E+000	10	...........	1582.96
	306	3.06	7.48979E-001	-1.23003E-003	0.00000E+000	-3.70030E-001	0.00000E+000	10	...........	1582.96
	307	3.07	7.46319E-001	-1.23001E-003	0.00000E+000	-3.70030E-001	0.00000E+000	10	...........	1582.96
	308	3.08	7.43678E-001	-1.23004E-003	0.00000E+000	-3.70030E-001	0.00000E+000	10	...........	1582.96
	309	3.09	7.41057E-001	-1.22999E-003	0.00000E+000	-3.70030E-001	0.00000E+000	10	...........	1582.96
	310	3.1	7.38468E-001	-1.22998E-003	0.00000E+000	-3.70030E-001	0.00000E+000	10	...........	1582.96
	311	3.11	7.35884E-001	-1.23004E-003	0.00000E+000	-3.70030E-001	0.00000E+000	10	...........	1582.96
	312	3.12	7.33347E-001	-1.23007E-003	0.00000E+000	-3.70030E-001	0.00000E+000	10	...........	1582.96
	313	3.13	7.30820E-001	-1.23000E-003	0.00000E+000	-3.70030E-001	0.00000E+000	10	...........	1582.96
	314	3.14	7.28295E-001	-1.23002E-003	0.00000E+000	-3.70030E-001	0.00000E+000	10	...........	1582.96
	315	3.15	7.25806E-001	-1.23003E-003	0.00000E+000	-3.70030E-001	0.00000E+000	10	...........	1582.96
	316	3.16	7.23332E-001	-1.23002E-003	0.00000E+000	-3.70030E-001	0.00000E+000	10	...........	1582.96
	317	3.17	7.20873E-001	-1.23003E-003	0.00000E+000	-3.70030E-001	0.00000E+000	10	...........	1582.96
	318	3.18	7.18422E-001	-1.23007E-003	0.00000E+000	-3.70030E-001	0.00000E+000	10	...........	1582.96
	319	3.19	7.15934E-001	-1.23008E-003	0.00000E+000	-3.70030E-001	0.00000E+000	10	...........	1582.96
	320	3.2	7.13503E-001	-1.23008E-003	0.00000E+000	-3.70030E-001	0.00000E+000	10	...........	1582.96
	321	3.21	7.11087E-001	-1.23010E-003	0.00000E+000	-3.70030E-001	0.00000E+000	10	...........	1582.96
	322	3.22	7.08683E-001	-1.23005E-003	0.00000E+000	-3.70030E-001	0.00000E+000	10	...........	1582.96
	323	3.23	7.06286E-001	-1.23004E-003	0.00000E+000	-3.70030E-001	0.00000E+000	10	...........	1582.96
	324	3.24	7.03872E-001	-1.23009E-003	0.00000E+000	-3.70030E-001	0.00000E+000	10	...........	1582.96
	325	3.25	7.01481E-001	-1.23013E-003	0.00000E+000	-3.70030E-001	0.00000E+000	10	...........	1582.96
	326	3.26	6.99100E-001	-1.23006E-003	0.00000E+000	-3.70030E-001	0.00000E+000	10	...........	1582.96
	327	3.27	6.96716E-001	-1.23011E-003	0.00000E+000	-3.70030E-001	0.00000E+000	10	...........	1582.96
	328	3.28	6.94366E-001	-1.23006E-003	0.00000E+000	-3.70030E-001	0.00000E+000	10	...........	1582.96
	329	3.29	6.91992E-001	-1.23005E-003	0.00000E+000	-3.70030E-001	0.00000E+000	10	...........	1582.96
	330	3.3	6.89627E-001	-1.23003E-003	0.00000E+000	-3.70030E-001	0.00000E+000	10	...........	1582.96
	331	3.31	6.87267E-001	-1.23009E-003	0.00000E+000	-3.70030E-001	0.00000E+000	10	...........	1582.96
	332	3.32	6.84903E-001	-1.23011E-003	0.00000E+000	-3.70030E-001	0.00000E+000	10	...........	1582.96
	333	3.33	6.82575E-001	-1.23011E-003	0.00000E+000	-3.70030E-001	0.00000E+000	10	...........	1582.96
	334	3.34	6.80226E-001	-1.23011E-003	0.00000E+000	-3.70030E-001	0.00000E+000	10	...........	1582.96
	335	3.35	6.77899E-001	-1.23008E-003	0.00000E+000	-3.70030E-001	0.00000E+000	10	...........	1582.96
	336	3.36	6.75578E-001	-1.23004E-003	0.00000E+000	-3.70030E-001	0.00000E+000	10	...........	1582.96
	337	3.37	6.73280E-001	-1.23010E-003	0.00000E+000	-3.70030E-001	0.00000E+000	10	...........	1582.96
	338	3.38	6.70944E-001	-1.23008E-003	0.00000E+000	-3.70030E-001	0.00000E+000	10	...........	1582.96
	339	3.39	6.68618E-001	-1.23011E-003	0.00000E+000	-3.70030E-001	0.00000E+000	10	...........	1582.96
	340	3.4	6.66334E-001	-1.23011E-003	0.00000E+000	-3.70030E-001	0.00000E+000	10	...........	1582.96
	341	3.41	6.63984E-001	-1.23008E-003	0.00000E+000	-3.70030E-001	0.00000E+000	10	...........	1582.96
	342	3.42	6.61703E-001	-1.23005E-003	0.00000E+000	-3.70030E-001	0.00000E+000	10	...........	1582.96
	343	3.43	6.59403E-001	-1.23006E-003	0.00000E+000	-3.70030E-001	0.00000E+000	10	...........	1582.96
	344	3.44	6.57121E-001	-1.23006E-003	0.00000E+000	-3.70030E-001	0.00000E+000	10	...........	1582.96
	345	3.45	6.54841E-001	-1.23002E-003	0.00000E+000	-3.70030E-001	0.00000E+000	10	...........	1582.96
	346	3.46	6.52539E-001	-1.23005E-003	0.00000E+000	-3.70030E-001	0.00000E+000	10	...........	1582.96
	347	3.47	6.50253E-001	-1.23010E-003	0.00000E+000	-3.70030E-001	0.00000E+000	10	...........	1582.96
	348	3.48	6.47968E-001	-1.23008E-003	0.00000E+000	-3.70030E-001	0.00000E+000	10	...........	1582.96
	349	3.49	6.45682E-001	-1.23006E-003	0.00000E+000	-3.70030E-001	0.00000E+000	10	...........	1582.96
	350	3.5	6.43431E-001	-1.23005E-003	0.00000E+000	-3.70030E-001	0.00000E+000	10	...........	1582.96
	351	3.51	6.41146E-001	-1.23007E-003	0.00000E+000	-3.70030E-001	0.00000E+000	10	...........	1582.96
	352	3.52	6.38866E-001	-1.23006E-003	0.00000E+000	-3.70030E-001	0.00000E+000	10	...........	1582.96
	353	3.53	6.36591E-001	-1.23005E-003	0.00000E+000	-3.70030E-001	0.00000E+000	10	...........	1582.96
	354	3.54	6.34342E-001	-1.23006E-003	0.00000E+000	-3.70030E-001	0.00000E+000	10	...........	1582.96
	355	3.55	6.32090E-001	-1.23004E-003	0.00000E+000	-3.70030E-001	0.00000E+000	10	...........	1582.96
	356	3.56	6.29829E-001	-1.23008E-003	0.00000E+000	-3.70030E-001	0.00000E+000	10	...........	1582.96
	357	3.57	6.27598E-001	-1.23009E-003	0.00000E+000	-3.70030E-001	0.00000E+000	10	...........	1582.96
	358	3.58	6.25328E-001	-1.23007E-003	0.00000E+000	-3.70030E-001	0.00000E+000	10	...........	1582.96
	359	3.59	6.23075E-001	-1.23007E-003	0.00000E+000	-3.70030E-001	0.00000E+000	10	...........	1582.96
	360	3.6	6.20844E-001	-1.23006E-003	0.00000E+000	-3.70030E-001	0.00000E+000	10	...........	1582.96
	361	3.61	6.18617E-001	-1.23002E-003	0.00000E+000	-3.70030E-001	0.00000E+000	10	...........	1582.96
	362	3.62	6.16378E-001	-1.23009E-003	0.00000E+000	-3.70030E-001	0.00000E+000	10	...........	1582.96
	363	3.63	6.14111E-001	-1.23003E-003	0.00000E+000	-3.70030E-001	0.00000E+000	10	...........	1582.96
	364	3.64	6.11866E-001	-1.23007E-003	0.00000E+000	-3.70030E-001	0.00000E+000	10	...........	1582.96
	365	3.65	6.09648E-001	-1.23013E-003	0.00000E+000	-3.70030E-001	0.00000E+000	10	...........	1582.96
	366	3.66	6.07411E-001	-1.23014E-003	0.00000E+000	-3.70030E-001	0.00000E+000	10	...........	1582.96
	367	3.67	6.05202E-001	-1.23009E-003	0.00000E+000	-3.70030E-001	0.00000E+000	10	...........	1582.96
	368	3.68	6.03010E-001	-1.23007E-003	0.00000E+000	-3.70030E-001	0.00000E+000	10	...........	1582.96
	369	3.69	6.00771E-001	-1.23005E-003	0.00000E+000	-3.70030E-001	0.00000E+000	10	...........	1582.96
	370	3.7	5.98547E-001	-1.23010E-003	0.00000E+000	-3.70030E-001	0.00000E+000	10	...........	1582.96
	371	3.71	5.96353E-001	-1.23006E-003	0.00000E+000	-3.70030E-001	0.00000E+000	10	...........	1582.96
	372	3.72	5.94127E-001	-1.23008E-003	0.00000E+000	-3.70030E-001	0.00000E+000	10	...........	1582.96
	373	3.73	5.91894E-001	-1.23011E-003	0.00000E+000	-3.70030E-001	0.00000E+000	10	...........	1582.96
	374	3.74	5.89709E-001	-1.23010E-003	0.00000E+000	-3.70030E-001	0.00000E+000	10	...........	1582.96
	375	3.75	5.87489E-001	-1.23013E-003	0.00000E+000	-3.70030E-001	0.00000E+000	10	...........	1582.96
	376	3.76	5.85275E-001	-1.23011E-003	0.00000E+000	-3.70030E-001	0.00000E+000	10	...........	1582.96
	377	3.77	5.83083E-001	-1.23015E-003	0.00000E+000	-3.70030E-001	0.00000E+000	10	...........	1582.96
	378	3.78	5.80893E-001	-1.23016E-003	0.00000E+000	-3.70030E-001	0.00000E+000	10	...........	1582.96
	379	3.79	5.78713E-001	-1.23011E-003	0.00000E+000	-3.70030E-001	0.00000E+000	10	...........	1582.96
	380	3.8	5.76527E-001	-1.23010E-003	0.00000E+000	-3.70030E-001	0.00000E+000	10	...........	1582.96
	381	3.81	5.74312E-001	-1.23010E-003	0.00000E+000	-3.70030E-001	0.00000E+000	10	...........	1582.96
	382	3.82	5.72132E-001	-1.23010E-003	0.00000E+000	-3.70030E-001	0.00000E+000	10	...........	1582.96
	383	3.83	5.69956E-001	-1.23014E-003	0.00000E+000	-3.70030E-001	0.00000E+000	10	...........	1582.96
	384	3.84	5.67763E-001	-1.23011E-003	0.00000E+000	-3.70030E-001	0.00000E+000	10	...........	1582.96
	385	3.85	5.65599E-001	-1.23009E-003	0.00000E+000	-3.70030E-001	0.00000E+000	10	...........	1582.96
	386	3.86	5.63412E-001	-1.23011E-003	0.00000E+000	-3.70030E-001	0.00000E+000	10	...........	1582.96
	387	3.87	5.61231E-001	-1.23010E-003	0.00000E+000	-3.70030E-001	0.00000E+000	10	...........	1582.96
	388	3.88	5.59058E-001	-1.23007E-003	0.00000E+000	-3.70030E-001	0.00000E+000	10	...........	1582.96
	389	3.89	5.56908E-001	-1.23005E-003	0.00000E+000	-3.70030E-001	0.00000E+000	10	...........	1582.96
	390	3.9	5.54733E-001	-1.23006E-003	0.00000E+000	-3.70030E-001	0.00000E+000	10	...........	1582.96
	391	3.91	5.52572E-001	-1.23005E-003	0.00000E+000	-3.70030E-001	0.00000E+000	10	...........	1582.96
	392	3.92	5.50389E-001	-1.23009E-003	0.00000E+000	-3.70030E-001	0.00000E+000	10	...........	1582.96
	393	3.93	5.48242E-001	-1.23001E-003	0.00000E+000	-3.70030E-001	0.00000E+000	10	...........	1582.96
	394	3.94	5.46111E-001	-1.23004E-003	0.00000E+000	-3.70030E-001	0.00000E+000	10	...........	1582.96
	395	3.95	5.43941E-001	-1.23005E-003	0.00000E+000	-3.70030E-001	0.00000E+000	10	...........	1582.96
	396	3.96	5.41789E-001	-1.23003E-003	0.00000E+000	-3.70030E-001	0.00000E+000	10	...........	1582.96
	397	3.97	5.39653E-001	-1.23007E-003	0.00000E+000	-3.70030E-001	0.00000E+000	10	...........	1582.96
	398	3.98	5.37455E-001	-1.23007E-003	0.00000E+000	-3.70030E-001	0.00000E+000	10	...........	1582.96
	399	3.99	5.35355E-001	-1.23007E-003	0.00000E+000	-3.70030E-001	0.00000E+000	10	...........	1582.96
	400	4	5.33191E-001	-1.22999E-003	0.00000E+000	-3.70030E-001	0.00000E+000	10	...........	1582.96
	401	4.01	5.31040E-001	-1.23009E-003	0.00000E+000	-3.70030E-001	0.00000E+000	10	...........	1582.96
	402	4.02	5.28934E-001	-1.23008E-003	0.00000E+000	-3.70030E-001	0.00000E+000	10	...........	1582.96
	403	4.03	5.26793E-001	-1.23008E-003	0.00000E+000	-3.70030E-001	0.00000E+000	10	...........	1582.96
	404	4.04	5.24647E-001	-1.23006E-003	0.00000E+000	-3.70030E-001	0.00000E+000	10	...........	1582.96
	405	4.05	5.22522E-001	-1.23004E-003	0.00000E+000	-3.70030E-001	0.00000E+000	10	...........	1582.96
	406	4.06	5.20366E-001	-1.23007E-003	0.00000E+000	-3.70030E-001	0.00000E+000	10	...........	1582.96
	407	4.07	5.18232E-001	-1.23009E-003	0.00000E+000	-3.70030E-001	0.00000E+000	10	...........	1582.96
	408	4.08	5.16105E-001	-1.23008E-003	0.00000E+000	-3.70030E-001	0.00000E+000	10	...........	1582.96
	409	4.09	5.13997E-001	-1.23004E-003	0.00000E+000	-3.70030E-001	0.00000E+000	10	...........	1582.96
	410	4.1	5.11854E-001	-1.23004E-003	0.00000E+000	-3.70030E-001	0.00000E+000	10	...........	1582.96
	411	4.11	5.09748E-001	-1.23007E-003	0.00000E+000	-3.70030E-001	0.00000E+000	10	...........	1582.96
	412	4.12	5.07616E-001	-1.23008E-003	0.00000E+000	-3.70030E-001	0.00000E+000	10	...........	1582.96
	413	4.13	5.05503E-001	-1.23008E-003	0.00000E+000	-3.70030E-001	0.00000E+000	10	...........	1582.96
	414	4.14	5.03398E-001	-1.23010E-003	0.00000E+000	-3.70030E-001	0.00000E+000	10	...........	1582.96
	415	4.15	5.01280E-001	-1.23008E-003	0.00000E+000	-3.70030E-001	0.00000E+000	10	...........	1582.96
	416	4.16	4.99157E-001	-1.23012E-003	0.00000E+000	-3.70030E-001	0.00000E+000	10	...........	1582.96
	417	4.17	4.97049E-001	-1.23009E-003	0.00000E+000	-3.70030E-001	0.00000E+000	10	...........	1582.96
	418	4.18	4.94939E-001	-1.23009E-003	0.00000E+000	-3.70030E-001	0.00000E+000	10	...........	1582.96
	419	4.19	4.92845E-001	-1.23007E-003	0.00000E+000	-3.70030E-001	0.00000E+000	10	...........	1582.96
	420	4.2	4.90769E-001	-1.23000E-003	0.00000E+000	-3.70030E-001	0.00000E+000	10	...........	1582.96
	421	4.21	4.88669E-001	-1.22999E-003	0.00000E+000	-3.70030E-001	0.00000E+000	10	...........	1582.96
	422	4.22	4.86547E-001	-1.23005E-003	0.00000E+000	-3.70030E-001	0.00000E+000	10	...........	1582.96
	423	4.23	4.84430E-001	-1.23008E-003	0.00000E+000	-3.70030E-001	0.00000E+000	10	...........	1582.96
	424	4.24	4.82343E-001	-1.23012E-003	0.00000E+000	-3.70030E-001	0.00000E+000	10	...........	1582.96
	425	4.25	4.80245E-001	-1.23006E-003	0.00000E+000	-3.70030E-001	0.00000E+000	10	...........	1582.96
	426	4.26	4.78162E-001	-1.23007E-003	0.00000E+000	-3.70030E-001	0.00000E+000	10	...........	1582.96
	427	4.27	4.76088E-001	-1.23008E-003	0.00000E+000	-3.70030E-001	0.00000E+000	10	...........	1582.96
	428	4.28	4.73986E-001	-1.23010E-003	0.00000E+000	-3.70030E-001	0.00000E+000	10	...........	1582.96
	429	4.29	4.71883E-001	-1.23007E-003	0.00000E+000	-3.70030E-001	0.00000E+000	10	...........	1582.96
	430	4.3	4.69828E-001	-1.23005E-003	0.00000E+000	-3.70030E-001	0.00000E+000	10	...........	1582.96
	431	4.31	4.67763E-001	-1.23005E-003	0.00000E+000	-3.70030E-001	0.00000E+000	10	...........	1582.96
	432	4.32	4.65672E-001	-1.23007E-003	0.00000E+000	-3.70030E-001	0.00000E+000	10	...........	1582.96
	433	4.33	4.63575E-001	-1.23012E-003	0.00000E+000	-3.70030E-001	0.00000E+000	10	...........	1582.96
	434	4.34	4.61501E-001	-1.23008E-003	0.00000E+000	-3.70030E-001	0.00000E+000	10	...........	1582.96
	435	4.35	4.59403E-001	-1.23007E-003	0.00000E+000	-3.70030E-001	0.00000E+000	10	...........	1582.96
	436	4.36	4.57336E-001	-1.23005E-003	0.00000E+000	-3.70030E-001	0.00000E+000	10	...........	1582.96
	437	4.37	4.55264E-001	-1.23008E-003	0.00000E+000	-3.70030E-001	0.00000E+000	10	...........	1582.96
	438	4.38	4.53211E-001	-1.23006E-003	0.00000E+000	-3.70030E-001	0.00000E+000	10	...........	1582.96
	439	4.39	4.51126E-001	-1.23004E-003	0.00000E+000	-3.70030E-001	0.00000E+000	10	...........	1582.96
	440	4.4	4.49078E-001	-1.23009E-003	0.00000E+000	-3.70030E-001	0.00000E+000	10	...........	1582.96
	441	4.41	4.47000E-001	-1.23004E-003	0.00000E+000	-3.70030E-001	0.00000E+000	10	...........	1582.96
	442	4.42	4.44937E-001	-1.23001E-003	0.00000E+000	-3.70030E-001	0.00000E+000	10	...........	1582.96
	443	4.43	4.42898E-001	-1.23007E-003	0.00000E+000	-3.70030E-001	0.00000E+000	10	...........	1582.96
	444	4.44	4.40843E-001	-1.23009E-003	0.00000E+000	-3.70030E-001	0.00000E+000	10	...........	1582.96
	445	4.45	4.38784E-001	-1.23007E-003	0.00000E+000	-3.70030E-001	0.00000E+000	10	...........	1582.96
	446	4.46	4.36718E-001	-1.23009E-003	0.00000E+000	-3.70030E-001	0.00000E+000	10	...........	1582.96
	447	4.47	4.34634E-001	-1.23012E-003	0.00000E+000	-3.70030E-001	0.00000E+000	10	...........	1582.96
	448	4.48	4.32609E-001	-1.23005E-003	0.00000E+000	-3.70030E-001	0.00000E+000	10	...........	1582.96
	449	4.49	4.30560E-001	-1.23000E-003	0.00000E+000	-3.70030E-001	0.00000E+000	10	...........	1582.96
	450	4.5	4.28497E-001	-1.23006E-003	0.00000E+000	-3.70030E-001	0.00000E+000	10	...........	1582.96
	451	4.51	4.26455E-001	-1.23009E-003	0.00000E+000	-3.70030E-001	0.00000E+000	10	...........	1582.96
	452	4.52	4.24395E-001	-1.23011E-003	0.00000E+000	-3.70030E-001	0.00000E+000	10	...........	1582.96
	453	4.53	4.22335E-001	-1.23012E-003	0.00000E+000	-3.70030E-001	0.00000E+000	10	...........	1582.96
	454	4.54	4.20304E-001	-1.23006E-003	0.00000E+000	-3.70030E-001	0.00000E+000	10	...........	1582.96
	455	4.55	4.18273E-001	-1.23005E-003	0.00000E+000	-3.70030E-001	0.00000E+000	10	...........	1582.96
	456	4.56	4.16229E-001	-1.23009E-003	0.00000E+000	-3.70030E-001	0.00000E+000	10	...........	1582.96
	457	4.57	4.14202E-001	-1.23006E-003	0.00000E+000	-3.70030E-001	0.00000E+000	10	...........	1582.96
	458	4.58	4.12169E-001	-1.23006E-003	0.00000E+000	-3.70030E-001	0.00000E+000	10	...........	1582.96
	459	4.59	4.10133E-001	-1.23001E-003	0.00000E+000	-3.70030E-001	0.00000E+000	10	...........	1582.96
	460	4.6	4.08078E-001	-1.23006E-003	0.00000E+000	-3.70030E-001	0.00000E+000	10	...........	1582.96
	461	4.61	4.06049E-001	-1.23007E-003	0.00000E+000	-3.70030E-001	0.00000E+000	10	...........	1582.96
	462	4.62	4.04011E-001	-1.23009E-003	0.00000E+000	-3.70030E-001	0.00000E+000	10	...........	1582.96
	463	4.63	4.01973E-001	-1.23013E-003	0.00000E+000	-3.70030E-001	0.00000E+000	10	...........	1582.96
	464	4.64	3.99928E-001	-1.23009E-003	0.00000E+000	-3.70030E-001	0.00000E+000	10	...........	1582.96
	465	4.65	3.97931E-001	-1.23008E-003	0.00000E+000	-3.70030E-001	0.00000E+000	10	...........	1582.96
	466	4.66	3.95893E-001	-1.23002E-003	0.00000E+000	-3.70030E-001	0.00000E+000	10	...........	1582.96
	467	4.67	3.93883E-001	-1.22997E-003	0.00000E+000	-3.70030E-001	0.00000E+000	10	...........	1582.96
	468	4.68	3.91853E-001	-1.23007E-003	0.00000E+000	-3.70030E-001	0.00000E+000	10	...........	1582.96
	469	4.69	3.89828E-001	-1.23007E-003	0.00000E+000	-3.70030E-001	0.00000E+000	10	...........	1583.05
	470	4.7	3.87803E-001	-1.23011E-003	0.00000E+000	-3.70030E-001	0.00000E+000	10	...........	1583.05
	471	4.71	3.85783E-001	-1.23012E-003	0.00000E+000	-3.70030E-001	0.00000E+000	10	...........	1583.05
	472	4.72	3.83744E-001	-1.23016E-003	0.00000E+000	-3.70030E-001	0.00000E+000	10	...........	1583.05
	473	4.73	3.81728E-001	-1.23012E-003	0.00000E+000	-3.70030E-001	0.00000E+000	10	...........	1583.05
	474	4.74	3.79738E-001	-1.23007E-003	0.00000E+000	-3.70030E-001	0.00000E+000	10	...........	1583.05
	475	4.75	3.77702E-001	-1.23009E-003	0.00000E+000	-3.70030E-001	0.00000E+000	10	...........	1583.05
	476	4.76	3.75693E-001	-1.23009E-003	0.00000E+000	-3.70030E-001	0.00000E+000	10	...........	1583.05
	477	4.77	3.73693E-001	-1.23012E-003	0.00000E+000	-3.70030E-001	0.00000E+000	10	...........	1583.05
	478	4.78	3.71696E-001	-1.23004E-003	0.00000E+000	-3.70030E-001	0.00000E+000	10	...........	1583.05
	479	4.79	3.69665E-001	-1.23005E-003	0.00000E+000	-3.70030E-001	0.00000E+000	10	...........	1583.05
	480	4.8	3.67658E-001	-1.23003E-003	0.00000E+000	-3.70030E-001	0.00000E+000	10	...........	1583.05
	481	4.81	3.65653E-001	-1.23011E-003	0.00000E+000	-3.70030E-001	0.00000E+000	10	...........	1583.05
	482	4.82	3.63637E-001	-1.23011E-003	0.00000E+000	-3.70030E-001	0.00000E+000	10	...........	1583.05
	483	4.83	3.61643E-001	-1.23011E-003	0.00000E+000	-3.70030E-001	0.00000E+000	10	...........	1583.05
	484	4.84	3.59660E-001	-1.23008E-003	0.00000E+000	-3.70030E-001	0.00000E+000	10	...........	1583.05
	485	4.85	3.57619E-001	-1.23007E-003	0.00000E+000	-3.70030E-001	0.00000E+000	10	...........	1583.05
	486	4.86	3.55644E-001	-1.23010E-003	0.00000E+000	-3.70030E-001	0.00000E+000	10	...........	1583.05
	487	4.87	3.53622E-001	-1.23008E-003	0.00000E+000	-3.70030E-001	0.00000E+000	10	...........	1583.05
	488	4.88	3.51626E-001	-1.23007E-003	0.00000E+000	-3.70030E-001	0.00000E+000	10	...........	1583.05
	489	4.89	3.49635E-001	-1.23008E-003	0.00000E+000	-3.70030E-001	0.00000E+000	10	...........	1583.05
	490	4.9	3.47638E-001	-1.23007E-003	0.00000E+000	-3.70030E-001	0.00000E+000	10	...........	1583.05
	491	4.91	3.45638E-001	-1.23006E-003	0.00000E+000	-3.70030E-001	0.00000E+000	10	...........	1583.05
	492	4.92	3.43639E-001	-1.23014E-003	0.00000E+000	-3.70030E-001	0.00000E+000	10	...........	1583.05
	493	4.93	3.41633E-001	-1.23012E-003	0.00000E+000	-3.70030E-001	0.00000E+000	10	...........	1583.05
	494	4.94	3.39654E-001	-1.23016E-003	0.00000E+000	-3.70030E-001	0.00000E+000	10	...........	1583.05
	495	4.95	3.37652E-001	-1.23012E-003	0.00000E+000	-3.70030E-001	0.00000E+000	10	...........	1583.05
	496	4.96	3.35673E-001	-1.23005E-003	0.00000E+000	-3.70030E-001	0.00000E+000	10	...........	1583.05
	497	4.97	3.33694E-001	-1.23009E-003	0.00000E+000	-3.70030E-001	0.00000E+000	10	...........	1583.05
	498	4.98	3.31683E-001	-1.23009E-003	0.00000E+000	-3.70030E-001	0.00000E+000	10	...........	1583.05
	499	4.99	3.29696E-001	-1.23006E-003	0.00000E+000	-3.70030E-001	0.00000E+000	10	...........	1583.05
	500	5	3.27711E-001	-1.23011E-003	0.00000E+000	-3.70030E-001	0.00000E+000	10	...........	1583.05
	501	5.01	3.25724E-001	-1.23004E-003	0.00000E+000	-3.70030E-001	0.00000E+000	10	...........	1583.05
	502	5.02	3.23749E-001	-1.23005E-003	0.00000E+000	-3.70030E-001	0.00000E+000	10	...........	1583.05
	503	5.03	3.21799E-001	-1.23005E-003	0.00000E+000	-3.70030E-001	0.00000E+000	10	...........	1583.05
	504	5.04	3.19781E-001	-1.23001E-003	0.00000E+000	-3.70030E-001	0.00000E+000	10	...........	1583.05
	505	5.05	3.17809E-001	-1.23004E-003	0.00000E+000	-3.70030E-001	0.00000E+000	10	...........	1583.05
	506	5.06	3.15820E-001	-1.23008E-003	0.00000E+000	-3.70030E-001	0.00000E+000	10	...........	1583.05
	507	5.07	3.13839E-001	-1.23009E-003	0.00000E+000	-3.70030E-001	0.00000E+000	10	...........	1583.05
	508	5.08	3.11859E-001	-1.23008E-003	0.00000E+000	-3.70030E-001	0.00000E+000	10	...........	1583.05
	509	5.09	3.09875E-001	-1.23008E-003	0.00000E+000	-3.70030E-001	0.00000E+000	10	...........	1583.05
	510	5.1	3.07920E-001	-1.23012E-003	0.00000E+000	-3.70030E-001	0.00000E+000	10	...........	1583.05
	511	5.11	3.05914E-001	-1.23006E-003	0.00000E+000	-3.70030E-001	0.00000E+000	10	...........	1583.05
	512	5.12	3.03967E-001	-1.23003E-003	0.00000E+000	-3.70030E-001	0.00000E+000	10	...........	1583.05
	513	5.13	3.01984E-001	-1.23006E-003	0.00000E+000	-3.70030E-001	0.00000E+000	10	...........	1583.05
	514	5.14	2.99987E-001	-1.23013E-003	0.00000E+000	-3.70030E-001	0.00000E+000	10	...........	1583.05
	515	5.15	2.98031E-001	-1.23014E-003	0.00000E+000	-3.70030E-001	0.00000E+000	10	...........	1583.05
	516	5.16	2.96057E-001	-1.23012E-003	0.00000E+000	-3.70030E-001	0.00000E+000	10	...........	1583.05
	517	5.17	2.94076E-001	-1.23006E-003	0.00000E+000	-3.70030E-001	0.00000E+000	10	...........	1583.05
	518	5.18	2.92110E-001	-1.23011E-003	0.00000E+000	-3.70030E-001	0.00000E+000	10	...........	1583.05
	519	5.19	2.90166E-001	-1.23005E-003	0.00000E+000	-3.70030E-001	0.00000E+000	10	...........	1583.05
	520	5.2	2.88197E-001	-1.23005E-003	0.00000E+000	-3.70030E-001	0.00000E+000	10	...........	1583.05
	521	5.21	2.86213E-001	-1.23007E-003	0.00000E+000	-3.70030E-001	0.00000E+000	10	...........	1583.05
	522	5.22	2.84257E-001	-1.23006E-003	0.00000E+000	-3.70030E-001	0.00000E+000	10	...........	1583.05
	523	5.23	2.82301E-001	-1.23008E-003	0.00000E+000	-3.70030E-001	0.00000E+000	10	...........	1583.05
	524	5.24	2.80319E-001	-1.23001E-003	0.00000E+000	-3.70030E-001	0.00000E+000	10	...........	1583.05
	525	5.25	2.78366E-001	-1.23011E-003	0.00000E+000	-3.70030E-001	0.00000E+000	10	...........	1583.05
	526	5.26	2.76412E-001	-1.23010E-003	0.00000E+000	-3.70030E-001	0.00000E+000	10	...........	1583.05
	527	5.27	2.74455E-001	-1.23005E-003	0.00000E+000	-3.70030E-001	0.00000E+000	10	...........	1583.05
	528	5.28	2.72518E-001	-1.23009E-003	0.00000E+000	-3.70030E-001	0.00000E+000	10	...........	1583.05
	529	5.29	2.70535E-001	-1.23010E-003	0.00000E+000	-3.70030E-001	0.00000E+000	10	...........	1583.05
	530	5.3	2.68554E-001	-1.23009E-003	0.00000E+000	-3.70030E-001	0.00000E+000	10	...........	1583.05
	531	5.31	2.66621E-001	-1.23007E-003	0.00000E+000	-3.70030E-001	0.00000E+000	10	...........	1583.05
	532	5.32	2.64666E-001	-1.23008E-003	0.00000E+000	-3.70030E-001	0.00000E+000	10	...........	1583.05
	533	5.33	2.62732E-001	-1.23011E-003	0.00000E+000	-3.70030E-001	0.00000E+000	10	...........	1583.05
	534	5.34	2.60780E-001	-1.23012E-003	0.00000E+000	-3.70030E-001	0.00000E+000	10	...........	1583.05
	535	5.35	2.58824E-001	-1.23004E-003	0.00000E+000	-3.70030E-001	0.00000E+000	10	...........	1583.05
	536	5.36	2.56898E-001	-1.23010E-003	0.00000E+000	-3.70030E-001	0.00000E+000	10	...........	1583.05
	537	5.37	2.54922E-001	-1.23013E-003	0.00000E+000	-3.70030E-001	0.00000E+000	10	...........	1583.05
	538	5.38	2.52982E-001	-1.23009E-003	0.00000E+000	-3.70030E-001	0.00000E+000	10	...........	1583.05
	539	5.39	2.51054E-001	-1.23011E-003	0.00000E+000	-3.70030E-001	0.00000E+000	10	...........	1583.05
	540	5.4	2.49107E-001	-1.23008E-003	0.00000E+000	-3.70030E-001	0.00000E+000	10	...........	1583.05
	541	5.41	2.47159E-001	-1.23007E-003	0.00000E+000	-3.70030E-001	0.00000E+000	10	...........	1583.05
	542	5.42	2.45243E-001	-1.23011E-003	0.00000E+000	-3.70030E-001	0.00000E+000	10	...........	1583.05
	543	5.43	2.43298E-001	-1.23009E-003	0.00000E+000	-3.70030E-001	0.00000E+000	10	...........	1583.05
	544	5.44	2.41353E-001	-1.23011E-003	0.00000E+000	-3.70030E-001	0.00000E+000	10	...........	1583.05
	545	5.45	2.39456E-001	-1.23012E-003	0.00000E+000	-3.70030E-001	0.00000E+000	10	...........	1583.05
	546	5.46	2.37527E-001	-1.23007E-003	0.00000E+000	-3.70030E-001	0.00000E+000	10	...........	1583.05
	547	5.47	2.35598E-001	-1.23005E-003	0.00000E+000	-3.70030E-001	0.00000E+000	10	...........	1583.05
	548	5.48	2.33676E-001	-1.23005E-003	0.00000E+000	-3.70030E-001	0.00000E+000	10	...........	1583.05
	549	5.49	2.31753E-001	-1.23005E-003	0.00000E+000	-3.70030E-001	0.00000E+000	10	...........	1583.05
	550	5.5	2.29830E-001	-1.23006E-003	0.00000E+000	-3.70030E-001	0.00000E+000	10	...........	1583.05
	551	5.51	2.27911E-001	-1.23009E-003	0.00000E+000	-3.70030E-001	0.00000E+000	10	...........	1583.05
	552	5.52	2.25992E-001	-1.23008E-003	0.00000E+000	-3.70030E-001	0.00000E+000	10	...........	1583.05
	553	5.53	2.24080E-001	-1.23007E-003	0.00000E+000	-3.70030E-001	0.00000E+000	10	...........	1583.05
	554	5.54	2.22167E-001	-1.23000E-003	0.00000E+000	-3.70030E-001	0.00000E+000	10	...........	1583.05
	555	5.55	2.20258E-001	-1.23003E-003	0.00000E+000	-3.70030E-001	0.00000E+000	10	...........	1583.05
	556	5.56	2.18349E-001	-1.23006E-003	0.00000E+000	-3.70030E-001	0.00000E+000	10	...........	1583.05
	557	5.57	2.16441E-001	-1.23009E-003	0.00000E+000	-3.70030E-001	0.00000E+000	10	...........	1583.05
	558	5.58	2.14541E-001	-1.23011E-003	0.00000E+000	-3.70030E-001	0.00000E+000	10	...........	1583.05
	559	5.59	2.12643E-001	-1.23008E-003	0.00000E+000	-3.70030E-001	0.00000E+000	10	...........	1583.05
	560	5.6	2.10745E-001	-1.23005E-003	0.00000E+000	-3.70030E-001	0.00000E+000	10	...........	1583.05
	561	5.61	2.08852E-001	-1.23006E-003	0.00000E+000	-3.70030E-001	0.00000E+000	10	...........	1583.05
	562	5.62	2.06960E-001	-1.23006E-003	0.00000E+000	-3.70030E-001	0.00000E+000	10	...........	1583.05
	563	5.63	2.05073E-001	-1.23011E-003	0.00000E+000	-3.70030E-001	0.00000E+000	10	...........	1583.05
	564	5.64	2.03188E-001	-1.23011E-003	0.00000E+000	-3.70030E-001	0.00000E+000	10	...........	1583.05
	565	5.65	2.01305E-001	-1.23010E-003	0.00000E+000	-3.70030E-001	0.00000E+000	10	...........	1583.05
	566	5.66	1.99425E-001	-1.23009E-003	0.00000E+000	-3.70030E-001	0.00000E+000	10	...........	1583.05
	567	5.67	1.97553E-001	-1.23010E-003	0.00000E+000	-3.70030E-001	0.00000E+000	10	...........	1583.05
	568	5.68	1.95679E-001	-1.23005E-003	0.00000E+000	-3.70030E-001	0.00000E+000	10	...........	1583.05
	569	5.69	1.93812E-001	-1.23007E-003	0.00000E+000	-3.70030E-001	0.00000E+000	10	...........	1582.96
	570	5.7	1.91949E-001	-1.23006E-003	0.00000E+000	-3.70030E-001	0.00000E+000	10	...........	1582.96
	571	5.71	1.90088E-001	-1.23008E-003	0.00000E+000	-3.70030E-001	0.00000E+000	10	...........	1582.96
	572	5.72	1.88233E-001	-1.23004E-003	0.00000E+000	-3.70030E-001	0.00000E+000	10	...........	1582.96
	573	5.73	1.86375E-001	-1.23008E-003	0.00000E+000	-3.70030E-001	0.00000E+000	10	...........	1582.96
	574	5.74	1.84531E-001	-1.23008E-003	0.00000E+000	-3.70030E-001	0.00000E+000	10	...........	1582.96
	575	5.75	1.82684E-001	-1.23011E-003	0.00000E+000	-3.70030E-001	0.00000E+000	10	...........	1582.96
	576	5.76	1.80843E-001	-1.23011E-003	0.00000E+000	-3.70030E-001	0.00000E+000	10	...........	1582.96
	577	5.77	1.79005E-001	-1.23010E-003	0.00000E+000	-3.70030E-001	0.00000E+000	10	...........	1582.96
	578	5.78	1.77173E-001	-1.23006E-003	0.00000E+000	-3.70030E-001	0.00000E+000	10	...........	1582.96
	579	5.79	1.75343E-001	-1.23006E-003	0.00000E+000	-3.70030E-001	0.00000E+000	10	...........	1582.96
	580	5.8	1.73518E-001	-1.23006E-003	0.00000E+000	-3.70030E-001	0.00000E+000	10	...........	1582.96
	581	5.81	1.71700E-001	-1.23006E-003	0.00000E+000	-3.70030E-001	0.00000E+000	10	...........	1582.96
	582	5.82	1.69884E-001	-1.23005E-003	0.00000E+000	-3.70030E-001	0.00000E+000	10	...........	1582.96
	583	5.83	1.68068E-001	-1.23011E-003	0.00000E+000	-3.70030E-001	0.00000E+000	10	...........	1582.96
	584	5.84	1.66258E-001	-1.23011E-003	0.00000E+000	-3.70030E-001	0.00000E+000	10	...........	1582.96
	585	5.85	1.64457E-001	-1.23014E-003	0.00000E+000	-3.70030E-001	0.00000E+000	10	...........	1582.96
	586	5.86	1.62657E-001	-1.23010E-003	0.00000E+000	-3.70030E-001	0.00000E+000	10	...........	1582.96
	587	5.87	1.60863E-001	-1.23012E-003	0.00000E+000	-3.70030E-001	0.00000E+000	10	...........	1582.96
	588	5.88	1.59075E-001	-1.23016E-003	0.00000E+000	-3.70030E-001	0.00000E+000	10	...........	1582.96
	589	5.89	1.57291E-001	-1.23016E-003	0.00000E+000	-3.70030E-001	0.00000E+000	10	...........	1582.96
	590	5.9	1.55508E-001	-1.23016E-003	0.00000E+000	-3.70030E-001	0.00000E+000	10	...........	1582.96
	591	5.91	1.53737E-001	-1.23012E-003	0.00000E+000	-3.70030E-001	0.00000E+000	10	...........	1582.96
	592	5.92	1.51962E-001	-1.23013E-003	0.00000E+000	-3.70030E-001	0.00000E+000	10	...........	1582.96
	593	5.93	1.50193E-001	-1.23015E-003	0.00000E+000	-3.70030E-001	0.00000E+000	10	...........	1582.96
	594	5.94	1.48438E-001	-1.23012E-003	0.00000E+000	-3.70030E-001	0.00000E+000	10	...........	1582.96
	595	5.95	1.46682E-001	-1.23010E-003	0.00000E+000	-3.70030E-001	0.00000E+000	10	...........	1582.96
	596	5.96	1.44933E-001	-1.23011E-003	0.00000E+000	-3.70030E-001	0.00000E+000	10	...........	1582.96
	597	5.97	1.43182E-001	-1.23012E-003	0.00000E+000	-3.70030E-001	0.00000E+000	10	...........	1582.96
	598	5.98	1.41441E-001	-1.23010E-003	0.00000E+000	-3.70030E-001	0.00000E+000	10	...........	1582.96
	599	5.99	1.39708E-001	-1.23012E-003	0.00000E+000	-3.70030E-001	0.00000E+000	10	...........	1582.96
	600	6	1.37972E-001	-1.23011E-003	0.00000E+000	-3.70030E-001	0.00000E+000	10	...........	1582.96
	601	6.01	1.36252E-001	-1.23009E-003	0.00000E+000	-3.70030E-001	0.00000E+000	10	...........	1582.96
	602	6.02	1.34533E-001	-1.23007E-003	0.00000E+000	-3.70030E-001	0.00000E+000	10	...........	1582.96
	603	6.03	1.32817E-001	-1.23011E-003	0.00000E+000	-3.70030E-001	0.00000E+000	10	...........	1582.96
	604	6.04	1.31107E-001	-1.23016E-003	0.00000E+000	-3.70030E-001	0.00000E+000	10	...........	1582.96
	605	6.05	1.29398E-001	-1.23013E-003	0.00000E+000	-3.70030E-001	0.00000E+000	10	...........	1582.96
	606	6.06	1.27699E-001	-1.23010E-003	0.00000E+000	-3.70030E-001	0.00000E+000	10	...........	1582.96
	607	6.07	1.26006E-001	-1.23007E-003	0.00000E+000	-3.70030E-001	0.00000E+000	10	...........	1582.96
	608	6.08	1.24315E-001	-1.23007E-003	0.00000E+000	-3.70030E-001	0.00000E+000	10	...........	1582.96
	609	6.09	1.22632E-001	-1.23014E-003	0.00000E+000	-3.70030E-001	0.00000E+000	10	...........	1582.96
	610	6.1	1.20955E-001	-1.23011E-003	0.00000E+000	-3.70030E-001	0.00000E+000	10	...........	1582.96
	611	6.11	1.19281E-001	-1.23012E-003	0.00000E+000	-3.70030E-001	0.00000E+000	10	...........	1582.96
	612	6.12	1.17613E-001	-1.23011E-003	0.00000E+000	-3.70030E-001	0.00000E+000	10	...........	1582.96
	613	6.13	1.15948E-001	-1.23011E-003	0.00000E+000	-3.70030E-001	0.00000E+000	10	...........	1582.96
	614	6.14	1.14295E-001	-1.23013E-003	0.00000E+000	-3.70030E-001	0.00000E+000	10	...........	1582.96
	615	6.15	1.12644E-001	-1.23013E-003	0.00000E+000	-3.70030E-001	0.00000E+000	10	...........	1582.96
	616	6.16	1.10995E-001	-1.23012E-003	0.00000E+000	-3.70030E-001	0.00000E+000	10	...........	1582.96
	617	6.17	1.09353E-001	-1.23015E-003	0.00000E+000	-3.70030E-001	0.00000E+000	10	...........	1582.96
	618	6.18	1.07715E-001	-1.23012E-003	0.00000E+000	-3.70030E-001	0.00000E+000	10	...........	1582.96
	619	6.19	1.06089E-001	-1.23008E-003	0.00000E+000	-3.70030E-001	0.00000E+000	10	...........	1582.96
	620	6.2	1.04461E-001	-1.23013E-003	0.00000E+000	-3.70030E-001	0.00000E+000	10	...........	1582.96
	621	6.21	1.02842E-001	-1.23015E-003	0.00000E+000	-3.70030E-001	0.00000E+000	10	...........	1582.96
	622	6.22	1.01226E-001	-1.23012E-003	0.00000E+000	-3.70030E-001	0.00000E+000	10	...........	1582.96
	623	6.23	9.96151E-002	-1.23012E-003	0.00000E+000	-3.70030E-001	0.00000E+000	10	...........	1582.96
	624	6.24	9.80135E-002	-1.23011E-003	0.00000E+000	-3.70030E-001	0.00000E+000	10	...........	1582.96
	625	6.25	9.64162E-002	-1.23009E-003	0.00000E+000	-3.70030E-001	0.00000E+000	10	...........	1582.96
	626	6.26	9.48223E-002	-1.23008E-003	0.00000E+000	-3.70030E-001	0.00000E+000	10	...........	1582.96
	627	6.27	9.32350E-002	-1.23008E-003	0.00000E+000	-3.70030E-001	0.00000E+000	10	...........	1582.96
	628	6.28	9.16508E-002	-1.23011E-003	0.00000E+000	-3.70030E-001	0.00000E+000	10	...........	1582.96
	629	6.29	9.00735E-002	-1.23015E-003	0.00000E+000	-3.70030E-001	0.00000E+000	10	...........	1582.96
	630	6.3	8.85016E-002	-1.23012E-003	0.00000E+000	-3.70030E-001	0.00000E+000	10	...........	1582.96
	631	6.31	8.69368E-002	-1.23009E-003	0.00000E+000	-3.70030E-001	0.00000E+000	10	...........	1582.96
	632	6.32	8.53731E-002	-1.23011E-003	0.00000E+000	-3.70030E-001	0.00000E+000	10	...........	1582.96
	633	6.33	8.38168E-002	-1.23011E-003	0.00000E+000	-3.70030E-001	0.00000E+000	10	...........	1582.96
	634	6.34	8.22662E-002	-1.23011E-003	0.00000E+000	-3.70030E-001	0.00000E+000	10	...........	1582.96
	635	6.35	8.07241E-002	-1.23011E-003	0.00000E+000	-3.70030E-001	0.00000E+000	10	...........	1582.96
	636	6.36	7.91819E-002	-1.23005E-003	0.00000E+000	-3.70030E-001	0.00000E+000	10	...........	1582.96
	637	6.37	7.76477E-002	-1.23004E-003	0.00000E+000	-3.70030E-001	0.00000E+000	10	...........	1582.96
	638	6.38	7.61164E-002	-1.23007E-003	0.00000E+000	-3.70030E-001	0.00000E+000	10	...........	1582.96
	639	6.39	7.45949E-002	-1.23005E-003	0.00000E+000	-3.70030E-001	0.00000E+000	10	...........	1582.96
	640	6.4	7.30741E-002	-1.23002E-003	0.00000E+000	-3.70030E-001	0.00000E+000	10	...........	1582.96
	641	6.41	7.15603E-002	-1.23006E-003	0.00000E+000	-3.70030E-001	0.00000E+000	10	...........	1582.96
	642	6.42	7.00496E-002	-1.23010E-003	0.00000E+000	-3.70030E-001	0.00000E+000	10	...........	1582.96
	643	6.43	6.85445E-002	-1.23006E-003	0.00000E+000	-3.70030E-001	0.00000E+000	10	...........	1582.96
	644	6.44	6.70465E-002	-1.23005E-003	0.00000E+000	-3.70030E-001	0.00000E+000	10	...........	1582.96
	645	6.45	6.55517E-002	-1.23006E-003	0.00000E+000	-3.70030E-001	0.00000E+000	10	...........	1582.96
	646	6.46	6.40657E-002	-1.23005E-003	0.00000E+000	-3.70030E-001	0.00000E+000	10	...........	1582.96
	647	6.47	6.25800E-002	-1.23007E-003	0.00000E+000	-3.70030E-001	0.00000E+000	10	...........	1582.96
	648	6.48	6.10988E-002	-1.23009E-003	0.00000E+000	-3.70030E-001	0.00000E+000	10	...........	1582.96
	649	6.49	5.96254E-002	-1.23006E-003	0.00000E+000	-3.70030E-001	0.00000E+000	10	...........	1582.96
	650	6.5	5.81572E-002	-1.23007E-003	0.00000E+000	-3.70030E-001	0.00000E+000	10	...........	1582.96
	651	6.51	5.66940E-002	-1.23010E-003	0.00000E+000	-3.70030E-001	0.00000E+000	10	...........	1582.96
	652	6.52	5.52378E-002	-1.23006E-003	0.00000E+000	-3.70030E-001	0.00000E+000	10	...........	1582.96
	653	6.53	5.37873E-002	-1.23001E-003	0.00000E+000	-3.70030E-001	0.00000E+000	10	...........	1582.96
	654	6.54	5.23381E-002	-1.23001E-003	0.00000E+000	-3.70030E-001	0.00000E+000	10	...........	1582.96
	655	6.55	5.08914E-002	-1.23008E-003	0.00000E+000	-3.70030E-001	0.00000E+000	10	...........	1582.96
	656	6.56	4.94526E-002	-1.23006E-003	0.00000E+000	-3.70030E-001	0.00000E+000	10	...........	1582.96
	657	6.57	4.80193E-002	-1.23009E-003	0.00000E+000	-3.70030E-001	0.00000E+000	10	...........	1582.96
	658	6.58	4.65896E-002	-1.23005E-003	0.00000E+000	-3.70030E-001	0.00000E+000	10	...........	1582.96
	659	6.59	4.51645E-002	-1.23008E-003	0.00000E+000	-3.70030E-001	0.00000E+000	10	...........	1582.96
	660	6.6	4.37462E-002	-1.23007E-003	0.00000E+000	-3.70030E-001	0.00000E+000	10	...........	1582.96
	661	6.61	4.23302E-002	-1.23009E-003	0.00000E+000	-3.70030E-001	0.00000E+000	10	...........	1582.96
	662	6.62	4.09223E-002	-1.23006E-003	0.00000E+000	-3.70030E-001	0.00000E+000	10	...........	1582.96
	663	6.63	3.95167E-002	-1.23006E-003	0.00000E+000	-3.70030E-001	0.00000E+000	10	...........	1582.96
	664	6.64	3.81170E-002	-1.23009E-003	0.00000E+000	-3.70030E-001	0.00000E+000	10	...........	1582.96
	665	6.65	3.67210E-002	-1.23009E-003	0.00000E+000	-3.70030E-001	0.00000E+000	10	...........	1582.96
	666	6.66	3.53328E-002	-1.23007E-003	0.00000E+000	-3.70030E-001	0.00000E+000	10	...........	1582.96
	667	6.67	3.39462E-002	-1.23006E-003	0.00000E+000	-3.70030E-001	0.00000E+000	10	...........	1582.96
	668	6.68	3.25611E-002	-1.23010E-003	0.00000E+000	-3.70030E-001	0.00000E+000	10	...........	1582.96
	669	6.69	3.11859E-002	-1.23000E-003	0.00000E+000	-3.70030E-001	0.00000E+000	10	...........	1583.15
	670	6.7	2.98164E-002	-1.23001E-003	0.00000E+000	-3.70030E-001	0.00000E+000	10	...........	1583.15
	671	6.71	2.84466E-002	-1.23006E-003	0.00000E+000	-3.70030E-001	0.00000E+000	10	...........	1583.15
	672	6.72	2.70835E-002	-1.23007E-003	0.00000E+000	-3.70030E-001	0.00000E+000	10	...........	1583.15
	673	6.73	2.57236E-002	-1.23008E-003	0.00000E+000	-3.70030E-001	0.00000E+000	10	...........	1583.15
	674	6.74	2.43684E-002	-1.23008E-003	0.00000E+000	-3.70030E-001	0.00000E+000	10	...........	1583.15
	675	6.75	2.30230E-002	-1.23007E-003	0.00000E+000	-3.70030E-001	0.00000E+000	10	...........	1583.15
	676	6.76	2.16802E-002	-1.23010E-003	0.00000E+000	-3.70030E-001	0.00000E+000	10	...........	1583.15
	677	6.77	2.03407E-002	-1.23002E-003	0.00000E+000	-3.70030E-001	0.00000E+000	10	...........	1583.15
	678	6.78	1.90049E-002	-1.23006E-003	0.00000E+000	-3.70030E-001	0.00000E+000	10	...........	1583.15
	679	6.79	1.76732E-002	-1.23010E-003	0.00000E+000	-3.70030E-001	0.00000E+000	10	...........	1583.15
	680	6.8	1.63457E-002	-1.23010E-003	0.00000E+000	-3.70030E-001	0.00000E+000	10	...........	1583.15
	681	6.81	1.50214E-002	-1.23013E-003	0.00000E+000	-3.70030E-001	0.00000E+000	10	...........	1583.15
	682	6.82	1.37022E-002	-1.23012E-003	0.00000E+000	-3.70030E-001	0.00000E+000	10	...........	1583.15
	683	6.83	1.23881E-002	-1.23009E-003	0.00000E+000	-3.70030E-001	0.00000E+000	10	...........	1583.15
	684	6.84	1.10773E-002	-1.23013E-003	0.00000E+000	-3.70030E-001	0.00000E+000	10	...........	1583.15
	685	6.85	9.77034E-003	-1.23012E-003	0.00000E+000	-3.70030E-001	0.00000E+000	10	...........	1583.15
	686	6.86	8.46454E-003	-1.23014E-003	0.00000E+000	-3.70030E-001	0.00000E+000	10	...........	1583.15
	687	6.87	7.16954E-003	-1.23011E-003	0.00000E+000	-3.70030E-001	0.00000E+000	10	...........	1583.15
	688	6.88	5.87420E-003	-1.23012E-003	0.00000E+000	-3.70030E-001	0.00000E+000	10	...........	1583.15
	689	6.89	4.58457E-003	-1.23011E-003	0.00000E+000	-3.70030E-001	0.00000E+000	10	...........	1583.15
	690	6.9	3.29679E-003	-1.23013E-003	0.00000E+000	-3.70030E-001	0.00000E+000	10	...........	1583.15
	691	6.91	2.01394E-003	-1.23007E-003	0.00000E+000	-3.70030E-001	0.00000E+000	10	...........	1583.15
	692	6.92	7.35871E-004	-1.23006E-003	0.00000E+000	-3.70030E-001	0.00000E+000	10	...........	1583.15
	693	6.93	-5.37789E-004	-1.23008E-003	0.00000E+000	-3.70030E-001	0.00000E+000	10	...........	1583.15
