EXPLAIN
TAG	CHRONOP
TITLE	LABEL	Chronopotentiometry Scan	Test Identifier
DATE	LABEL	23/1/2025	Date
TIME	LABEL	12:30:29	Time
NOTES	NOTES	1	Notes...
	
PSTAT	PSTAT	IFC1010-42004	Potentiostat
IPRESTEP	QUANT	0.00000E+000	Pre-step Current(A)
TPRESTEP	QUANT	0.00000E+000	Pre-step Delay Time (s)
ISTEP1	QUANT	1.23000E-003	Step 1 Current (A)
TSTEP1	QUANT	5.00000E+003	Step 1 Time (s)
ISTEP2	QUANT	-1.23000E-003	Step 2 Current (A)
TSTEP2	QUANT	5.00000E+003	Step 2 Time (s)
SAMPLETIME	QUANT	1.00000E-002	Sample Period (s)
DECIMATE	TOGGLE	F	Decimate
VLIMITLOWER	QUANT	0.00000E+000	Lower Limit V (V)
VLIMITUPPER	QUANT	8.00000E-001	Upper Limit V (V)
EQDELAY	QUANT	1.00000E+000	Equil. Time (s)
SAMPLINGMODE	SELECTOR	1	Sampling Mode
AREA	QUANT	2.00000E+000	Sample Area (cm^2)
ELECTRODETYPE	SELECTOR	0	Electrode Type
STRIPPING	TOGGLE	F	Used for Stripping
SEQUENCER	TOGGLE	TRUE	Run as Sequence
PSTATMODEL	IQUANT	64	Pstat Model
PSTATSECTION	LABEL	IFC1010-42004	Pstat Section
PSTATSERIALNO	LABEL	42004	Pstat Serial Number
CTRLMODE	IQUANT	0	Control Mode
ELECTROMETER	IQUANT	0	RE=0 or CS=1
IESTAB	IQUANT	0	I/E Stability
CASPEED	IQUANT	4	Control Amp Speed
CONVENTION	IQUANT	1	Current Convention
ICHRANGE	IQUANT	2	Ich Range
ICHRANGEMODE	TOGGLE	T	Ich Auto Range
ICHOFFSETENABLE	TOGGLE	F	Ich Offset Enable
ICHOFFSET	QUANT	0	Ich Offset (V)
ICHFILTER	IQUANT	3	Ich Filter
VCHRANGE	IQUANT	3	Vch Range
VCHRANGEMODE	TOGGLE	T	Vch Auto Range
VCHOFFSETENABLE	TOGGLE	F	Vch Offset Enable
VCHOFFSET	QUANT	0	Vch Offset (V)
VCHFILTER	IQUANT	3	Vch Filter
IERANGELOWERLIMIT	IQUANT	4	I/E Range Lower Limit
IERANGEMODE	TOGGLE	F	I/E AutoRange
IERANGE	IQUANT	11	I/E Range
ACHSELECT	IQUANT	0	Ach Select
ACHRANGE	IQUANT	2	Ach Range
ACHOFFSETENABLE	TOGGLE	F	Ach Offset Enable
ACHOFFSET	QUANT	0	Ach Offset (V)
ACHFILTER	IQUANT	1	Ach Filter
SENSECABLEID	IQUANT	14	Sense Cable ID
PWRCABLEID	IQUANT	14	Power Cable ID
DCCALDATE	LABEL	1/22/2025	DC Calibration Date
ACCALDATE	LABEL	11/15/2024	AC Calibration Date
FRAMEWORKVERSION	LABEL	7.10.4	Framework Version
INSTRUMENTVERSION	LABEL	4.91	Instrument Version
COMMVERSION	LABEL	3.10	Communications Version
CPUPLDVERSION	LABEL	2.54	CPU PLD Version
CTRLPLDVERSION	LABEL	0.00	CTRL PLD Version
PSTATPLDVERSION	LABEL	0.00	PSTAT PLD Version
CURVE	TABLE	598
	Pt	T	Vf	Im	Vu	Sig	Ach	IERange	Over	Temp
	#	s	V vs. Ref.	A	V	V	V	#	bits	deg C
	0	0	2.43702E-001	-1.33136E-007	0.00000E+000	0.00000E+000	0.00000E+000	10	...........	1583.44
	1	0.01	2.59370E-001	1.22964E-003	0.00000E+000	3.70030E-001	0.00000E+000	10	...........	1583.44
	2	0.02	2.62119E-001	1.22962E-003	0.00000E+000	3.70030E-001	0.00000E+000	10	...........	1583.44
	3	0.03	2.64546E-001	1.22965E-003	0.00000E+000	3.70030E-001	0.00000E+000	10	...........	1583.44
	4	0.04	2.66869E-001	1.22968E-003	0.00000E+000	3.70030E-001	0.00000E+000	10	...........	1583.44
	5	0.05	2.69143E-001	1.22964E-003	0.00000E+000	3.70030E-001	0.00000E+000	10	...........	1583.44
	6	0.06	2.71358E-001	1.22963E-003	0.00000E+000	3.70030E-001	0.00000E+000	10	...........	1583.44
	7	0.07	2.73591E-001	1.22965E-003	0.00000E+000	3.70030E-001	0.00000E+000	10	...........	1583.44
	8	0.08	2.75798E-001	1.22966E-003	0.00000E+000	3.70030E-001	0.00000E+000	10	...........	1583.44
	9	0.09	2.77960E-001	1.22968E-003	0.00000E+000	3.70030E-001	0.00000E+000	10	...........	1583.44
	10	0.1	2.80152E-001	1.22966E-003	0.00000E+000	3.70030E-001	0.00000E+000	10	...........	1583.44
	11	0.11	2.82359E-001	1.22963E-003	0.00000E+000	3.70030E-001	0.00000E+000	10	...........	1583.44
	12	0.12	2.84546E-001	1.22959E-003	0.00000E+000	3.70030E-001	0.00000E+000	10	...........	1583.44
	13	0.13	2.86716E-001	1.22961E-003	0.00000E+000	3.70030E-001	0.00000E+000	10	...........	1583.44
	14	0.14	2.88913E-001	1.22964E-003	0.00000E+000	3.70030E-001	0.00000E+000	10	...........	1583.44
	15	0.15	2.91093E-001	1.22963E-003	0.00000E+000	3.70030E-001	0.00000E+000	10	...........	1583.44
	16	0.16	2.93252E-001	1.22962E-003	0.00000E+000	3.70030E-001	0.00000E+000	10	...........	1583.44
	17	0.17	2.95455E-001	1.22963E-003	0.00000E+000	3.70030E-001	0.00000E+000	10	...........	1583.44
	18	0.18	2.97626E-001	1.22954E-003	0.00000E+000	3.70030E-001	0.00000E+000	10	...........	1583.44
	19	0.19	2.99793E-001	1.22958E-003	0.00000E+000	3.70030E-001	0.00000E+000	10	...........	1583.44
	20	0.2	3.01984E-001	1.22957E-003	0.00000E+000	3.70030E-001	0.00000E+000	10	...........	1583.44
	21	0.21	3.04175E-001	1.22961E-003	0.00000E+000	3.70030E-001	0.00000E+000	10	...........	1583.44
	22	0.22	3.06350E-001	1.22962E-003	0.00000E+000	3.70030E-001	0.00000E+000	10	...........	1583.44
	23	0.23	3.08576E-001	1.22958E-003	0.00000E+000	3.70030E-001	0.00000E+000	10	...........	1583.44
	24	0.24	3.10765E-001	1.22960E-003	0.00000E+000	3.70030E-001	0.00000E+000	10	...........	1583.44
	25	0.25	3.12947E-001	1.22961E-003	0.00000E+000	3.70030E-001	0.00000E+000	10	...........	1583.44
	26	0.26	3.15151E-001	1.22960E-003	0.00000E+000	3.70030E-001	0.00000E+000	10	...........	1583.44
	27	0.27	3.17334E-001	1.22960E-003	0.00000E+000	3.70030E-001	0.00000E+000	10	...........	1583.44
	28	0.28	3.19529E-001	1.22963E-003	0.00000E+000	3.70030E-001	0.00000E+000	10	...........	1583.44
	29	0.29	3.21737E-001	1.22960E-003	0.00000E+000	3.70030E-001	0.00000E+000	10	...........	1583.44
	30	0.3	3.23938E-001	1.22965E-003	0.00000E+000	3.70030E-001	0.00000E+000	10	...........	1583.44
	31	0.31	3.26144E-001	1.22965E-003	0.00000E+000	3.70030E-001	0.00000E+000	10	...........	1583.44
	32	0.32	3.28345E-001	1.22963E-003	0.00000E+000	3.70030E-001	0.00000E+000	10	...........	1583.44
	33	0.33	3.30550E-001	1.22966E-003	0.00000E+000	3.70030E-001	0.00000E+000	10	...........	1583.44
	34	0.34	3.32760E-001	1.22960E-003	0.00000E+000	3.70030E-001	0.00000E+000	10	...........	1583.44
	35	0.35	3.34991E-001	1.22960E-003	0.00000E+000	3.70030E-001	0.00000E+000	10	...........	1583.44
	36	0.36	3.37192E-001	1.22960E-003	0.00000E+000	3.70030E-001	0.00000E+000	10	...........	1583.44
	37	0.37	3.39428E-001	1.22956E-003	0.00000E+000	3.70030E-001	0.00000E+000	10	...........	1583.44
	38	0.38	3.41633E-001	1.22955E-003	0.00000E+000	3.70030E-001	0.00000E+000	10	...........	1583.44
	39	0.39	3.43857E-001	1.22958E-003	0.00000E+000	3.70030E-001	0.00000E+000	10	...........	1583.44
	40	0.4	3.46088E-001	1.22959E-003	0.00000E+000	3.70030E-001	0.00000E+000	10	...........	1583.44
	41	0.41	3.48312E-001	1.22959E-003	0.00000E+000	3.70030E-001	0.00000E+000	10	...........	1583.44
	42	0.42	3.50530E-001	1.22955E-003	0.00000E+000	3.70030E-001	0.00000E+000	10	...........	1583.44
	43	0.43	3.52764E-001	1.22955E-003	0.00000E+000	3.70030E-001	0.00000E+000	10	...........	1583.44
	44	0.44	3.54972E-001	1.22953E-003	0.00000E+000	3.70030E-001	0.00000E+000	10	...........	1583.44
	45	0.45	3.57205E-001	1.22958E-003	0.00000E+000	3.70030E-001	0.00000E+000	10	...........	1583.44
	46	0.46	3.59494E-001	1.22961E-003	0.00000E+000	3.70030E-001	0.00000E+000	10	...........	1583.44
	47	0.47	3.61732E-001	1.22964E-003	0.00000E+000	3.70030E-001	0.00000E+000	10	...........	1583.44
	48	0.48	3.63952E-001	1.22957E-003	0.00000E+000	3.70030E-001	0.00000E+000	10	...........	1583.44
	49	0.49	3.66189E-001	1.22956E-003	0.00000E+000	3.70030E-001	0.00000E+000	10	...........	1583.44
	50	0.5	3.68438E-001	1.22963E-003	0.00000E+000	3.70030E-001	0.00000E+000	10	...........	1583.44
	51	0.51	3.70676E-001	1.22963E-003	0.00000E+000	3.70030E-001	0.00000E+000	10	...........	1583.44
	52	0.52	3.72956E-001	1.22967E-003	0.00000E+000	3.70030E-001	0.00000E+000	10	...........	1583.44
	53	0.53	3.75195E-001	1.22961E-003	0.00000E+000	3.70030E-001	0.00000E+000	10	...........	1583.44
	54	0.54	3.77434E-001	1.22958E-003	0.00000E+000	3.70030E-001	0.00000E+000	10	...........	1583.44
	55	0.55	3.79692E-001	1.22963E-003	0.00000E+000	3.70030E-001	0.00000E+000	10	...........	1583.44
	56	0.56	3.81945E-001	1.22964E-003	0.00000E+000	3.70030E-001	0.00000E+000	10	...........	1583.44
	57	0.57	3.84194E-001	1.22966E-003	0.00000E+000	3.70030E-001	0.00000E+000	10	...........	1583.44
	58	0.58	3.86484E-001	1.22963E-003	0.00000E+000	3.70030E-001	0.00000E+000	10	...........	1583.44
	59	0.59	3.88740E-001	1.22968E-003	0.00000E+000	3.70030E-001	0.00000E+000	10	...........	1583.44
	60	0.6	3.91019E-001	1.22967E-003	0.00000E+000	3.70030E-001	0.00000E+000	10	...........	1583.44
	61	0.61	3.93276E-001	1.22961E-003	0.00000E+000	3.70030E-001	0.00000E+000	10	...........	1583.73
	62	0.62	3.95560E-001	1.22966E-003	0.00000E+000	3.70030E-001	0.00000E+000	10	...........	1583.73
	63	0.63	3.97838E-001	1.22966E-003	0.00000E+000	3.70030E-001	0.00000E+000	10	...........	1583.73
	64	0.64	4.00118E-001	1.22967E-003	0.00000E+000	3.70030E-001	0.00000E+000	10	...........	1583.73
	65	0.65	4.02388E-001	1.22968E-003	0.00000E+000	3.70030E-001	0.00000E+000	10	...........	1583.73
	66	0.66	4.04656E-001	1.22962E-003	0.00000E+000	3.70030E-001	0.00000E+000	10	...........	1583.73
	67	0.67	4.06944E-001	1.22962E-003	0.00000E+000	3.70030E-001	0.00000E+000	10	...........	1583.73
	68	0.68	4.09231E-001	1.22963E-003	0.00000E+000	3.70030E-001	0.00000E+000	10	...........	1583.73
	69	0.69	4.11499E-001	1.22956E-003	0.00000E+000	3.70030E-001	0.00000E+000	10	...........	1583.73
	70	0.7	4.13796E-001	1.22960E-003	0.00000E+000	3.70030E-001	0.00000E+000	10	...........	1583.73
	71	0.71	4.16086E-001	1.22957E-003	0.00000E+000	3.70030E-001	0.00000E+000	10	...........	1583.73
	72	0.72	4.18377E-001	1.22960E-003	0.00000E+000	3.70030E-001	0.00000E+000	10	...........	1583.73
	73	0.73	4.20660E-001	1.22957E-003	0.00000E+000	3.70030E-001	0.00000E+000	10	...........	1583.73
	74	0.74	4.22972E-001	1.22959E-003	0.00000E+000	3.70030E-001	0.00000E+000	10	...........	1583.73
	75	0.75	4.25263E-001	1.22962E-003	0.00000E+000	3.70030E-001	0.00000E+000	10	...........	1583.73
	76	0.76	4.27560E-001	1.22963E-003	0.00000E+000	3.70030E-001	0.00000E+000	10	...........	1583.73
	77	0.77	4.29859E-001	1.22962E-003	0.00000E+000	3.70030E-001	0.00000E+000	10	...........	1583.73
	78	0.78	4.32154E-001	1.22955E-003	0.00000E+000	3.70030E-001	0.00000E+000	10	...........	1583.73
	79	0.79	4.34448E-001	1.22956E-003	0.00000E+000	3.70030E-001	0.00000E+000	10	...........	1583.73
	80	0.8	4.36797E-001	1.22961E-003	0.00000E+000	3.70030E-001	0.00000E+000	10	...........	1583.73
	81	0.81	4.39111E-001	1.22964E-003	0.00000E+000	3.70030E-001	0.00000E+000	10	...........	1583.73
	82	0.82	4.41418E-001	1.22965E-003	0.00000E+000	3.70030E-001	0.00000E+000	10	...........	1583.73
	83	0.83	4.43718E-001	1.22959E-003	0.00000E+000	3.70030E-001	0.00000E+000	10	...........	1583.73
	84	0.84	4.46028E-001	1.22958E-003	0.00000E+000	3.70030E-001	0.00000E+000	10	...........	1583.73
	85	0.85	4.48363E-001	1.22957E-003	0.00000E+000	3.70030E-001	0.00000E+000	10	...........	1583.73
	86	0.86	4.50652E-001	1.22953E-003	0.00000E+000	3.70030E-001	0.00000E+000	10	...........	1583.73
	87	0.87	4.52966E-001	1.22952E-003	0.00000E+000	3.70030E-001	0.00000E+000	10	...........	1583.73
	88	0.88	4.55296E-001	1.22956E-003	0.00000E+000	3.70030E-001	0.00000E+000	10	...........	1583.73
	89	0.89	4.57639E-001	1.22958E-003	0.00000E+000	3.70030E-001	0.00000E+000	10	...........	1583.73
	90	0.9	4.59959E-001	1.22963E-003	0.00000E+000	3.70030E-001	0.00000E+000	10	...........	1583.73
	91	0.91	4.62293E-001	1.22960E-003	0.00000E+000	3.70030E-001	0.00000E+000	10	...........	1583.73
	92	0.92	4.64616E-001	1.22960E-003	0.00000E+000	3.70030E-001	0.00000E+000	10	...........	1583.73
	93	0.93	4.66940E-001	1.22960E-003	0.00000E+000	3.70030E-001	0.00000E+000	10	...........	1583.73
	94	0.94	4.69274E-001	1.22954E-003	0.00000E+000	3.70030E-001	0.00000E+000	10	...........	1583.73
	95	0.95	4.71613E-001	1.22957E-003	0.00000E+000	3.70030E-001	0.00000E+000	10	...........	1583.73
	96	0.96	4.73966E-001	1.22958E-003	0.00000E+000	3.70030E-001	0.00000E+000	10	...........	1583.73
	97	0.97	4.76292E-001	1.22958E-003	0.00000E+000	3.70030E-001	0.00000E+000	10	...........	1583.73
	98	0.98	4.78616E-001	1.22962E-003	0.00000E+000	3.70030E-001	0.00000E+000	10	...........	1583.73
	99	0.99	4.80980E-001	1.22965E-003	0.00000E+000	3.70030E-001	0.00000E+000	10	...........	1583.73
	100	1	4.83310E-001	1.22958E-003	0.00000E+000	3.70030E-001	0.00000E+000	10	...........	1583.73
	101	1.01	4.85625E-001	1.22963E-003	0.00000E+000	3.70030E-001	0.00000E+000	10	...........	1583.73
	102	1.02	4.88019E-001	1.22962E-003	0.00000E+000	3.70030E-001	0.00000E+000	10	...........	1583.73
	103	1.03	4.90347E-001	1.22956E-003	0.00000E+000	3.70030E-001	0.00000E+000	10	...........	1583.73
	104	1.04	4.92686E-001	1.22958E-003	0.00000E+000	3.70030E-001	0.00000E+000	10	...........	1583.73
	105	1.05	4.95036E-001	1.22955E-003	0.00000E+000	3.70030E-001	0.00000E+000	10	...........	1583.73
	106	1.06	4.97399E-001	1.22960E-003	0.00000E+000	3.70030E-001	0.00000E+000	10	...........	1583.73
	107	1.07	4.99776E-001	1.22959E-003	0.00000E+000	3.70030E-001	0.00000E+000	10	...........	1583.73
	108	1.08	5.02103E-001	1.22964E-003	0.00000E+000	3.70030E-001	0.00000E+000	10	...........	1583.73
	109	1.09	5.04460E-001	1.22959E-003	0.00000E+000	3.70030E-001	0.00000E+000	10	...........	1583.73
	110	1.1	5.06811E-001	1.22964E-003	0.00000E+000	3.70030E-001	0.00000E+000	10	...........	1583.73
	111	1.11	5.09170E-001	1.22961E-003	0.00000E+000	3.70030E-001	0.00000E+000	10	...........	1583.73
	112	1.12	5.11534E-001	1.22964E-003	0.00000E+000	3.70030E-001	0.00000E+000	10	...........	1583.73
	113	1.13	5.13925E-001	1.22966E-003	0.00000E+000	3.70030E-001	0.00000E+000	10	...........	1583.73
	114	1.14	5.16276E-001	1.22963E-003	0.00000E+000	3.70030E-001	0.00000E+000	10	...........	1583.73
	115	1.15	5.18628E-001	1.22959E-003	0.00000E+000	3.70030E-001	0.00000E+000	10	...........	1583.73
	116	1.16	5.20975E-001	1.22957E-003	0.00000E+000	3.70030E-001	0.00000E+000	10	...........	1583.73
	117	1.17	5.23350E-001	1.22961E-003	0.00000E+000	3.70030E-001	0.00000E+000	10	...........	1583.73
	118	1.18	5.25731E-001	1.22962E-003	0.00000E+000	3.70030E-001	0.00000E+000	10	...........	1583.73
	119	1.19	5.28092E-001	1.22960E-003	0.00000E+000	3.70030E-001	0.00000E+000	10	...........	1583.73
	120	1.2	5.30450E-001	1.22960E-003	0.00000E+000	3.70030E-001	0.00000E+000	10	...........	1583.73
	121	1.21	5.32798E-001	1.22958E-003	0.00000E+000	3.70030E-001	0.00000E+000	10	...........	1583.73
	122	1.22	5.35164E-001	1.22956E-003	0.00000E+000	3.70030E-001	0.00000E+000	10	...........	1583.73
	123	1.23	5.37529E-001	1.22961E-003	0.00000E+000	3.70030E-001	0.00000E+000	10	...........	1583.73
	124	1.24	5.39917E-001	1.22960E-003	0.00000E+000	3.70030E-001	0.00000E+000	10	...........	1583.73
	125	1.25	5.42291E-001	1.22964E-003	0.00000E+000	3.70030E-001	0.00000E+000	10	...........	1583.73
	126	1.26	5.44658E-001	1.22963E-003	0.00000E+000	3.70030E-001	0.00000E+000	10	...........	1583.73
	127	1.27	5.47052E-001	1.22972E-003	0.00000E+000	3.70030E-001	0.00000E+000	10	...........	1583.73
	128	1.28	5.49415E-001	1.22968E-003	0.00000E+000	3.70030E-001	0.00000E+000	10	...........	1583.73
	129	1.29	5.51785E-001	1.22966E-003	0.00000E+000	3.70030E-001	0.00000E+000	10	...........	1583.73
	130	1.3	5.54141E-001	1.22961E-003	0.00000E+000	3.70030E-001	0.00000E+000	10	...........	1583.73
	131	1.31	5.56497E-001	1.22960E-003	0.00000E+000	3.70030E-001	0.00000E+000	10	...........	1583.73
	132	1.32	5.58887E-001	1.22959E-003	0.00000E+000	3.70030E-001	0.00000E+000	10	...........	1583.73
	133	1.33	5.61268E-001	1.22963E-003	0.00000E+000	3.70030E-001	0.00000E+000	10	...........	1583.73
	134	1.34	5.63635E-001	1.22965E-003	0.00000E+000	3.70030E-001	0.00000E+000	10	...........	1583.73
	135	1.35	5.66030E-001	1.22961E-003	0.00000E+000	3.70030E-001	0.00000E+000	10	...........	1583.73
	136	1.36	5.68382E-001	1.22960E-003	0.00000E+000	3.70030E-001	0.00000E+000	10	...........	1583.73
	137	1.37	5.70743E-001	1.22958E-003	0.00000E+000	3.70030E-001	0.00000E+000	10	...........	1583.73
	138	1.38	5.73129E-001	1.22959E-003	0.00000E+000	3.70030E-001	0.00000E+000	10	...........	1583.73
	139	1.39	5.75472E-001	1.22958E-003	0.00000E+000	3.70030E-001	0.00000E+000	10	...........	1583.73
	140	1.4	5.77884E-001	1.22965E-003	0.00000E+000	3.70030E-001	0.00000E+000	10	...........	1583.73
	141	1.41	5.80260E-001	1.22960E-003	0.00000E+000	3.70030E-001	0.00000E+000	10	...........	1583.73
	142	1.42	5.82632E-001	1.22964E-003	0.00000E+000	3.70030E-001	0.00000E+000	10	...........	1583.73
	143	1.43	5.85000E-001	1.22961E-003	0.00000E+000	3.70030E-001	0.00000E+000	10	...........	1583.73
	144	1.44	5.87344E-001	1.22958E-003	0.00000E+000	3.70030E-001	0.00000E+000	10	...........	1583.73
	145	1.45	5.89751E-001	1.22961E-003	0.00000E+000	3.70030E-001	0.00000E+000	10	...........	1583.73
	146	1.46	5.92106E-001	1.22966E-003	0.00000E+000	3.70030E-001	0.00000E+000	10	...........	1583.73
	147	1.47	5.94471E-001	1.22964E-003	0.00000E+000	3.70030E-001	0.00000E+000	10	...........	1583.73
	148	1.48	5.96861E-001	1.22965E-003	0.00000E+000	3.70030E-001	0.00000E+000	10	...........	1583.73
	149	1.49	5.99205E-001	1.22956E-003	0.00000E+000	3.70030E-001	0.00000E+000	10	...........	1583.73
	150	1.5	6.01552E-001	1.22958E-003	0.00000E+000	3.70030E-001	0.00000E+000	10	...........	1583.73
	151	1.51	6.03929E-001	1.22958E-003	0.00000E+000	3.70030E-001	0.00000E+000	10	...........	1583.73
	152	1.52	6.06283E-001	1.22957E-003	0.00000E+000	3.70030E-001	0.00000E+000	10	...........	1583.73
	153	1.53	6.08643E-001	1.22962E-003	0.00000E+000	3.70030E-001	0.00000E+000	10	...........	1583.73
	154	1.54	6.10984E-001	1.22959E-003	0.00000E+000	3.70030E-001	0.00000E+000	10	...........	1583.73
	155	1.55	6.13326E-001	1.22958E-003	0.00000E+000	3.70030E-001	0.00000E+000	10	...........	1583.73
	156	1.56	6.15721E-001	1.22960E-003	0.00000E+000	3.70030E-001	0.00000E+000	10	...........	1583.73
	157	1.57	6.18087E-001	1.22961E-003	0.00000E+000	3.70030E-001	0.00000E+000	10	...........	1583.73
	158	1.58	6.20434E-001	1.22960E-003	0.00000E+000	3.70030E-001	0.00000E+000	10	...........	1583.73
	159	1.59	6.22774E-001	1.22960E-003	0.00000E+000	3.70030E-001	0.00000E+000	10	...........	1583.73
	160	1.6	6.25119E-001	1.22963E-003	0.00000E+000	3.70030E-001	0.00000E+000	10	...........	1583.73
	161	1.61	6.27464E-001	1.22961E-003	0.00000E+000	3.70030E-001	0.00000E+000	10	...........	1583.25
	162	1.62	6.29794E-001	1.22958E-003	0.00000E+000	3.70030E-001	0.00000E+000	10	...........	1583.25
	163	1.63	6.32137E-001	1.22958E-003	0.00000E+000	3.70030E-001	0.00000E+000	10	...........	1583.25
	164	1.64	6.34505E-001	1.22966E-003	0.00000E+000	3.70030E-001	0.00000E+000	10	...........	1583.25
	165	1.65	6.36838E-001	1.22969E-003	0.00000E+000	3.70030E-001	0.00000E+000	10	...........	1583.25
	166	1.66	6.39153E-001	1.22966E-003	0.00000E+000	3.70030E-001	0.00000E+000	10	...........	1583.25
	167	1.67	6.41504E-001	1.22959E-003	0.00000E+000	3.70030E-001	0.00000E+000	10	...........	1583.25
	168	1.68	6.43821E-001	1.22961E-003	0.00000E+000	3.70030E-001	0.00000E+000	10	...........	1583.25
	169	1.69	6.46110E-001	1.22958E-003	0.00000E+000	3.70030E-001	0.00000E+000	10	...........	1583.25
	170	1.7	6.48425E-001	1.22956E-003	0.00000E+000	3.70030E-001	0.00000E+000	10	...........	1583.25
	171	1.71	6.50732E-001	1.22959E-003	0.00000E+000	3.70030E-001	0.00000E+000	10	...........	1583.25
	172	1.72	6.53067E-001	1.22958E-003	0.00000E+000	3.70030E-001	0.00000E+000	10	...........	1583.25
	173	1.73	6.55368E-001	1.22960E-003	0.00000E+000	3.70030E-001	0.00000E+000	10	...........	1583.25
	174	1.74	6.57662E-001	1.22961E-003	0.00000E+000	3.70030E-001	0.00000E+000	10	...........	1583.25
	175	1.75	6.59980E-001	1.22955E-003	0.00000E+000	3.70030E-001	0.00000E+000	10	...........	1583.25
	176	1.76	6.62252E-001	1.22963E-003	0.00000E+000	3.70030E-001	0.00000E+000	10	...........	1583.25
	177	1.77	6.64563E-001	1.22968E-003	0.00000E+000	3.70030E-001	0.00000E+000	10	...........	1583.25
	178	1.78	6.66886E-001	1.22963E-003	0.00000E+000	3.70030E-001	0.00000E+000	10	...........	1583.25
	179	1.79	6.69164E-001	1.22959E-003	0.00000E+000	3.70030E-001	0.00000E+000	10	...........	1583.25
	180	1.8	6.71420E-001	1.22958E-003	0.00000E+000	3.70030E-001	0.00000E+000	10	...........	1583.25
	181	1.81	6.73700E-001	1.22957E-003	0.00000E+000	3.70030E-001	0.00000E+000	10	...........	1583.25
	182	1.82	6.75989E-001	1.22958E-003	0.00000E+000	3.70030E-001	0.00000E+000	10	...........	1583.25
	183	1.83	6.78233E-001	1.22961E-003	0.00000E+000	3.70030E-001	0.00000E+000	10	...........	1583.25
	184	1.84	6.80535E-001	1.22963E-003	0.00000E+000	3.70030E-001	0.00000E+000	10	...........	1583.25
	185	1.85	6.82762E-001	1.22960E-003	0.00000E+000	3.70030E-001	0.00000E+000	10	...........	1583.25
	186	1.86	6.84992E-001	1.22961E-003	0.00000E+000	3.70030E-001	0.00000E+000	10	...........	1583.25
	187	1.87	6.87253E-001	1.22959E-003	0.00000E+000	3.70030E-001	0.00000E+000	10	...........	1583.25
	188	1.88	6.89481E-001	1.22958E-003	0.00000E+000	3.70030E-001	0.00000E+000	10	...........	1583.25
	189	1.89	6.91722E-001	1.22957E-003	0.00000E+000	3.70030E-001	0.00000E+000	10	...........	1583.25
	190	1.9	6.93967E-001	1.22959E-003	0.00000E+000	3.70030E-001	0.00000E+000	10	...........	1583.25
	191	1.91	6.96169E-001	1.22956E-003	0.00000E+000	3.70030E-001	0.00000E+000	10	...........	1583.25
	192	1.92	6.98393E-001	1.22958E-003	0.00000E+000	3.70030E-001	0.00000E+000	10	...........	1583.25
	193	1.93	7.00581E-001	1.22960E-003	0.00000E+000	3.70030E-001	0.00000E+000	10	...........	1583.25
	194	1.94	7.02789E-001	1.22957E-003	0.00000E+000	3.70030E-001	0.00000E+000	10	...........	1583.25
	195	1.95	7.04997E-001	1.22957E-003	0.00000E+000	3.70030E-001	0.00000E+000	10	...........	1583.25
	196	1.96	7.07185E-001	1.22960E-003	0.00000E+000	3.70030E-001	0.00000E+000	10	...........	1583.25
	197	1.97	7.09362E-001	1.22962E-003	0.00000E+000	3.70030E-001	0.00000E+000	10	...........	1583.25
	198	1.98	7.11550E-001	1.22960E-003	0.00000E+000	3.70030E-001	0.00000E+000	10	...........	1583.25
	199	1.99	7.13721E-001	1.22960E-003	0.00000E+000	3.70030E-001	0.00000E+000	10	...........	1583.25
	200	2	7.15860E-001	1.22960E-003	0.00000E+000	3.70030E-001	0.00000E+000	10	...........	1583.25
	201	2.01	7.18059E-001	1.22959E-003	0.00000E+000	3.70030E-001	0.00000E+000	10	...........	1583.25
	202	2.02	7.20192E-001	1.22957E-003	0.00000E+000	3.70030E-001	0.00000E+000	10	...........	1583.25
	203	2.03	7.22332E-001	1.22963E-003	0.00000E+000	3.70030E-001	0.00000E+000	10	...........	1583.25
	204	2.04	7.24473E-001	1.22961E-003	0.00000E+000	3.70030E-001	0.00000E+000	10	...........	1583.25
	205	2.05	7.26589E-001	1.22961E-003	0.00000E+000	3.70030E-001	0.00000E+000	10	...........	1583.25
	206	2.06	7.28720E-001	1.22962E-003	0.00000E+000	3.70030E-001	0.00000E+000	10	...........	1583.25
	207	2.07	7.30849E-001	1.22962E-003	0.00000E+000	3.70030E-001	0.00000E+000	10	...........	1583.25
	208	2.08	7.32953E-001	1.22966E-003	0.00000E+000	3.70030E-001	0.00000E+000	10	...........	1583.25
	209	2.09	7.35051E-001	1.22966E-003	0.00000E+000	3.70030E-001	0.00000E+000	10	...........	1583.25
	210	2.1	7.37148E-001	1.22963E-003	0.00000E+000	3.70030E-001	0.00000E+000	10	...........	1583.25
	211	2.11	7.39206E-001	1.22964E-003	0.00000E+000	3.70030E-001	0.00000E+000	10	...........	1583.25
	212	2.12	7.41267E-001	1.22960E-003	0.00000E+000	3.70030E-001	0.00000E+000	10	...........	1583.25
	213	2.13	7.43365E-001	1.22957E-003	0.00000E+000	3.70030E-001	0.00000E+000	10	...........	1583.25
	214	2.14	7.45406E-001	1.22960E-003	0.00000E+000	3.70030E-001	0.00000E+000	10	...........	1583.25
	215	2.15	7.47439E-001	1.22957E-003	0.00000E+000	3.70030E-001	0.00000E+000	10	...........	1583.25
	216	2.16	7.49481E-001	1.22953E-003	0.00000E+000	3.70030E-001	0.00000E+000	10	...........	1583.25
	217	2.17	7.51497E-001	1.22958E-003	0.00000E+000	3.70030E-001	0.00000E+000	10	...........	1583.25
	218	2.18	7.53514E-001	1.22962E-003	0.00000E+000	3.70030E-001	0.00000E+000	10	...........	1583.25
	219	2.19	7.55553E-001	1.22964E-003	0.00000E+000	3.70030E-001	0.00000E+000	10	...........	1583.25
	220	2.2	7.57548E-001	1.22964E-003	0.00000E+000	3.70030E-001	0.00000E+000	10	...........	1583.25
	221	2.21	7.59537E-001	1.22960E-003	0.00000E+000	3.70030E-001	0.00000E+000	10	...........	1583.25
	222	2.22	7.61497E-001	1.22962E-003	0.00000E+000	3.70030E-001	0.00000E+000	10	...........	1583.25
	223	2.23	7.63467E-001	1.22963E-003	0.00000E+000	3.70030E-001	0.00000E+000	10	...........	1583.25
	224	2.24	7.65432E-001	1.22957E-003	0.00000E+000	3.70030E-001	0.00000E+000	10	...........	1583.25
	225	2.25	7.67367E-001	1.22961E-003	0.00000E+000	3.70030E-001	0.00000E+000	10	...........	1583.25
	226	2.26	7.69346E-001	1.22956E-003	0.00000E+000	3.70030E-001	0.00000E+000	10	...........	1583.25
	227	2.27	7.71279E-001	1.22960E-003	0.00000E+000	3.70030E-001	0.00000E+000	10	...........	1583.25
	228	2.28	7.73212E-001	1.22958E-003	0.00000E+000	3.70030E-001	0.00000E+000	10	...........	1583.25
	229	2.29	7.75127E-001	1.22958E-003	0.00000E+000	3.70030E-001	0.00000E+000	10	...........	1583.25
	230	2.3	7.77010E-001	1.22962E-003	0.00000E+000	3.70030E-001	0.00000E+000	10	...........	1583.25
	231	2.31	7.78920E-001	1.22959E-003	0.00000E+000	3.70030E-001	0.00000E+000	10	...........	1583.25
	232	2.32	7.80800E-001	1.22958E-003	0.00000E+000	3.70030E-001	0.00000E+000	10	...........	1583.25
	233	2.33	7.82691E-001	1.22963E-003	0.00000E+000	3.70030E-001	0.00000E+000	10	...........	1583.25
	234	2.34	7.84561E-001	1.22966E-003	0.00000E+000	3.70030E-001	0.00000E+000	10	...........	1583.25
	235	2.35	7.86429E-001	1.22967E-003	0.00000E+000	3.70030E-001	0.00000E+000	10	...........	1583.25
	236	2.36	7.88261E-001	1.22963E-003	0.00000E+000	3.70030E-001	0.00000E+000	10	...........	1583.25
	237	2.37	7.90068E-001	1.22959E-003	0.00000E+000	3.70030E-001	0.00000E+000	10	...........	1583.25
	238	2.38	7.91898E-001	1.22960E-003	0.00000E+000	3.70030E-001	0.00000E+000	10	...........	1583.25
	239	2.39	7.93698E-001	1.22958E-003	0.00000E+000	3.70030E-001	0.00000E+000	10	...........	1583.25
	240	2.4	7.95538E-001	1.22963E-003	0.00000E+000	3.70030E-001	0.00000E+000	10	...........	1583.25
	241	2.41	7.97335E-001	1.22964E-003	0.00000E+000	3.70030E-001	0.00000E+000	10	...........	1583.25
	242	2.42	7.99106E-001	1.22959E-003	0.00000E+000	3.70030E-001	0.00000E+000	10	...........	1583.25
	243	2.43	8.00875E-001	1.22962E-003	0.00000E+000	3.70030E-001	0.00000E+000	10	...........	1583.25
	244	2.44	8.02623E-001	1.22965E-003	0.00000E+000	3.70030E-001	0.00000E+000	10	...........	1583.25
	245	2.45	8.04380E-001	1.22960E-003	0.00000E+000	3.70030E-001	0.00000E+000	10	...........	1583.25
	246	2.46	7.73618E-001	-1.22983E-003	0.00000E+000	-3.70030E-001	0.00000E+000	10	...........	1583.25
	247	2.47	7.67993E-001	-1.22989E-003	0.00000E+000	-3.70030E-001	0.00000E+000	10	...........	1583.25
	248	2.48	7.63317E-001	-1.22996E-003	0.00000E+000	-3.70030E-001	0.00000E+000	10	...........	1583.25
	249	2.49	7.59099E-001	-1.22996E-003	0.00000E+000	-3.70030E-001	0.00000E+000	10	...........	1583.25
	250	2.5	7.55124E-001	-1.22994E-003	0.00000E+000	-3.70030E-001	0.00000E+000	10	...........	1583.25
	251	2.51	7.51336E-001	-1.22993E-003	0.00000E+000	-3.70030E-001	0.00000E+000	10	...........	1583.25
	252	2.52	7.47688E-001	-1.22996E-003	0.00000E+000	-3.70030E-001	0.00000E+000	10	...........	1583.25
	253	2.53	7.44128E-001	-1.23001E-003	0.00000E+000	-3.70030E-001	0.00000E+000	10	...........	1583.25
	254	2.54	7.40610E-001	-1.23004E-003	0.00000E+000	-3.70030E-001	0.00000E+000	10	...........	1583.25
	255	2.55	7.37206E-001	-1.23003E-003	0.00000E+000	-3.70030E-001	0.00000E+000	10	...........	1583.25
	256	2.56	7.33849E-001	-1.23003E-003	0.00000E+000	-3.70030E-001	0.00000E+000	10	...........	1583.25
	257	2.57	7.30520E-001	-1.23002E-003	0.00000E+000	-3.70030E-001	0.00000E+000	10	...........	1583.25
	258	2.58	7.27230E-001	-1.23005E-003	0.00000E+000	-3.70030E-001	0.00000E+000	10	...........	1583.25
	259	2.59	7.23978E-001	-1.23006E-003	0.00000E+000	-3.70030E-001	0.00000E+000	10	...........	1583.25
	260	2.6	7.20769E-001	-1.23005E-003	0.00000E+000	-3.70030E-001	0.00000E+000	10	...........	1583.25
	261	2.61	7.17543E-001	-1.23006E-003	0.00000E+000	-3.70030E-001	0.00000E+000	10	...........	1583.15
	262	2.62	7.14362E-001	-1.23008E-003	0.00000E+000	-3.70030E-001	0.00000E+000	10	...........	1583.15
	263	2.63	7.11200E-001	-1.23009E-003	0.00000E+000	-3.70030E-001	0.00000E+000	10	...........	1583.15
	264	2.64	7.08044E-001	-1.23011E-003	0.00000E+000	-3.70030E-001	0.00000E+000	10	...........	1583.15
	265	2.65	7.04906E-001	-1.23011E-003	0.00000E+000	-3.70030E-001	0.00000E+000	10	...........	1583.15
	266	2.66	7.01784E-001	-1.23011E-003	0.00000E+000	-3.70030E-001	0.00000E+000	10	...........	1583.15
	267	2.67	6.98685E-001	-1.23011E-003	0.00000E+000	-3.70030E-001	0.00000E+000	10	...........	1583.15
	268	2.68	6.95586E-001	-1.23016E-003	0.00000E+000	-3.70030E-001	0.00000E+000	10	...........	1583.15
	269	2.69	6.92523E-001	-1.23013E-003	0.00000E+000	-3.70030E-001	0.00000E+000	10	...........	1583.15
	270	2.7	6.89423E-001	-1.23014E-003	0.00000E+000	-3.70030E-001	0.00000E+000	10	...........	1583.15
	271	2.71	6.86356E-001	-1.23009E-003	0.00000E+000	-3.70030E-001	0.00000E+000	10	...........	1583.15
	272	2.72	6.83317E-001	-1.23012E-003	0.00000E+000	-3.70030E-001	0.00000E+000	10	...........	1583.15
	273	2.73	6.80266E-001	-1.23010E-003	0.00000E+000	-3.70030E-001	0.00000E+000	10	...........	1583.15
	274	2.74	6.77212E-001	-1.23012E-003	0.00000E+000	-3.70030E-001	0.00000E+000	10	...........	1583.15
	275	2.75	6.74177E-001	-1.23016E-003	0.00000E+000	-3.70030E-001	0.00000E+000	10	...........	1583.15
	276	2.76	6.71152E-001	-1.23016E-003	0.00000E+000	-3.70030E-001	0.00000E+000	10	...........	1583.15
	277	2.77	6.68132E-001	-1.23015E-003	0.00000E+000	-3.70030E-001	0.00000E+000	10	...........	1583.15
	278	2.78	6.65113E-001	-1.23015E-003	0.00000E+000	-3.70030E-001	0.00000E+000	10	...........	1583.15
	279	2.79	6.62097E-001	-1.23015E-003	0.00000E+000	-3.70030E-001	0.00000E+000	10	...........	1583.15
	280	2.8	6.59110E-001	-1.23017E-003	0.00000E+000	-3.70030E-001	0.00000E+000	10	...........	1583.15
	281	2.81	6.56133E-001	-1.23017E-003	0.00000E+000	-3.70030E-001	0.00000E+000	10	...........	1583.15
	282	2.82	6.53154E-001	-1.23015E-003	0.00000E+000	-3.70030E-001	0.00000E+000	10	...........	1583.15
	283	2.83	6.50174E-001	-1.23020E-003	0.00000E+000	-3.70030E-001	0.00000E+000	10	...........	1583.15
	284	2.84	6.47197E-001	-1.23014E-003	0.00000E+000	-3.70030E-001	0.00000E+000	10	...........	1583.15
	285	2.85	6.44246E-001	-1.23017E-003	0.00000E+000	-3.70030E-001	0.00000E+000	10	...........	1583.15
	286	2.86	6.41285E-001	-1.23012E-003	0.00000E+000	-3.70030E-001	0.00000E+000	10	...........	1583.15
	287	2.87	6.38303E-001	-1.23013E-003	0.00000E+000	-3.70030E-001	0.00000E+000	10	...........	1583.15
	288	2.88	6.35369E-001	-1.23017E-003	0.00000E+000	-3.70030E-001	0.00000E+000	10	...........	1583.15
	289	2.89	6.32446E-001	-1.23019E-003	0.00000E+000	-3.70030E-001	0.00000E+000	10	...........	1583.15
	290	2.9	6.29525E-001	-1.23009E-003	0.00000E+000	-3.70030E-001	0.00000E+000	10	...........	1583.15
	291	2.91	6.26599E-001	-1.23009E-003	0.00000E+000	-3.70030E-001	0.00000E+000	10	...........	1583.15
	292	2.92	6.23668E-001	-1.23014E-003	0.00000E+000	-3.70030E-001	0.00000E+000	10	...........	1583.15
	293	2.93	6.20744E-001	-1.23016E-003	0.00000E+000	-3.70030E-001	0.00000E+000	10	...........	1583.15
	294	2.94	6.17840E-001	-1.23012E-003	0.00000E+000	-3.70030E-001	0.00000E+000	10	...........	1583.15
	295	2.95	6.14925E-001	-1.23016E-003	0.00000E+000	-3.70030E-001	0.00000E+000	10	...........	1583.15
	296	2.96	6.12016E-001	-1.23019E-003	0.00000E+000	-3.70030E-001	0.00000E+000	10	...........	1583.15
	297	2.97	6.09122E-001	-1.23017E-003	0.00000E+000	-3.70030E-001	0.00000E+000	10	...........	1583.15
	298	2.98	6.06240E-001	-1.23013E-003	0.00000E+000	-3.70030E-001	0.00000E+000	10	...........	1583.15
	299	2.99	6.03379E-001	-1.23010E-003	0.00000E+000	-3.70030E-001	0.00000E+000	10	...........	1583.15
	300	3	6.00500E-001	-1.23008E-003	0.00000E+000	-3.70030E-001	0.00000E+000	10	...........	1583.15
	301	3.01	5.97650E-001	-1.23007E-003	0.00000E+000	-3.70030E-001	0.00000E+000	10	...........	1583.15
	302	3.02	5.94788E-001	-1.23014E-003	0.00000E+000	-3.70030E-001	0.00000E+000	10	...........	1583.15
	303	3.03	5.91947E-001	-1.23013E-003	0.00000E+000	-3.70030E-001	0.00000E+000	10	...........	1583.15
	304	3.04	5.89081E-001	-1.23015E-003	0.00000E+000	-3.70030E-001	0.00000E+000	10	...........	1583.15
	305	3.05	5.86246E-001	-1.23012E-003	0.00000E+000	-3.70030E-001	0.00000E+000	10	...........	1583.15
	306	3.06	5.83408E-001	-1.23016E-003	0.00000E+000	-3.70030E-001	0.00000E+000	10	...........	1583.15
	307	3.07	5.80593E-001	-1.23012E-003	0.00000E+000	-3.70030E-001	0.00000E+000	10	...........	1583.15
	308	3.08	5.77780E-001	-1.23010E-003	0.00000E+000	-3.70030E-001	0.00000E+000	10	...........	1583.15
	309	3.09	5.74952E-001	-1.23014E-003	0.00000E+000	-3.70030E-001	0.00000E+000	10	...........	1583.15
	310	3.1	5.72161E-001	-1.23020E-003	0.00000E+000	-3.70030E-001	0.00000E+000	10	...........	1583.15
	311	3.11	5.69361E-001	-1.23017E-003	0.00000E+000	-3.70030E-001	0.00000E+000	10	...........	1583.15
	312	3.12	5.66583E-001	-1.23020E-003	0.00000E+000	-3.70030E-001	0.00000E+000	10	...........	1583.15
	313	3.13	5.63795E-001	-1.23015E-003	0.00000E+000	-3.70030E-001	0.00000E+000	10	...........	1583.15
	314	3.14	5.61019E-001	-1.23014E-003	0.00000E+000	-3.70030E-001	0.00000E+000	10	...........	1583.15
	315	3.15	5.58257E-001	-1.23015E-003	0.00000E+000	-3.70030E-001	0.00000E+000	10	...........	1583.15
	316	3.16	5.55503E-001	-1.23015E-003	0.00000E+000	-3.70030E-001	0.00000E+000	10	...........	1583.15
	317	3.17	5.52747E-001	-1.23012E-003	0.00000E+000	-3.70030E-001	0.00000E+000	10	...........	1583.15
	318	3.18	5.50003E-001	-1.23010E-003	0.00000E+000	-3.70030E-001	0.00000E+000	10	...........	1583.15
	319	3.19	5.47258E-001	-1.23015E-003	0.00000E+000	-3.70030E-001	0.00000E+000	10	...........	1583.15
	320	3.2	5.44547E-001	-1.23016E-003	0.00000E+000	-3.70030E-001	0.00000E+000	10	...........	1583.15
	321	3.21	5.41815E-001	-1.23016E-003	0.00000E+000	-3.70030E-001	0.00000E+000	10	...........	1583.15
	322	3.22	5.39120E-001	-1.23011E-003	0.00000E+000	-3.70030E-001	0.00000E+000	10	...........	1583.15
	323	3.23	5.36390E-001	-1.23010E-003	0.00000E+000	-3.70030E-001	0.00000E+000	10	...........	1583.15
	324	3.24	5.33686E-001	-1.23013E-003	0.00000E+000	-3.70030E-001	0.00000E+000	10	...........	1583.15
	325	3.25	5.30988E-001	-1.23011E-003	0.00000E+000	-3.70030E-001	0.00000E+000	10	...........	1583.15
	326	3.26	5.28296E-001	-1.23019E-003	0.00000E+000	-3.70030E-001	0.00000E+000	10	...........	1583.15
	327	3.27	5.25621E-001	-1.23019E-003	0.00000E+000	-3.70030E-001	0.00000E+000	10	...........	1583.15
	328	3.28	5.22934E-001	-1.23009E-003	0.00000E+000	-3.70030E-001	0.00000E+000	10	...........	1583.15
	329	3.29	5.20286E-001	-1.23014E-003	0.00000E+000	-3.70030E-001	0.00000E+000	10	...........	1583.15
	330	3.3	5.17640E-001	-1.23011E-003	0.00000E+000	-3.70030E-001	0.00000E+000	10	...........	1583.15
	331	3.31	5.15003E-001	-1.23007E-003	0.00000E+000	-3.70030E-001	0.00000E+000	10	...........	1583.15
	332	3.32	5.12333E-001	-1.23010E-003	0.00000E+000	-3.70030E-001	0.00000E+000	10	...........	1583.15
	333	3.33	5.09664E-001	-1.23009E-003	0.00000E+000	-3.70030E-001	0.00000E+000	10	...........	1583.15
	334	3.34	5.07024E-001	-1.23016E-003	0.00000E+000	-3.70030E-001	0.00000E+000	10	...........	1583.15
	335	3.35	5.04407E-001	-1.23017E-003	0.00000E+000	-3.70030E-001	0.00000E+000	10	...........	1583.15
	336	3.36	5.01792E-001	-1.23013E-003	0.00000E+000	-3.70030E-001	0.00000E+000	10	...........	1583.15
	337	3.37	4.99172E-001	-1.23012E-003	0.00000E+000	-3.70030E-001	0.00000E+000	10	...........	1583.15
	338	3.38	4.96582E-001	-1.23008E-003	0.00000E+000	-3.70030E-001	0.00000E+000	10	...........	1583.15
	339	3.39	4.93982E-001	-1.23013E-003	0.00000E+000	-3.70030E-001	0.00000E+000	10	...........	1583.15
	340	3.4	4.91399E-001	-1.23016E-003	0.00000E+000	-3.70030E-001	0.00000E+000	10	...........	1583.15
	341	3.41	4.88801E-001	-1.23016E-003	0.00000E+000	-3.70030E-001	0.00000E+000	10	...........	1583.15
	342	3.42	4.86194E-001	-1.23017E-003	0.00000E+000	-3.70030E-001	0.00000E+000	10	...........	1583.15
	343	3.43	4.83642E-001	-1.23015E-003	0.00000E+000	-3.70030E-001	0.00000E+000	10	...........	1583.15
	344	3.44	4.81085E-001	-1.23013E-003	0.00000E+000	-3.70030E-001	0.00000E+000	10	...........	1583.15
	345	3.45	4.78520E-001	-1.23016E-003	0.00000E+000	-3.70030E-001	0.00000E+000	10	...........	1583.15
	346	3.46	4.75982E-001	-1.23017E-003	0.00000E+000	-3.70030E-001	0.00000E+000	10	...........	1583.15
	347	3.47	4.73416E-001	-1.23017E-003	0.00000E+000	-3.70030E-001	0.00000E+000	10	...........	1583.15
	348	3.48	4.70891E-001	-1.23015E-003	0.00000E+000	-3.70030E-001	0.00000E+000	10	...........	1583.15
	349	3.49	4.68358E-001	-1.23019E-003	0.00000E+000	-3.70030E-001	0.00000E+000	10	...........	1583.15
	350	3.5	4.65836E-001	-1.23020E-003	0.00000E+000	-3.70030E-001	0.00000E+000	10	...........	1583.15
	351	3.51	4.63333E-001	-1.23016E-003	0.00000E+000	-3.70030E-001	0.00000E+000	10	...........	1583.15
	352	3.52	4.60814E-001	-1.23017E-003	0.00000E+000	-3.70030E-001	0.00000E+000	10	...........	1583.15
	353	3.53	4.58286E-001	-1.23013E-003	0.00000E+000	-3.70030E-001	0.00000E+000	10	...........	1583.15
	354	3.54	4.55792E-001	-1.23020E-003	0.00000E+000	-3.70030E-001	0.00000E+000	10	...........	1583.15
	355	3.55	4.53318E-001	-1.23019E-003	0.00000E+000	-3.70030E-001	0.00000E+000	10	...........	1583.15
	356	3.56	4.50829E-001	-1.23021E-003	0.00000E+000	-3.70030E-001	0.00000E+000	10	...........	1583.15
	357	3.57	4.48363E-001	-1.23020E-003	0.00000E+000	-3.70030E-001	0.00000E+000	10	...........	1583.15
	358	3.58	4.45871E-001	-1.23018E-003	0.00000E+000	-3.70030E-001	0.00000E+000	10	...........	1583.15
	359	3.59	4.43429E-001	-1.23019E-003	0.00000E+000	-3.70030E-001	0.00000E+000	10	...........	1583.15
	360	3.6	4.40973E-001	-1.23021E-003	0.00000E+000	-3.70030E-001	0.00000E+000	10	...........	1583.15
	361	3.61	4.38504E-001	-1.23018E-003	0.00000E+000	-3.70030E-001	0.00000E+000	10	...........	1583.34
	362	3.62	4.36090E-001	-1.23019E-003	0.00000E+000	-3.70030E-001	0.00000E+000	10	...........	1583.34
	363	3.63	4.33599E-001	-1.23013E-003	0.00000E+000	-3.70030E-001	0.00000E+000	10	...........	1583.34
	364	3.64	4.31172E-001	-1.23013E-003	0.00000E+000	-3.70030E-001	0.00000E+000	10	...........	1583.34
	365	3.65	4.28749E-001	-1.23017E-003	0.00000E+000	-3.70030E-001	0.00000E+000	10	...........	1583.34
	366	3.66	4.26331E-001	-1.23016E-003	0.00000E+000	-3.70030E-001	0.00000E+000	10	...........	1583.34
	367	3.67	4.23907E-001	-1.23023E-003	0.00000E+000	-3.70030E-001	0.00000E+000	10	...........	1583.34
	368	3.68	4.21479E-001	-1.23017E-003	0.00000E+000	-3.70030E-001	0.00000E+000	10	...........	1583.34
	369	3.69	4.19082E-001	-1.23015E-003	0.00000E+000	-3.70030E-001	0.00000E+000	10	...........	1583.34
	370	3.7	4.16691E-001	-1.23010E-003	0.00000E+000	-3.70030E-001	0.00000E+000	10	...........	1583.34
	371	3.71	4.14298E-001	-1.23013E-003	0.00000E+000	-3.70030E-001	0.00000E+000	10	...........	1583.34
	372	3.72	4.11907E-001	-1.23017E-003	0.00000E+000	-3.70030E-001	0.00000E+000	10	...........	1583.34
	373	3.73	4.09527E-001	-1.23017E-003	0.00000E+000	-3.70030E-001	0.00000E+000	10	...........	1583.34
	374	3.74	4.07137E-001	-1.23011E-003	0.00000E+000	-3.70030E-001	0.00000E+000	10	...........	1583.34
	375	3.75	4.04754E-001	-1.23010E-003	0.00000E+000	-3.70030E-001	0.00000E+000	10	...........	1583.34
	376	3.76	4.02403E-001	-1.23015E-003	0.00000E+000	-3.70030E-001	0.00000E+000	10	...........	1583.34
	377	3.77	4.00044E-001	-1.23012E-003	0.00000E+000	-3.70030E-001	0.00000E+000	10	...........	1583.34
	378	3.78	3.97690E-001	-1.23014E-003	0.00000E+000	-3.70030E-001	0.00000E+000	10	...........	1583.34
	379	3.79	3.95327E-001	-1.23012E-003	0.00000E+000	-3.70030E-001	0.00000E+000	10	...........	1583.34
	380	3.8	3.93005E-001	-1.23017E-003	0.00000E+000	-3.70030E-001	0.00000E+000	10	...........	1583.34
	381	3.81	3.90685E-001	-1.23012E-003	0.00000E+000	-3.70030E-001	0.00000E+000	10	...........	1583.34
	382	3.82	3.88344E-001	-1.23014E-003	0.00000E+000	-3.70030E-001	0.00000E+000	10	...........	1583.34
	383	3.83	3.86023E-001	-1.23013E-003	0.00000E+000	-3.70030E-001	0.00000E+000	10	...........	1583.34
	384	3.84	3.83677E-001	-1.23014E-003	0.00000E+000	-3.70030E-001	0.00000E+000	10	...........	1583.34
	385	3.85	3.81367E-001	-1.23012E-003	0.00000E+000	-3.70030E-001	0.00000E+000	10	...........	1583.34
	386	3.86	3.79076E-001	-1.23012E-003	0.00000E+000	-3.70030E-001	0.00000E+000	10	...........	1583.34
	387	3.87	3.76760E-001	-1.23016E-003	0.00000E+000	-3.70030E-001	0.00000E+000	10	...........	1583.34
	388	3.88	3.74460E-001	-1.23014E-003	0.00000E+000	-3.70030E-001	0.00000E+000	10	...........	1583.34
	389	3.89	3.72193E-001	-1.23014E-003	0.00000E+000	-3.70030E-001	0.00000E+000	10	...........	1583.34
	390	3.9	3.69878E-001	-1.23019E-003	0.00000E+000	-3.70030E-001	0.00000E+000	10	...........	1583.34
	391	3.91	3.67606E-001	-1.23020E-003	0.00000E+000	-3.70030E-001	0.00000E+000	10	...........	1583.34
	392	3.92	3.65323E-001	-1.23016E-003	0.00000E+000	-3.70030E-001	0.00000E+000	10	...........	1583.34
	393	3.93	3.63052E-001	-1.23019E-003	0.00000E+000	-3.70030E-001	0.00000E+000	10	...........	1583.34
	394	3.94	3.60785E-001	-1.23019E-003	0.00000E+000	-3.70030E-001	0.00000E+000	10	...........	1583.34
	395	3.95	3.58512E-001	-1.23018E-003	0.00000E+000	-3.70030E-001	0.00000E+000	10	...........	1583.34
	396	3.96	3.56251E-001	-1.23019E-003	0.00000E+000	-3.70030E-001	0.00000E+000	10	...........	1583.34
	397	3.97	3.54002E-001	-1.23014E-003	0.00000E+000	-3.70030E-001	0.00000E+000	10	...........	1583.34
	398	3.98	3.51757E-001	-1.23018E-003	0.00000E+000	-3.70030E-001	0.00000E+000	10	...........	1583.34
	399	3.99	3.49534E-001	-1.23017E-003	0.00000E+000	-3.70030E-001	0.00000E+000	10	...........	1583.34
	400	4	3.47285E-001	-1.23018E-003	0.00000E+000	-3.70030E-001	0.00000E+000	10	...........	1583.34
	401	4.01	3.45052E-001	-1.23016E-003	0.00000E+000	-3.70030E-001	0.00000E+000	10	...........	1583.34
	402	4.02	3.42834E-001	-1.23014E-003	0.00000E+000	-3.70030E-001	0.00000E+000	10	...........	1583.34
	403	4.03	3.40614E-001	-1.23016E-003	0.00000E+000	-3.70030E-001	0.00000E+000	10	...........	1583.34
	404	4.04	3.38405E-001	-1.23017E-003	0.00000E+000	-3.70030E-001	0.00000E+000	10	...........	1583.34
	405	4.05	3.36204E-001	-1.23021E-003	0.00000E+000	-3.70030E-001	0.00000E+000	10	...........	1583.34
	406	4.06	3.33984E-001	-1.23025E-003	0.00000E+000	-3.70030E-001	0.00000E+000	10	...........	1583.34
	407	4.07	3.31761E-001	-1.23024E-003	0.00000E+000	-3.70030E-001	0.00000E+000	10	...........	1583.34
	408	4.08	3.29555E-001	-1.23021E-003	0.00000E+000	-3.70030E-001	0.00000E+000	10	...........	1583.34
	409	4.09	3.27389E-001	-1.23026E-003	0.00000E+000	-3.70030E-001	0.00000E+000	10	...........	1583.34
	410	4.1	3.25201E-001	-1.23023E-003	0.00000E+000	-3.70030E-001	0.00000E+000	10	...........	1583.34
	411	4.11	3.23017E-001	-1.23022E-003	0.00000E+000	-3.70030E-001	0.00000E+000	10	...........	1583.34
	412	4.12	3.20866E-001	-1.23019E-003	0.00000E+000	-3.70030E-001	0.00000E+000	10	...........	1583.34
	413	4.13	3.18655E-001	-1.23017E-003	0.00000E+000	-3.70030E-001	0.00000E+000	10	...........	1583.34
	414	4.14	3.16482E-001	-1.23017E-003	0.00000E+000	-3.70030E-001	0.00000E+000	10	...........	1583.34
	415	4.15	3.14330E-001	-1.23018E-003	0.00000E+000	-3.70030E-001	0.00000E+000	10	...........	1583.34
	416	4.16	3.12193E-001	-1.23014E-003	0.00000E+000	-3.70030E-001	0.00000E+000	10	...........	1583.34
	417	4.17	3.10039E-001	-1.23013E-003	0.00000E+000	-3.70030E-001	0.00000E+000	10	...........	1583.34
	418	4.18	3.07913E-001	-1.23014E-003	0.00000E+000	-3.70030E-001	0.00000E+000	10	...........	1583.34
	419	4.19	3.05722E-001	-1.23013E-003	0.00000E+000	-3.70030E-001	0.00000E+000	10	...........	1583.34
	420	4.2	3.03586E-001	-1.23012E-003	0.00000E+000	-3.70030E-001	0.00000E+000	10	...........	1583.34
	421	4.21	3.01451E-001	-1.23013E-003	0.00000E+000	-3.70030E-001	0.00000E+000	10	...........	1583.34
	422	4.22	2.99315E-001	-1.23013E-003	0.00000E+000	-3.70030E-001	0.00000E+000	10	...........	1583.34
	423	4.23	2.97219E-001	-1.23015E-003	0.00000E+000	-3.70030E-001	0.00000E+000	10	...........	1583.34
	424	4.24	2.95091E-001	-1.23009E-003	0.00000E+000	-3.70030E-001	0.00000E+000	10	...........	1583.34
	425	4.25	2.92962E-001	-1.23014E-003	0.00000E+000	-3.70030E-001	0.00000E+000	10	...........	1583.34
	426	4.26	2.90863E-001	-1.23014E-003	0.00000E+000	-3.70030E-001	0.00000E+000	10	...........	1583.34
	427	4.27	2.88755E-001	-1.23019E-003	0.00000E+000	-3.70030E-001	0.00000E+000	10	...........	1583.34
	428	4.28	2.86647E-001	-1.23016E-003	0.00000E+000	-3.70030E-001	0.00000E+000	10	...........	1583.34
	429	4.29	2.84556E-001	-1.23015E-003	0.00000E+000	-3.70030E-001	0.00000E+000	10	...........	1583.34
	430	4.3	2.82483E-001	-1.23017E-003	0.00000E+000	-3.70030E-001	0.00000E+000	10	...........	1583.34
	431	4.31	2.80366E-001	-1.23016E-003	0.00000E+000	-3.70030E-001	0.00000E+000	10	...........	1583.34
	432	4.32	2.78289E-001	-1.23012E-003	0.00000E+000	-3.70030E-001	0.00000E+000	10	...........	1583.34
	433	4.33	2.76233E-001	-1.23008E-003	0.00000E+000	-3.70030E-001	0.00000E+000	10	...........	1583.34
	434	4.34	2.74150E-001	-1.23013E-003	0.00000E+000	-3.70030E-001	0.00000E+000	10	...........	1583.34
	435	4.35	2.72075E-001	-1.23013E-003	0.00000E+000	-3.70030E-001	0.00000E+000	10	...........	1583.34
	436	4.36	2.70016E-001	-1.23011E-003	0.00000E+000	-3.70030E-001	0.00000E+000	10	...........	1583.34
	437	4.37	2.67956E-001	-1.23013E-003	0.00000E+000	-3.70030E-001	0.00000E+000	10	...........	1583.34
	438	4.38	2.65909E-001	-1.23013E-003	0.00000E+000	-3.70030E-001	0.00000E+000	10	...........	1583.34
	439	4.39	2.63855E-001	-1.23009E-003	0.00000E+000	-3.70030E-001	0.00000E+000	10	...........	1583.34
	440	4.4	2.61820E-001	-1.23005E-003	0.00000E+000	-3.70030E-001	0.00000E+000	10	...........	1583.34
	441	4.41	2.59798E-001	-1.23002E-003	0.00000E+000	-3.70030E-001	0.00000E+000	10	...........	1583.34
	442	4.42	2.57743E-001	-1.23007E-003	0.00000E+000	-3.70030E-001	0.00000E+000	10	...........	1583.34
	443	4.43	2.55681E-001	-1.23015E-003	0.00000E+000	-3.70030E-001	0.00000E+000	10	...........	1583.34
	444	4.44	2.53640E-001	-1.23015E-003	0.00000E+000	-3.70030E-001	0.00000E+000	10	...........	1583.34
	445	4.45	2.51641E-001	-1.23010E-003	0.00000E+000	-3.70030E-001	0.00000E+000	10	...........	1583.34
	446	4.46	2.49648E-001	-1.23003E-003	0.00000E+000	-3.70030E-001	0.00000E+000	10	...........	1583.34
	447	4.47	2.47621E-001	-1.23009E-003	0.00000E+000	-3.70030E-001	0.00000E+000	10	...........	1583.34
	448	4.48	2.45606E-001	-1.23016E-003	0.00000E+000	-3.70030E-001	0.00000E+000	10	...........	1583.34
	449	4.49	2.43609E-001	-1.23014E-003	0.00000E+000	-3.70030E-001	0.00000E+000	10	...........	1583.34
	450	4.5	2.41601E-001	-1.23015E-003	0.00000E+000	-3.70030E-001	0.00000E+000	10	...........	1583.34
	451	4.51	2.39650E-001	-1.23019E-003	0.00000E+000	-3.70030E-001	0.00000E+000	10	...........	1583.34
	452	4.52	2.37660E-001	-1.23012E-003	0.00000E+000	-3.70030E-001	0.00000E+000	10	...........	1583.34
	453	4.53	2.35674E-001	-1.23012E-003	0.00000E+000	-3.70030E-001	0.00000E+000	10	...........	1583.34
	454	4.54	2.33691E-001	-1.23013E-003	0.00000E+000	-3.70030E-001	0.00000E+000	10	...........	1583.34
	455	4.55	2.31720E-001	-1.23014E-003	0.00000E+000	-3.70030E-001	0.00000E+000	10	...........	1583.34
	456	4.56	2.29742E-001	-1.23017E-003	0.00000E+000	-3.70030E-001	0.00000E+000	10	...........	1583.34
	457	4.57	2.27777E-001	-1.23013E-003	0.00000E+000	-3.70030E-001	0.00000E+000	10	...........	1583.34
	458	4.58	2.25816E-001	-1.23014E-003	0.00000E+000	-3.70030E-001	0.00000E+000	10	...........	1583.34
	459	4.59	2.23860E-001	-1.23011E-003	0.00000E+000	-3.70030E-001	0.00000E+000	10	...........	1583.34
	460	4.6	2.21909E-001	-1.23008E-003	0.00000E+000	-3.70030E-001	0.00000E+000	10	...........	1583.34
	461	4.61	2.19964E-001	-1.23014E-003	0.00000E+000	-3.70030E-001	0.00000E+000	10	...........	1583.15
	462	4.62	2.18019E-001	-1.23012E-003	0.00000E+000	-3.70030E-001	0.00000E+000	10	...........	1583.15
	463	4.63	2.16082E-001	-1.23013E-003	0.00000E+000	-3.70030E-001	0.00000E+000	10	...........	1583.15
	464	4.64	2.14145E-001	-1.23011E-003	0.00000E+000	-3.70030E-001	0.00000E+000	10	...........	1583.15
	465	4.65	2.12219E-001	-1.23010E-003	0.00000E+000	-3.70030E-001	0.00000E+000	10	...........	1583.15
	466	4.66	2.10295E-001	-1.23009E-003	0.00000E+000	-3.70030E-001	0.00000E+000	10	...........	1583.15
	467	4.67	2.08379E-001	-1.23011E-003	0.00000E+000	-3.70030E-001	0.00000E+000	10	...........	1583.15
	468	4.68	2.06463E-001	-1.23014E-003	0.00000E+000	-3.70030E-001	0.00000E+000	10	...........	1583.15
	469	4.69	2.04548E-001	-1.23014E-003	0.00000E+000	-3.70030E-001	0.00000E+000	10	...........	1583.15
	470	4.7	2.02643E-001	-1.23018E-003	0.00000E+000	-3.70030E-001	0.00000E+000	10	...........	1583.15
	471	4.71	2.00743E-001	-1.23014E-003	0.00000E+000	-3.70030E-001	0.00000E+000	10	...........	1583.15
	472	4.72	1.98847E-001	-1.23014E-003	0.00000E+000	-3.70030E-001	0.00000E+000	10	...........	1583.15
	473	4.73	1.96957E-001	-1.23014E-003	0.00000E+000	-3.70030E-001	0.00000E+000	10	...........	1583.15
	474	4.74	1.95073E-001	-1.23014E-003	0.00000E+000	-3.70030E-001	0.00000E+000	10	...........	1583.15
	475	4.75	1.93193E-001	-1.23011E-003	0.00000E+000	-3.70030E-001	0.00000E+000	10	...........	1583.15
	476	4.76	1.91316E-001	-1.23012E-003	0.00000E+000	-3.70030E-001	0.00000E+000	10	...........	1583.15
	477	4.77	1.89443E-001	-1.23018E-003	0.00000E+000	-3.70030E-001	0.00000E+000	10	...........	1583.15
	478	4.78	1.87574E-001	-1.23017E-003	0.00000E+000	-3.70030E-001	0.00000E+000	10	...........	1583.15
	479	4.79	1.85709E-001	-1.23019E-003	0.00000E+000	-3.70030E-001	0.00000E+000	10	...........	1583.15
	480	4.8	1.83846E-001	-1.23023E-003	0.00000E+000	-3.70030E-001	0.00000E+000	10	...........	1583.15
	481	4.81	1.81999E-001	-1.23017E-003	0.00000E+000	-3.70030E-001	0.00000E+000	10	...........	1583.15
	482	4.82	1.80145E-001	-1.23017E-003	0.00000E+000	-3.70030E-001	0.00000E+000	10	...........	1583.15
	483	4.83	1.78304E-001	-1.23017E-003	0.00000E+000	-3.70030E-001	0.00000E+000	10	...........	1583.15
	484	4.84	1.76460E-001	-1.23021E-003	0.00000E+000	-3.70030E-001	0.00000E+000	10	...........	1583.15
	485	4.85	1.74628E-001	-1.23017E-003	0.00000E+000	-3.70030E-001	0.00000E+000	10	...........	1583.15
	486	4.86	1.72799E-001	-1.23014E-003	0.00000E+000	-3.70030E-001	0.00000E+000	10	...........	1583.15
	487	4.87	1.70977E-001	-1.23013E-003	0.00000E+000	-3.70030E-001	0.00000E+000	10	...........	1583.15
	488	4.88	1.69154E-001	-1.23015E-003	0.00000E+000	-3.70030E-001	0.00000E+000	10	...........	1583.15
	489	4.89	1.67338E-001	-1.23017E-003	0.00000E+000	-3.70030E-001	0.00000E+000	10	...........	1583.15
	490	4.9	1.65527E-001	-1.23016E-003	0.00000E+000	-3.70030E-001	0.00000E+000	10	...........	1583.15
	491	4.91	1.63720E-001	-1.23016E-003	0.00000E+000	-3.70030E-001	0.00000E+000	10	...........	1583.15
	492	4.92	1.61919E-001	-1.23015E-003	0.00000E+000	-3.70030E-001	0.00000E+000	10	...........	1583.15
	493	4.93	1.60123E-001	-1.23013E-003	0.00000E+000	-3.70030E-001	0.00000E+000	10	...........	1583.15
	494	4.94	1.58331E-001	-1.23014E-003	0.00000E+000	-3.70030E-001	0.00000E+000	10	...........	1583.15
	495	4.95	1.56544E-001	-1.23014E-003	0.00000E+000	-3.70030E-001	0.00000E+000	10	...........	1583.15
	496	4.96	1.54760E-001	-1.23016E-003	0.00000E+000	-3.70030E-001	0.00000E+000	10	...........	1583.15
	497	4.97	1.52979E-001	-1.23014E-003	0.00000E+000	-3.70030E-001	0.00000E+000	10	...........	1583.15
	498	4.98	1.51208E-001	-1.23016E-003	0.00000E+000	-3.70030E-001	0.00000E+000	10	...........	1583.15
	499	4.99	1.49442E-001	-1.23018E-003	0.00000E+000	-3.70030E-001	0.00000E+000	10	...........	1583.15
	500	5	1.47675E-001	-1.23018E-003	0.00000E+000	-3.70030E-001	0.00000E+000	10	...........	1583.15
	501	5.01	1.45916E-001	-1.23020E-003	0.00000E+000	-3.70030E-001	0.00000E+000	10	...........	1583.15
	502	5.02	1.44160E-001	-1.23018E-003	0.00000E+000	-3.70030E-001	0.00000E+000	10	...........	1583.15
	503	5.03	1.42409E-001	-1.23021E-003	0.00000E+000	-3.70030E-001	0.00000E+000	10	...........	1583.15
	504	5.04	1.40663E-001	-1.23018E-003	0.00000E+000	-3.70030E-001	0.00000E+000	10	...........	1583.15
	505	5.05	1.38923E-001	-1.23018E-003	0.00000E+000	-3.70030E-001	0.00000E+000	10	...........	1583.15
	506	5.06	1.37186E-001	-1.23019E-003	0.00000E+000	-3.70030E-001	0.00000E+000	10	...........	1583.15
	507	5.07	1.35457E-001	-1.23015E-003	0.00000E+000	-3.70030E-001	0.00000E+000	10	...........	1583.15
	508	5.08	1.33734E-001	-1.23017E-003	0.00000E+000	-3.70030E-001	0.00000E+000	10	...........	1583.15
	509	5.09	1.32010E-001	-1.23019E-003	0.00000E+000	-3.70030E-001	0.00000E+000	10	...........	1583.15
	510	5.1	1.30291E-001	-1.23013E-003	0.00000E+000	-3.70030E-001	0.00000E+000	10	...........	1583.15
	511	5.11	1.28583E-001	-1.23022E-003	0.00000E+000	-3.70030E-001	0.00000E+000	10	...........	1583.15
	512	5.12	1.26874E-001	-1.23018E-003	0.00000E+000	-3.70030E-001	0.00000E+000	10	...........	1583.15
	513	5.13	1.25172E-001	-1.23018E-003	0.00000E+000	-3.70030E-001	0.00000E+000	10	...........	1583.15
	514	5.14	1.23473E-001	-1.23019E-003	0.00000E+000	-3.70030E-001	0.00000E+000	10	...........	1583.15
	515	5.15	1.21784E-001	-1.23016E-003	0.00000E+000	-3.70030E-001	0.00000E+000	10	...........	1583.15
	516	5.16	1.20096E-001	-1.23020E-003	0.00000E+000	-3.70030E-001	0.00000E+000	10	...........	1583.15
	517	5.17	1.18412E-001	-1.23019E-003	0.00000E+000	-3.70030E-001	0.00000E+000	10	...........	1583.15
	518	5.18	1.16736E-001	-1.23021E-003	0.00000E+000	-3.70030E-001	0.00000E+000	10	...........	1583.15
	519	5.19	1.15061E-001	-1.23023E-003	0.00000E+000	-3.70030E-001	0.00000E+000	10	...........	1583.15
	520	5.2	1.13392E-001	-1.23019E-003	0.00000E+000	-3.70030E-001	0.00000E+000	10	...........	1583.15
	521	5.21	1.11729E-001	-1.23025E-003	0.00000E+000	-3.70030E-001	0.00000E+000	10	...........	1583.15
	522	5.22	1.10067E-001	-1.23022E-003	0.00000E+000	-3.70030E-001	0.00000E+000	10	...........	1583.15
	523	5.23	1.08412E-001	-1.23022E-003	0.00000E+000	-3.70030E-001	0.00000E+000	10	...........	1583.15
	524	5.24	1.06763E-001	-1.23025E-003	0.00000E+000	-3.70030E-001	0.00000E+000	10	...........	1583.15
	525	5.25	1.05120E-001	-1.23027E-003	0.00000E+000	-3.70030E-001	0.00000E+000	10	...........	1583.15
	526	5.26	1.03478E-001	-1.23026E-003	0.00000E+000	-3.70030E-001	0.00000E+000	10	...........	1583.15
	527	5.27	1.01839E-001	-1.23027E-003	0.00000E+000	-3.70030E-001	0.00000E+000	10	...........	1583.15
	528	5.28	1.00209E-001	-1.23023E-003	0.00000E+000	-3.70030E-001	0.00000E+000	10	...........	1583.15
	529	5.29	9.85828E-002	-1.23020E-003	0.00000E+000	-3.70030E-001	0.00000E+000	10	...........	1583.15
	530	5.3	9.69586E-002	-1.23018E-003	0.00000E+000	-3.70030E-001	0.00000E+000	10	...........	1583.15
	531	5.31	9.53484E-002	-1.23017E-003	0.00000E+000	-3.70030E-001	0.00000E+000	10	...........	1583.15
	532	5.32	9.37379E-002	-1.23010E-003	0.00000E+000	-3.70030E-001	0.00000E+000	10	...........	1583.15
	533	5.33	9.21331E-002	-1.23014E-003	0.00000E+000	-3.70030E-001	0.00000E+000	10	...........	1583.15
	534	5.34	9.05272E-002	-1.23020E-003	0.00000E+000	-3.70030E-001	0.00000E+000	10	...........	1583.15
	535	5.35	8.89305E-002	-1.23015E-003	0.00000E+000	-3.70030E-001	0.00000E+000	10	...........	1583.15
	536	5.36	8.73431E-002	-1.23014E-003	0.00000E+000	-3.70030E-001	0.00000E+000	10	...........	1583.15
	537	5.37	8.57557E-002	-1.23011E-003	0.00000E+000	-3.70030E-001	0.00000E+000	10	...........	1583.15
	538	5.38	8.41729E-002	-1.23013E-003	0.00000E+000	-3.70030E-001	0.00000E+000	10	...........	1583.15
	539	5.39	8.25963E-002	-1.23014E-003	0.00000E+000	-3.70030E-001	0.00000E+000	10	...........	1583.15
	540	5.4	8.10284E-002	-1.23014E-003	0.00000E+000	-3.70030E-001	0.00000E+000	10	...........	1583.15
	541	5.41	7.94621E-002	-1.23011E-003	0.00000E+000	-3.70030E-001	0.00000E+000	10	...........	1583.15
	542	5.42	7.78960E-002	-1.23014E-003	0.00000E+000	-3.70030E-001	0.00000E+000	10	...........	1583.15
	543	5.43	7.63353E-002	-1.23016E-003	0.00000E+000	-3.70030E-001	0.00000E+000	10	...........	1583.15
	544	5.44	7.47843E-002	-1.23015E-003	0.00000E+000	-3.70030E-001	0.00000E+000	10	...........	1583.15
	545	5.45	7.32350E-002	-1.23016E-003	0.00000E+000	-3.70030E-001	0.00000E+000	10	...........	1583.15
	546	5.46	7.16887E-002	-1.23012E-003	0.00000E+000	-3.70030E-001	0.00000E+000	10	...........	1583.15
	547	5.47	7.01480E-002	-1.23021E-003	0.00000E+000	-3.70030E-001	0.00000E+000	10	...........	1583.15
	548	5.48	6.86150E-002	-1.23012E-003	0.00000E+000	-3.70030E-001	0.00000E+000	10	...........	1583.15
	549	5.49	6.70899E-002	-1.23009E-003	0.00000E+000	-3.70030E-001	0.00000E+000	10	...........	1583.15
	550	5.5	6.55601E-002	-1.23012E-003	0.00000E+000	-3.70030E-001	0.00000E+000	10	...........	1583.15
	551	5.51	6.40433E-002	-1.23013E-003	0.00000E+000	-3.70030E-001	0.00000E+000	10	...........	1583.15
	552	5.52	6.25259E-002	-1.23009E-003	0.00000E+000	-3.70030E-001	0.00000E+000	10	...........	1583.15
	553	5.53	6.10173E-002	-1.23014E-003	0.00000E+000	-3.70030E-001	0.00000E+000	10	...........	1583.15
	554	5.54	5.95119E-002	-1.23009E-003	0.00000E+000	-3.70030E-001	0.00000E+000	10	...........	1583.15
	555	5.55	5.80092E-002	-1.23013E-003	0.00000E+000	-3.70030E-001	0.00000E+000	10	...........	1583.15
	556	5.56	5.65126E-002	-1.23018E-003	0.00000E+000	-3.70030E-001	0.00000E+000	10	...........	1583.15
	557	5.57	5.50178E-002	-1.23019E-003	0.00000E+000	-3.70030E-001	0.00000E+000	10	...........	1583.15
	558	5.58	5.35311E-002	-1.23022E-003	0.00000E+000	-3.70030E-001	0.00000E+000	10	...........	1583.15
	559	5.59	5.20490E-002	-1.23019E-003	0.00000E+000	-3.70030E-001	0.00000E+000	10	...........	1583.15
	560	5.6	5.05729E-002	-1.23019E-003	0.00000E+000	-3.70030E-001	0.00000E+000	10	...........	1583.15
	561	5.61	4.91007E-002	-1.23015E-003	0.00000E+000	-3.70030E-001	0.00000E+000	10	...........	1583.44
	562	5.62	4.76350E-002	-1.23016E-003	0.00000E+000	-3.70030E-001	0.00000E+000	10	...........	1583.44
	563	5.63	4.61724E-002	-1.23017E-003	0.00000E+000	-3.70030E-001	0.00000E+000	10	...........	1583.44
	564	5.64	4.47112E-002	-1.23019E-003	0.00000E+000	-3.70030E-001	0.00000E+000	10	...........	1583.44
	565	5.65	4.32577E-002	-1.23017E-003	0.00000E+000	-3.70030E-001	0.00000E+000	10	...........	1583.44
	566	5.66	4.18095E-002	-1.23017E-003	0.00000E+000	-3.70030E-001	0.00000E+000	10	...........	1583.44
	567	5.67	4.03642E-002	-1.23019E-003	0.00000E+000	-3.70030E-001	0.00000E+000	10	...........	1583.44
	568	5.68	3.89243E-002	-1.23018E-003	0.00000E+000	-3.70030E-001	0.00000E+000	10	...........	1583.44
	569	5.69	3.74948E-002	-1.23018E-003	0.00000E+000	-3.70030E-001	0.00000E+000	10	...........	1583.44
	570	5.7	3.60632E-002	-1.23014E-003	0.00000E+000	-3.70030E-001	0.00000E+000	10	...........	1583.44
	571	5.71	3.46395E-002	-1.23012E-003	0.00000E+000	-3.70030E-001	0.00000E+000	10	...........	1583.44
	572	5.72	3.32203E-002	-1.23006E-003	0.00000E+000	-3.70030E-001	0.00000E+000	10	...........	1583.44
	573	5.73	3.18043E-002	-1.23006E-003	0.00000E+000	-3.70030E-001	0.00000E+000	10	...........	1583.44
	574	5.74	3.03889E-002	-1.23012E-003	0.00000E+000	-3.70030E-001	0.00000E+000	10	...........	1583.44
	575	5.75	2.89818E-002	-1.23019E-003	0.00000E+000	-3.70030E-001	0.00000E+000	10	...........	1583.44
	576	5.76	2.75821E-002	-1.23016E-003	0.00000E+000	-3.70030E-001	0.00000E+000	10	...........	1583.44
	577	5.77	2.61857E-002	-1.23012E-003	0.00000E+000	-3.70030E-001	0.00000E+000	10	...........	1583.44
	578	5.78	2.47893E-002	-1.23019E-003	0.00000E+000	-3.70030E-001	0.00000E+000	10	...........	1583.44
	579	5.79	2.34069E-002	-1.23017E-003	0.00000E+000	-3.70030E-001	0.00000E+000	10	...........	1583.44
	580	5.8	2.20272E-002	-1.23014E-003	0.00000E+000	-3.70030E-001	0.00000E+000	10	...........	1583.44
	581	5.81	2.06529E-002	-1.23015E-003	0.00000E+000	-3.70030E-001	0.00000E+000	10	...........	1583.44
	582	5.82	1.92762E-002	-1.23013E-003	0.00000E+000	-3.70030E-001	0.00000E+000	10	...........	1583.44
	583	5.83	1.79094E-002	-1.23013E-003	0.00000E+000	-3.70030E-001	0.00000E+000	10	...........	1583.44
	584	5.84	1.65412E-002	-1.23013E-003	0.00000E+000	-3.70030E-001	0.00000E+000	10	...........	1583.44
	585	5.85	1.51828E-002	-1.23016E-003	0.00000E+000	-3.70030E-001	0.00000E+000	10	...........	1583.44
	586	5.86	1.38267E-002	-1.23016E-003	0.00000E+000	-3.70030E-001	0.00000E+000	10	...........	1583.44
	587	5.87	1.24775E-002	-1.23018E-003	0.00000E+000	-3.70030E-001	0.00000E+000	10	...........	1583.44
	588	5.88	1.11308E-002	-1.23012E-003	0.00000E+000	-3.70030E-001	0.00000E+000	10	...........	1583.44
	589	5.89	9.79032E-003	-1.23014E-003	0.00000E+000	-3.70030E-001	0.00000E+000	10	...........	1583.44
	590	5.9	8.45335E-003	-1.23012E-003	0.00000E+000	-3.70030E-001	0.00000E+000	10	...........	1583.44
	591	5.91	7.12311E-003	-1.23015E-003	0.00000E+000	-3.70030E-001	0.00000E+000	10	...........	1583.44
	592	5.92	5.79502E-003	-1.23014E-003	0.00000E+000	-3.70030E-001	0.00000E+000	10	...........	1583.44
	593	5.93	4.47058E-003	-1.23015E-003	0.00000E+000	-3.70030E-001	0.00000E+000	10	...........	1583.44
	594	5.94	3.15040E-003	-1.23018E-003	0.00000E+000	-3.70030E-001	0.00000E+000	10	...........	1583.44
	595	5.95	1.83713E-003	-1.23016E-003	0.00000E+000	-3.70030E-001	0.00000E+000	10	...........	1583.44
	596	5.96	5.27046E-004	-1.23015E-003	0.00000E+000	-3.70030E-001	0.00000E+000	10	...........	1583.44
	597	5.97	-7.80254E-004	-1.23014E-003	0.00000E+000	-3.70030E-001	0.00000E+000	10	...........	1583.44
