EXPLAIN
TAG	CHRONOP
TITLE	LABEL	Chronopotentiometry Scan	Test Identifier
DATE	LABEL	23/1/2025	Date
TIME	LABEL	18:25:24	Time
NOTES	NOTES	1	Notes...
	
PSTAT	PSTAT	IFC1010-42004	Potentiostat
IPRESTEP	QUANT	0.00000E+000	Pre-step Current(A)
TPRESTEP	QUANT	0.00000E+000	Pre-step Delay Time (s)
ISTEP1	QUANT	1.23000E-003	Step 1 Current (A)
TSTEP1	QUANT	5.00000E+003	Step 1 Time (s)
ISTEP2	QUANT	-1.23000E-003	Step 2 Current (A)
TSTEP2	QUANT	5.00000E+003	Step 2 Time (s)
SAMPLETIME	QUANT	1.00000E-002	Sample Period (s)
DECIMATE	TOGGLE	F	Decimate
VLIMITLOWER	QUANT	0.00000E+000	Lower Limit V (V)
VLIMITUPPER	QUANT	8.00000E-001	Upper Limit V (V)
EQDELAY	QUANT	1.00000E+000	Equil. Time (s)
SAMPLINGMODE	SELECTOR	1	Sampling Mode
AREA	QUANT	2.00000E+000	Sample Area (cm^2)
ELECTRODETYPE	SELECTOR	0	Electrode Type
STRIPPING	TOGGLE	F	Used for Stripping
SEQUENCER	TOGGLE	TRUE	Run as Sequence
PSTATMODEL	IQUANT	64	Pstat Model
PSTATSECTION	LABEL	IFC1010-42004	Pstat Section
PSTATSERIALNO	LABEL	42004	Pstat Serial Number
CTRLMODE	IQUANT	0	Control Mode
ELECTROMETER	IQUANT	0	RE=0 or CS=1
IESTAB	IQUANT	0	I/E Stability
CASPEED	IQUANT	4	Control Amp Speed
CONVENTION	IQUANT	1	Current Convention
ICHRANGE	IQUANT	2	Ich Range
ICHRANGEMODE	TOGGLE	T	Ich Auto Range
ICHOFFSETENABLE	TOGGLE	F	Ich Offset Enable
ICHOFFSET	QUANT	0	Ich Offset (V)
ICHFILTER	IQUANT	3	Ich Filter
VCHRANGE	IQUANT	3	Vch Range
VCHRANGEMODE	TOGGLE	T	Vch Auto Range
VCHOFFSETENABLE	TOGGLE	F	Vch Offset Enable
VCHOFFSET	QUANT	0	Vch Offset (V)
VCHFILTER	IQUANT	3	Vch Filter
IERANGELOWERLIMIT	IQUANT	4	I/E Range Lower Limit
IERANGEMODE	TOGGLE	F	I/E AutoRange
IERANGE	IQUANT	11	I/E Range
ACHSELECT	IQUANT	0	Ach Select
ACHRANGE	IQUANT	2	Ach Range
ACHOFFSETENABLE	TOGGLE	F	Ach Offset Enable
ACHOFFSET	QUANT	0	Ach Offset (V)
ACHFILTER	IQUANT	1	Ach Filter
SENSECABLEID	IQUANT	14	Sense Cable ID
PWRCABLEID	IQUANT	14	Power Cable ID
DCCALDATE	LABEL	1/22/2025	DC Calibration Date
ACCALDATE	LABEL	11/15/2024	AC Calibration Date
FRAMEWORKVERSION	LABEL	7.10.4	Framework Version
INSTRUMENTVERSION	LABEL	4.91	Instrument Version
COMMVERSION	LABEL	3.10	Communications Version
CPUPLDVERSION	LABEL	2.54	CPU PLD Version
CTRLPLDVERSION	LABEL	0.00	CTRL PLD Version
PSTATPLDVERSION	LABEL	0.00	PSTAT PLD Version
CURVE	TABLE	582
	Pt	T	Vf	Im	Vu	Sig	Ach	IERange	Over	Temp
	#	s	V vs. Ref.	A	V	V	V	#	bits	deg C
	0	0	2.44606E-001	-1.71942E-007	0.00000E+000	0.00000E+000	0.00000E+000	10	...........	1583.34
	1	0.01	2.61848E-001	1.22957E-003	0.00000E+000	3.70030E-001	0.00000E+000	10	...........	1583.34
	2	0.02	2.64692E-001	1.22962E-003	0.00000E+000	3.70030E-001	0.00000E+000	10	...........	1583.34
	3	0.03	2.67180E-001	1.22958E-003	0.00000E+000	3.70030E-001	0.00000E+000	10	...........	1583.34
	4	0.04	2.69558E-001	1.22958E-003	0.00000E+000	3.70030E-001	0.00000E+000	10	...........	1583.34
	5	0.05	2.71848E-001	1.22957E-003	0.00000E+000	3.70030E-001	0.00000E+000	10	...........	1583.34
	6	0.06	2.74116E-001	1.22960E-003	0.00000E+000	3.70030E-001	0.00000E+000	10	...........	1583.34
	7	0.07	2.76346E-001	1.22956E-003	0.00000E+000	3.70030E-001	0.00000E+000	10	...........	1583.34
	8	0.08	2.78597E-001	1.22964E-003	0.00000E+000	3.70030E-001	0.00000E+000	10	...........	1583.34
	9	0.09	2.80817E-001	1.22963E-003	0.00000E+000	3.70030E-001	0.00000E+000	10	...........	1583.34
	10	0.1	2.83078E-001	1.22967E-003	0.00000E+000	3.70030E-001	0.00000E+000	10	...........	1583.34
	11	0.11	2.85306E-001	1.22967E-003	0.00000E+000	3.70030E-001	0.00000E+000	10	...........	1583.34
	12	0.12	2.87523E-001	1.22967E-003	0.00000E+000	3.70030E-001	0.00000E+000	10	...........	1583.34
	13	0.13	2.89734E-001	1.22968E-003	0.00000E+000	3.70030E-001	0.00000E+000	10	...........	1583.34
	14	0.14	2.91936E-001	1.22970E-003	0.00000E+000	3.70030E-001	0.00000E+000	10	...........	1583.34
	15	0.15	2.94170E-001	1.22966E-003	0.00000E+000	3.70030E-001	0.00000E+000	10	...........	1583.34
	16	0.16	2.96400E-001	1.22964E-003	0.00000E+000	3.70030E-001	0.00000E+000	10	...........	1583.34
	17	0.17	2.98616E-001	1.22966E-003	0.00000E+000	3.70030E-001	0.00000E+000	10	...........	1583.34
	18	0.18	3.00841E-001	1.22972E-003	0.00000E+000	3.70030E-001	0.00000E+000	10	...........	1583.34
	19	0.19	3.03053E-001	1.22963E-003	0.00000E+000	3.70030E-001	0.00000E+000	10	...........	1583.34
	20	0.2	3.05256E-001	1.22961E-003	0.00000E+000	3.70030E-001	0.00000E+000	10	...........	1583.34
	21	0.21	3.07509E-001	1.22964E-003	0.00000E+000	3.70030E-001	0.00000E+000	10	...........	1583.34
	22	0.22	3.09734E-001	1.22964E-003	0.00000E+000	3.70030E-001	0.00000E+000	10	...........	1583.34
	23	0.23	3.11964E-001	1.22964E-003	0.00000E+000	3.70030E-001	0.00000E+000	10	...........	1583.34
	24	0.24	3.14191E-001	1.22961E-003	0.00000E+000	3.70030E-001	0.00000E+000	10	...........	1583.34
	25	0.25	3.16415E-001	1.22955E-003	0.00000E+000	3.70030E-001	0.00000E+000	10	...........	1583.34
	26	0.26	3.18649E-001	1.22963E-003	0.00000E+000	3.70030E-001	0.00000E+000	10	...........	1583.34
	27	0.27	3.20896E-001	1.22960E-003	0.00000E+000	3.70030E-001	0.00000E+000	10	...........	1583.34
	28	0.28	3.23147E-001	1.22960E-003	0.00000E+000	3.70030E-001	0.00000E+000	10	...........	1583.34
	29	0.29	3.25377E-001	1.22963E-003	0.00000E+000	3.70030E-001	0.00000E+000	10	...........	1583.34
	30	0.3	3.27618E-001	1.22964E-003	0.00000E+000	3.70030E-001	0.00000E+000	10	...........	1583.34
	31	0.31	3.29858E-001	1.22965E-003	0.00000E+000	3.70030E-001	0.00000E+000	10	...........	1583.34
	32	0.32	3.32102E-001	1.22963E-003	0.00000E+000	3.70030E-001	0.00000E+000	10	...........	1583.34
	33	0.33	3.34380E-001	1.22964E-003	0.00000E+000	3.70030E-001	0.00000E+000	10	...........	1583.34
	34	0.34	3.36635E-001	1.22967E-003	0.00000E+000	3.70030E-001	0.00000E+000	10	...........	1583.34
	35	0.35	3.38884E-001	1.22966E-003	0.00000E+000	3.70030E-001	0.00000E+000	10	...........	1583.34
	36	0.36	3.41155E-001	1.22963E-003	0.00000E+000	3.70030E-001	0.00000E+000	10	...........	1583.34
	37	0.37	3.43417E-001	1.22963E-003	0.00000E+000	3.70030E-001	0.00000E+000	10	...........	1583.34
	38	0.38	3.45669E-001	1.22966E-003	0.00000E+000	3.70030E-001	0.00000E+000	10	...........	1583.34
	39	0.39	3.47948E-001	1.22969E-003	0.00000E+000	3.70030E-001	0.00000E+000	10	...........	1583.34
	40	0.4	3.50203E-001	1.22967E-003	0.00000E+000	3.70030E-001	0.00000E+000	10	...........	1583.34
	41	0.41	3.52485E-001	1.22964E-003	0.00000E+000	3.70030E-001	0.00000E+000	10	...........	1583.34
	42	0.42	3.54750E-001	1.22963E-003	0.00000E+000	3.70030E-001	0.00000E+000	10	...........	1583.34
	43	0.43	3.57014E-001	1.22960E-003	0.00000E+000	3.70030E-001	0.00000E+000	10	...........	1583.34
	44	0.44	3.59324E-001	1.22963E-003	0.00000E+000	3.70030E-001	0.00000E+000	10	...........	1583.34
	45	0.45	3.61594E-001	1.22964E-003	0.00000E+000	3.70030E-001	0.00000E+000	10	...........	1583.34
	46	0.46	3.63890E-001	1.22965E-003	0.00000E+000	3.70030E-001	0.00000E+000	10	...........	1583.34
	47	0.47	3.66158E-001	1.22969E-003	0.00000E+000	3.70030E-001	0.00000E+000	10	...........	1583.34
	48	0.48	3.68464E-001	1.22968E-003	0.00000E+000	3.70030E-001	0.00000E+000	10	...........	1583.34
	49	0.49	3.70765E-001	1.22969E-003	0.00000E+000	3.70030E-001	0.00000E+000	10	...........	1583.34
	50	0.5	3.73082E-001	1.22964E-003	0.00000E+000	3.70030E-001	0.00000E+000	10	...........	1583.34
	51	0.51	3.75359E-001	1.22963E-003	0.00000E+000	3.70030E-001	0.00000E+000	10	...........	1583.34
	52	0.52	3.77649E-001	1.22964E-003	0.00000E+000	3.70030E-001	0.00000E+000	10	...........	1583.34
	53	0.53	3.79948E-001	1.22961E-003	0.00000E+000	3.70030E-001	0.00000E+000	10	...........	1583.34
	54	0.54	3.82261E-001	1.22961E-003	0.00000E+000	3.70030E-001	0.00000E+000	10	...........	1583.34
	55	0.55	3.84582E-001	1.22964E-003	0.00000E+000	3.70030E-001	0.00000E+000	10	...........	1583.82
	56	0.56	3.86895E-001	1.22968E-003	0.00000E+000	3.70030E-001	0.00000E+000	10	...........	1583.82
	57	0.57	3.89206E-001	1.22963E-003	0.00000E+000	3.70030E-001	0.00000E+000	10	...........	1583.82
	58	0.58	3.91505E-001	1.22959E-003	0.00000E+000	3.70030E-001	0.00000E+000	10	...........	1583.82
	59	0.59	3.93813E-001	1.22954E-003	0.00000E+000	3.70030E-001	0.00000E+000	10	...........	1583.82
	60	0.6	3.96123E-001	1.22956E-003	0.00000E+000	3.70030E-001	0.00000E+000	10	...........	1583.82
	61	0.61	3.98458E-001	1.22959E-003	0.00000E+000	3.70030E-001	0.00000E+000	10	...........	1583.82
	62	0.62	4.00790E-001	1.22959E-003	0.00000E+000	3.70030E-001	0.00000E+000	10	...........	1583.82
	63	0.63	4.03106E-001	1.22962E-003	0.00000E+000	3.70030E-001	0.00000E+000	10	...........	1583.82
	64	0.64	4.05441E-001	1.22966E-003	0.00000E+000	3.70030E-001	0.00000E+000	10	...........	1583.82
	65	0.65	4.07777E-001	1.22965E-003	0.00000E+000	3.70030E-001	0.00000E+000	10	...........	1583.82
	66	0.66	4.10135E-001	1.22968E-003	0.00000E+000	3.70030E-001	0.00000E+000	10	...........	1583.82
	67	0.67	4.12469E-001	1.22960E-003	0.00000E+000	3.70030E-001	0.00000E+000	10	...........	1583.82
	68	0.68	4.14803E-001	1.22964E-003	0.00000E+000	3.70030E-001	0.00000E+000	10	...........	1583.82
	69	0.69	4.17153E-001	1.22962E-003	0.00000E+000	3.70030E-001	0.00000E+000	10	...........	1583.82
	70	0.7	4.19504E-001	1.22961E-003	0.00000E+000	3.70030E-001	0.00000E+000	10	...........	1583.82
	71	0.71	4.21830E-001	1.22960E-003	0.00000E+000	3.70030E-001	0.00000E+000	10	...........	1583.82
	72	0.72	4.24190E-001	1.22966E-003	0.00000E+000	3.70030E-001	0.00000E+000	10	...........	1583.82
	73	0.73	4.26539E-001	1.22961E-003	0.00000E+000	3.70030E-001	0.00000E+000	10	...........	1583.82
	74	0.74	4.28882E-001	1.22961E-003	0.00000E+000	3.70030E-001	0.00000E+000	10	...........	1583.82
	75	0.75	4.31251E-001	1.22961E-003	0.00000E+000	3.70030E-001	0.00000E+000	10	...........	1583.82
	76	0.76	4.33592E-001	1.22966E-003	0.00000E+000	3.70030E-001	0.00000E+000	10	...........	1583.82
	77	0.77	4.35996E-001	1.22961E-003	0.00000E+000	3.70030E-001	0.00000E+000	10	...........	1583.82
	78	0.78	4.38354E-001	1.22962E-003	0.00000E+000	3.70030E-001	0.00000E+000	10	...........	1583.82
	79	0.79	4.40715E-001	1.22964E-003	0.00000E+000	3.70030E-001	0.00000E+000	10	...........	1583.82
	80	0.8	4.43080E-001	1.22968E-003	0.00000E+000	3.70030E-001	0.00000E+000	10	...........	1583.82
	81	0.81	4.45460E-001	1.22970E-003	0.00000E+000	3.70030E-001	0.00000E+000	10	...........	1583.82
	82	0.82	4.47815E-001	1.22966E-003	0.00000E+000	3.70030E-001	0.00000E+000	10	...........	1583.82
	83	0.83	4.50184E-001	1.22968E-003	0.00000E+000	3.70030E-001	0.00000E+000	10	...........	1583.82
	84	0.84	4.52574E-001	1.22966E-003	0.00000E+000	3.70030E-001	0.00000E+000	10	...........	1583.82
	85	0.85	4.54953E-001	1.22967E-003	0.00000E+000	3.70030E-001	0.00000E+000	10	...........	1583.82
	86	0.86	4.57319E-001	1.22969E-003	0.00000E+000	3.70030E-001	0.00000E+000	10	...........	1583.82
	87	0.87	4.59731E-001	1.22965E-003	0.00000E+000	3.70030E-001	0.00000E+000	10	...........	1583.82
	88	0.88	4.62140E-001	1.22967E-003	0.00000E+000	3.70030E-001	0.00000E+000	10	...........	1583.82
	89	0.89	4.64509E-001	1.22963E-003	0.00000E+000	3.70030E-001	0.00000E+000	10	...........	1583.82
	90	0.9	4.66890E-001	1.22958E-003	0.00000E+000	3.70030E-001	0.00000E+000	10	...........	1583.82
	91	0.91	4.69284E-001	1.22963E-003	0.00000E+000	3.70030E-001	0.00000E+000	10	...........	1583.82
	92	0.92	4.71668E-001	1.22965E-003	0.00000E+000	3.70030E-001	0.00000E+000	10	...........	1583.82
	93	0.93	4.74091E-001	1.22968E-003	0.00000E+000	3.70030E-001	0.00000E+000	10	...........	1583.82
	94	0.94	4.76478E-001	1.22968E-003	0.00000E+000	3.70030E-001	0.00000E+000	10	...........	1583.82
	95	0.95	4.78871E-001	1.22966E-003	0.00000E+000	3.70030E-001	0.00000E+000	10	...........	1583.82
	96	0.96	4.81268E-001	1.22964E-003	0.00000E+000	3.70030E-001	0.00000E+000	10	...........	1583.82
	97	0.97	4.83680E-001	1.22961E-003	0.00000E+000	3.70030E-001	0.00000E+000	10	...........	1583.82
	98	0.98	4.86074E-001	1.22963E-003	0.00000E+000	3.70030E-001	0.00000E+000	10	...........	1583.82
	99	0.99	4.88483E-001	1.22963E-003	0.00000E+000	3.70030E-001	0.00000E+000	10	...........	1583.82
	100	1	4.90905E-001	1.22961E-003	0.00000E+000	3.70030E-001	0.00000E+000	10	...........	1583.82
	101	1.01	4.93321E-001	1.22967E-003	0.00000E+000	3.70030E-001	0.00000E+000	10	...........	1583.82
	102	1.02	4.95717E-001	1.22965E-003	0.00000E+000	3.70030E-001	0.00000E+000	10	...........	1583.82
	103	1.03	4.98135E-001	1.22963E-003	0.00000E+000	3.70030E-001	0.00000E+000	10	...........	1583.82
	104	1.04	5.00559E-001	1.22969E-003	0.00000E+000	3.70030E-001	0.00000E+000	10	...........	1583.82
	105	1.05	5.02974E-001	1.22971E-003	0.00000E+000	3.70030E-001	0.00000E+000	10	...........	1583.82
	106	1.06	5.05405E-001	1.22970E-003	0.00000E+000	3.70030E-001	0.00000E+000	10	...........	1583.82
	107	1.07	5.07815E-001	1.22971E-003	0.00000E+000	3.70030E-001	0.00000E+000	10	...........	1583.82
	108	1.08	5.10245E-001	1.22973E-003	0.00000E+000	3.70030E-001	0.00000E+000	10	...........	1583.82
	109	1.09	5.12674E-001	1.22963E-003	0.00000E+000	3.70030E-001	0.00000E+000	10	...........	1583.82
	110	1.1	5.15089E-001	1.22960E-003	0.00000E+000	3.70030E-001	0.00000E+000	10	...........	1583.82
	111	1.11	5.17502E-001	1.22961E-003	0.00000E+000	3.70030E-001	0.00000E+000	10	...........	1583.82
	112	1.12	5.19956E-001	1.22965E-003	0.00000E+000	3.70030E-001	0.00000E+000	10	...........	1583.82
	113	1.13	5.22377E-001	1.22964E-003	0.00000E+000	3.70030E-001	0.00000E+000	10	...........	1583.82
	114	1.14	5.24785E-001	1.22958E-003	0.00000E+000	3.70030E-001	0.00000E+000	10	...........	1583.82
	115	1.15	5.27239E-001	1.22968E-003	0.00000E+000	3.70030E-001	0.00000E+000	10	...........	1583.82
	116	1.16	5.29677E-001	1.22963E-003	0.00000E+000	3.70030E-001	0.00000E+000	10	...........	1583.82
	117	1.17	5.32097E-001	1.22966E-003	0.00000E+000	3.70030E-001	0.00000E+000	10	...........	1583.82
	118	1.18	5.34531E-001	1.22966E-003	0.00000E+000	3.70030E-001	0.00000E+000	10	...........	1583.82
	119	1.19	5.36959E-001	1.22960E-003	0.00000E+000	3.70030E-001	0.00000E+000	10	...........	1583.82
	120	1.2	5.39430E-001	1.22966E-003	0.00000E+000	3.70030E-001	0.00000E+000	10	...........	1583.82
	121	1.21	5.41854E-001	1.22963E-003	0.00000E+000	3.70030E-001	0.00000E+000	10	...........	1583.82
	122	1.22	5.44289E-001	1.22962E-003	0.00000E+000	3.70030E-001	0.00000E+000	10	...........	1583.82
	123	1.23	5.46722E-001	1.22967E-003	0.00000E+000	3.70030E-001	0.00000E+000	10	...........	1583.82
	124	1.24	5.49164E-001	1.22965E-003	0.00000E+000	3.70030E-001	0.00000E+000	10	...........	1583.82
	125	1.25	5.51609E-001	1.22963E-003	0.00000E+000	3.70030E-001	0.00000E+000	10	...........	1583.82
	126	1.26	5.54038E-001	1.22956E-003	0.00000E+000	3.70030E-001	0.00000E+000	10	...........	1583.82
	127	1.27	5.56464E-001	1.22959E-003	0.00000E+000	3.70030E-001	0.00000E+000	10	...........	1583.82
	128	1.28	5.58897E-001	1.22961E-003	0.00000E+000	3.70030E-001	0.00000E+000	10	...........	1583.82
	129	1.29	5.61328E-001	1.22958E-003	0.00000E+000	3.70030E-001	0.00000E+000	10	...........	1583.82
	130	1.3	5.63769E-001	1.22958E-003	0.00000E+000	3.70030E-001	0.00000E+000	10	...........	1583.82
	131	1.31	5.66218E-001	1.22958E-003	0.00000E+000	3.70030E-001	0.00000E+000	10	...........	1583.82
	132	1.32	5.68653E-001	1.22962E-003	0.00000E+000	3.70030E-001	0.00000E+000	10	...........	1583.82
	133	1.33	5.71106E-001	1.22961E-003	0.00000E+000	3.70030E-001	0.00000E+000	10	...........	1583.82
	134	1.34	5.73551E-001	1.22968E-003	0.00000E+000	3.70030E-001	0.00000E+000	10	...........	1583.82
	135	1.35	5.75996E-001	1.22967E-003	0.00000E+000	3.70030E-001	0.00000E+000	10	...........	1583.82
	136	1.36	5.78430E-001	1.22964E-003	0.00000E+000	3.70030E-001	0.00000E+000	10	...........	1583.82
	137	1.37	5.80856E-001	1.22960E-003	0.00000E+000	3.70030E-001	0.00000E+000	10	...........	1583.82
	138	1.38	5.83286E-001	1.22958E-003	0.00000E+000	3.70030E-001	0.00000E+000	10	...........	1583.82
	139	1.39	5.85726E-001	1.22960E-003	0.00000E+000	3.70030E-001	0.00000E+000	10	...........	1583.82
	140	1.4	5.88151E-001	1.22958E-003	0.00000E+000	3.70030E-001	0.00000E+000	10	...........	1583.82
	141	1.41	5.90612E-001	1.22962E-003	0.00000E+000	3.70030E-001	0.00000E+000	10	...........	1583.82
	142	1.42	5.93037E-001	1.22962E-003	0.00000E+000	3.70030E-001	0.00000E+000	10	...........	1583.82
	143	1.43	5.95465E-001	1.22958E-003	0.00000E+000	3.70030E-001	0.00000E+000	10	...........	1583.82
	144	1.44	5.97897E-001	1.22965E-003	0.00000E+000	3.70030E-001	0.00000E+000	10	...........	1583.82
	145	1.45	6.00331E-001	1.22960E-003	0.00000E+000	3.70030E-001	0.00000E+000	10	...........	1583.82
	146	1.46	6.02777E-001	1.22964E-003	0.00000E+000	3.70030E-001	0.00000E+000	10	...........	1583.82
	147	1.47	6.05198E-001	1.22964E-003	0.00000E+000	3.70030E-001	0.00000E+000	10	...........	1583.82
	148	1.48	6.07613E-001	1.22960E-003	0.00000E+000	3.70030E-001	0.00000E+000	10	...........	1583.82
	149	1.49	6.10042E-001	1.22962E-003	0.00000E+000	3.70030E-001	0.00000E+000	10	...........	1583.82
	150	1.5	6.12467E-001	1.22963E-003	0.00000E+000	3.70030E-001	0.00000E+000	10	...........	1583.82
	151	1.51	6.14890E-001	1.22958E-003	0.00000E+000	3.70030E-001	0.00000E+000	10	...........	1583.82
	152	1.52	6.17338E-001	1.22965E-003	0.00000E+000	3.70030E-001	0.00000E+000	10	...........	1583.82
	153	1.53	6.19756E-001	1.22967E-003	0.00000E+000	3.70030E-001	0.00000E+000	10	...........	1583.82
	154	1.54	6.22166E-001	1.22964E-003	0.00000E+000	3.70030E-001	0.00000E+000	10	...........	1583.82
	155	1.55	6.24572E-001	1.22966E-003	0.00000E+000	3.70030E-001	0.00000E+000	10	...........	1583.34
	156	1.56	6.26977E-001	1.22960E-003	0.00000E+000	3.70030E-001	0.00000E+000	10	...........	1583.34
	157	1.57	6.29392E-001	1.22963E-003	0.00000E+000	3.70030E-001	0.00000E+000	10	...........	1583.34
	158	1.58	6.31800E-001	1.22963E-003	0.00000E+000	3.70030E-001	0.00000E+000	10	...........	1583.34
	159	1.59	6.34214E-001	1.22961E-003	0.00000E+000	3.70030E-001	0.00000E+000	10	...........	1583.34
	160	1.6	6.36604E-001	1.22967E-003	0.00000E+000	3.70030E-001	0.00000E+000	10	...........	1583.34
	161	1.61	6.39001E-001	1.22962E-003	0.00000E+000	3.70030E-001	0.00000E+000	10	...........	1583.34
	162	1.62	6.41426E-001	1.22964E-003	0.00000E+000	3.70030E-001	0.00000E+000	10	...........	1583.34
	163	1.63	6.43801E-001	1.22964E-003	0.00000E+000	3.70030E-001	0.00000E+000	10	...........	1583.34
	164	1.64	6.46176E-001	1.22961E-003	0.00000E+000	3.70030E-001	0.00000E+000	10	...........	1583.34
	165	1.65	6.48544E-001	1.22960E-003	0.00000E+000	3.70030E-001	0.00000E+000	10	...........	1583.34
	166	1.66	6.50924E-001	1.22966E-003	0.00000E+000	3.70030E-001	0.00000E+000	10	...........	1583.34
	167	1.67	6.53328E-001	1.22968E-003	0.00000E+000	3.70030E-001	0.00000E+000	10	...........	1583.34
	168	1.68	6.55705E-001	1.22971E-003	0.00000E+000	3.70030E-001	0.00000E+000	10	...........	1583.34
	169	1.69	6.58051E-001	1.22964E-003	0.00000E+000	3.70030E-001	0.00000E+000	10	...........	1583.34
	170	1.7	6.60418E-001	1.22963E-003	0.00000E+000	3.70030E-001	0.00000E+000	10	...........	1583.34
	171	1.71	6.62751E-001	1.22967E-003	0.00000E+000	3.70030E-001	0.00000E+000	10	...........	1583.34
	172	1.72	6.65092E-001	1.22962E-003	0.00000E+000	3.70030E-001	0.00000E+000	10	...........	1583.34
	173	1.73	6.67472E-001	1.22955E-003	0.00000E+000	3.70030E-001	0.00000E+000	10	...........	1583.34
	174	1.74	6.69829E-001	1.22960E-003	0.00000E+000	3.70030E-001	0.00000E+000	10	...........	1583.34
	175	1.75	6.72148E-001	1.22957E-003	0.00000E+000	3.70030E-001	0.00000E+000	10	...........	1583.34
	176	1.76	6.74499E-001	1.22961E-003	0.00000E+000	3.70030E-001	0.00000E+000	10	...........	1583.34
	177	1.77	6.76812E-001	1.22961E-003	0.00000E+000	3.70030E-001	0.00000E+000	10	...........	1583.34
	178	1.78	6.79167E-001	1.22955E-003	0.00000E+000	3.70030E-001	0.00000E+000	10	...........	1583.34
	179	1.79	6.81466E-001	1.22961E-003	0.00000E+000	3.70030E-001	0.00000E+000	10	...........	1583.34
	180	1.8	6.83770E-001	1.22960E-003	0.00000E+000	3.70030E-001	0.00000E+000	10	...........	1583.34
	181	1.81	6.86069E-001	1.22962E-003	0.00000E+000	3.70030E-001	0.00000E+000	10	...........	1583.34
	182	1.82	6.88382E-001	1.22960E-003	0.00000E+000	3.70030E-001	0.00000E+000	10	...........	1583.34
	183	1.83	6.90668E-001	1.22962E-003	0.00000E+000	3.70030E-001	0.00000E+000	10	...........	1583.34
	184	1.84	6.92985E-001	1.22960E-003	0.00000E+000	3.70030E-001	0.00000E+000	10	...........	1583.34
	185	1.85	6.95254E-001	1.22964E-003	0.00000E+000	3.70030E-001	0.00000E+000	10	...........	1583.34
	186	1.86	6.97531E-001	1.22963E-003	0.00000E+000	3.70030E-001	0.00000E+000	10	...........	1583.34
	187	1.87	6.99808E-001	1.22964E-003	0.00000E+000	3.70030E-001	0.00000E+000	10	...........	1583.34
	188	1.88	7.02074E-001	1.22967E-003	0.00000E+000	3.70030E-001	0.00000E+000	10	...........	1583.34
	189	1.89	7.04341E-001	1.22961E-003	0.00000E+000	3.70030E-001	0.00000E+000	10	...........	1583.34
	190	1.9	7.06550E-001	1.22958E-003	0.00000E+000	3.70030E-001	0.00000E+000	10	...........	1583.34
	191	1.91	7.08795E-001	1.22961E-003	0.00000E+000	3.70030E-001	0.00000E+000	10	...........	1583.34
	192	1.92	7.11041E-001	1.22961E-003	0.00000E+000	3.70030E-001	0.00000E+000	10	...........	1583.34
	193	1.93	7.13275E-001	1.22963E-003	0.00000E+000	3.70030E-001	0.00000E+000	10	...........	1583.34
	194	1.94	7.15487E-001	1.22964E-003	0.00000E+000	3.70030E-001	0.00000E+000	10	...........	1583.34
	195	1.95	7.17713E-001	1.22961E-003	0.00000E+000	3.70030E-001	0.00000E+000	10	...........	1583.34
	196	1.96	7.19907E-001	1.22959E-003	0.00000E+000	3.70030E-001	0.00000E+000	10	...........	1583.34
	197	1.97	7.22108E-001	1.22963E-003	0.00000E+000	3.70030E-001	0.00000E+000	10	...........	1583.34
	198	1.98	7.24296E-001	1.22958E-003	0.00000E+000	3.70030E-001	0.00000E+000	10	...........	1583.34
	199	1.99	7.26457E-001	1.22958E-003	0.00000E+000	3.70030E-001	0.00000E+000	10	...........	1583.34
	200	2	7.28638E-001	1.22957E-003	0.00000E+000	3.70030E-001	0.00000E+000	10	...........	1583.34
	201	2.01	7.30821E-001	1.22963E-003	0.00000E+000	3.70030E-001	0.00000E+000	10	...........	1583.34
	202	2.02	7.32955E-001	1.22961E-003	0.00000E+000	3.70030E-001	0.00000E+000	10	...........	1583.34
	203	2.03	7.35101E-001	1.22965E-003	0.00000E+000	3.70030E-001	0.00000E+000	10	...........	1583.34
	204	2.04	7.37247E-001	1.22959E-003	0.00000E+000	3.70030E-001	0.00000E+000	10	...........	1583.34
	205	2.05	7.39347E-001	1.22963E-003	0.00000E+000	3.70030E-001	0.00000E+000	10	...........	1583.34
	206	2.06	7.41472E-001	1.22960E-003	0.00000E+000	3.70030E-001	0.00000E+000	10	...........	1583.34
	207	2.07	7.43603E-001	1.22959E-003	0.00000E+000	3.70030E-001	0.00000E+000	10	...........	1583.34
	208	2.08	7.45730E-001	1.22969E-003	0.00000E+000	3.70030E-001	0.00000E+000	10	...........	1583.34
	209	2.09	7.47841E-001	1.22967E-003	0.00000E+000	3.70030E-001	0.00000E+000	10	...........	1583.34
	210	2.1	7.49884E-001	1.22961E-003	0.00000E+000	3.70030E-001	0.00000E+000	10	...........	1583.34
	211	2.11	7.51939E-001	1.22957E-003	0.00000E+000	3.70030E-001	0.00000E+000	10	...........	1583.34
	212	2.12	7.53998E-001	1.22960E-003	0.00000E+000	3.70030E-001	0.00000E+000	10	...........	1583.34
	213	2.13	7.56059E-001	1.22959E-003	0.00000E+000	3.70030E-001	0.00000E+000	10	...........	1583.34
	214	2.14	7.58090E-001	1.22959E-003	0.00000E+000	3.70030E-001	0.00000E+000	10	...........	1583.34
	215	2.15	7.60119E-001	1.22962E-003	0.00000E+000	3.70030E-001	0.00000E+000	10	...........	1583.34
	216	2.16	7.62144E-001	1.22960E-003	0.00000E+000	3.70030E-001	0.00000E+000	10	...........	1583.34
	217	2.17	7.64159E-001	1.22959E-003	0.00000E+000	3.70030E-001	0.00000E+000	10	...........	1583.34
	218	2.18	7.66155E-001	1.22962E-003	0.00000E+000	3.70030E-001	0.00000E+000	10	...........	1583.34
	219	2.19	7.68161E-001	1.22968E-003	0.00000E+000	3.70030E-001	0.00000E+000	10	...........	1583.34
	220	2.2	7.70174E-001	1.22969E-003	0.00000E+000	3.70030E-001	0.00000E+000	10	...........	1583.34
	221	2.21	7.72127E-001	1.22970E-003	0.00000E+000	3.70030E-001	0.00000E+000	10	...........	1583.34
	222	2.22	7.74069E-001	1.22958E-003	0.00000E+000	3.70030E-001	0.00000E+000	10	...........	1583.34
	223	2.23	7.76022E-001	1.22964E-003	0.00000E+000	3.70030E-001	0.00000E+000	10	...........	1583.34
	224	2.24	7.77965E-001	1.22969E-003	0.00000E+000	3.70030E-001	0.00000E+000	10	...........	1583.34
	225	2.25	7.79904E-001	1.22967E-003	0.00000E+000	3.70030E-001	0.00000E+000	10	...........	1583.34
	226	2.26	7.81830E-001	1.22962E-003	0.00000E+000	3.70030E-001	0.00000E+000	10	...........	1583.34
	227	2.27	7.83721E-001	1.22965E-003	0.00000E+000	3.70030E-001	0.00000E+000	10	...........	1583.34
	228	2.28	7.85614E-001	1.22966E-003	0.00000E+000	3.70030E-001	0.00000E+000	10	...........	1583.34
	229	2.29	7.87512E-001	1.22963E-003	0.00000E+000	3.70030E-001	0.00000E+000	10	...........	1583.34
	230	2.3	7.89373E-001	1.22960E-003	0.00000E+000	3.70030E-001	0.00000E+000	10	...........	1583.34
	231	2.31	7.91235E-001	1.22968E-003	0.00000E+000	3.70030E-001	0.00000E+000	10	...........	1583.34
	232	2.32	7.93098E-001	1.22969E-003	0.00000E+000	3.70030E-001	0.00000E+000	10	...........	1583.34
	233	2.33	7.94953E-001	1.22964E-003	0.00000E+000	3.70030E-001	0.00000E+000	10	...........	1583.34
	234	2.34	7.96775E-001	1.22960E-003	0.00000E+000	3.70030E-001	0.00000E+000	10	...........	1583.34
	235	2.35	7.98598E-001	1.22961E-003	0.00000E+000	3.70030E-001	0.00000E+000	10	...........	1583.34
	236	2.36	8.00419E-001	1.22960E-003	0.00000E+000	3.70030E-001	0.00000E+000	10	...........	1583.34
	237	2.37	8.02200E-001	1.22966E-003	0.00000E+000	3.70030E-001	0.00000E+000	10	...........	1583.34
	238	2.38	8.03968E-001	1.22959E-003	0.00000E+000	3.70030E-001	0.00000E+000	10	...........	1583.34
	239	2.39	7.69835E-001	-1.22977E-003	0.00000E+000	-3.70030E-001	0.00000E+000	10	...........	1583.34
	240	2.4	7.63818E-001	-1.22986E-003	0.00000E+000	-3.70030E-001	0.00000E+000	10	...........	1583.34
	241	2.41	7.58873E-001	-1.22991E-003	0.00000E+000	-3.70030E-001	0.00000E+000	10	...........	1583.34
	242	2.42	7.54369E-001	-1.22993E-003	0.00000E+000	-3.70030E-001	0.00000E+000	10	...........	1583.34
	243	2.43	7.50180E-001	-1.22992E-003	0.00000E+000	-3.70030E-001	0.00000E+000	10	...........	1583.34
	244	2.44	7.46192E-001	-1.22992E-003	0.00000E+000	-3.70030E-001	0.00000E+000	10	...........	1583.34
	245	2.45	7.42290E-001	-1.23002E-003	0.00000E+000	-3.70030E-001	0.00000E+000	10	...........	1583.34
	246	2.46	7.38540E-001	-1.22999E-003	0.00000E+000	-3.70030E-001	0.00000E+000	10	...........	1583.34
	247	2.47	7.34881E-001	-1.22997E-003	0.00000E+000	-3.70030E-001	0.00000E+000	10	...........	1583.34
	248	2.48	7.31272E-001	-1.22998E-003	0.00000E+000	-3.70030E-001	0.00000E+000	10	...........	1583.34
	249	2.49	7.27708E-001	-1.23000E-003	0.00000E+000	-3.70030E-001	0.00000E+000	10	...........	1583.34
	250	2.5	7.24229E-001	-1.23001E-003	0.00000E+000	-3.70030E-001	0.00000E+000	10	...........	1583.34
	251	2.51	7.20776E-001	-1.23001E-003	0.00000E+000	-3.70030E-001	0.00000E+000	10	...........	1583.34
	252	2.52	7.17343E-001	-1.23001E-003	0.00000E+000	-3.70030E-001	0.00000E+000	10	...........	1583.34
	253	2.53	7.13948E-001	-1.23002E-003	0.00000E+000	-3.70030E-001	0.00000E+000	10	...........	1583.34
	254	2.54	7.10576E-001	-1.23002E-003	0.00000E+000	-3.70030E-001	0.00000E+000	10	...........	1583.34
	255	2.55	7.07260E-001	-1.23004E-003	0.00000E+000	-3.70030E-001	0.00000E+000	10	...........	1583.25
	256	2.56	7.03929E-001	-1.23006E-003	0.00000E+000	-3.70030E-001	0.00000E+000	10	...........	1583.25
	257	2.57	7.00628E-001	-1.23005E-003	0.00000E+000	-3.70030E-001	0.00000E+000	10	...........	1583.25
	258	2.58	6.97314E-001	-1.23013E-003	0.00000E+000	-3.70030E-001	0.00000E+000	10	...........	1583.25
	259	2.59	6.94074E-001	-1.23004E-003	0.00000E+000	-3.70030E-001	0.00000E+000	10	...........	1583.25
	260	2.6	6.90781E-001	-1.23011E-003	0.00000E+000	-3.70030E-001	0.00000E+000	10	...........	1583.25
	261	2.61	6.87555E-001	-1.23007E-003	0.00000E+000	-3.70030E-001	0.00000E+000	10	...........	1583.25
	262	2.62	6.84328E-001	-1.23011E-003	0.00000E+000	-3.70030E-001	0.00000E+000	10	...........	1583.25
	263	2.63	6.81116E-001	-1.23007E-003	0.00000E+000	-3.70030E-001	0.00000E+000	10	...........	1583.25
	264	2.64	6.77916E-001	-1.23006E-003	0.00000E+000	-3.70030E-001	0.00000E+000	10	...........	1583.25
	265	2.65	6.74727E-001	-1.23003E-003	0.00000E+000	-3.70030E-001	0.00000E+000	10	...........	1583.25
	266	2.66	6.71544E-001	-1.23008E-003	0.00000E+000	-3.70030E-001	0.00000E+000	10	...........	1583.25
	267	2.67	6.68355E-001	-1.23011E-003	0.00000E+000	-3.70030E-001	0.00000E+000	10	...........	1583.25
	268	2.68	6.65147E-001	-1.23013E-003	0.00000E+000	-3.70030E-001	0.00000E+000	10	...........	1583.25
	269	2.69	6.62003E-001	-1.23009E-003	0.00000E+000	-3.70030E-001	0.00000E+000	10	...........	1583.25
	270	2.7	6.58851E-001	-1.23009E-003	0.00000E+000	-3.70030E-001	0.00000E+000	10	...........	1583.25
	271	2.71	6.55700E-001	-1.23014E-003	0.00000E+000	-3.70030E-001	0.00000E+000	10	...........	1583.25
	272	2.72	6.52560E-001	-1.23009E-003	0.00000E+000	-3.70030E-001	0.00000E+000	10	...........	1583.25
	273	2.73	6.49441E-001	-1.23008E-003	0.00000E+000	-3.70030E-001	0.00000E+000	10	...........	1583.25
	274	2.74	6.46327E-001	-1.23011E-003	0.00000E+000	-3.70030E-001	0.00000E+000	10	...........	1583.25
	275	2.75	6.43228E-001	-1.23011E-003	0.00000E+000	-3.70030E-001	0.00000E+000	10	...........	1583.25
	276	2.76	6.40104E-001	-1.23010E-003	0.00000E+000	-3.70030E-001	0.00000E+000	10	...........	1583.25
	277	2.77	6.36997E-001	-1.23011E-003	0.00000E+000	-3.70030E-001	0.00000E+000	10	...........	1583.25
	278	2.78	6.33921E-001	-1.23011E-003	0.00000E+000	-3.70030E-001	0.00000E+000	10	...........	1583.25
	279	2.79	6.30840E-001	-1.23013E-003	0.00000E+000	-3.70030E-001	0.00000E+000	10	...........	1583.25
	280	2.8	6.27788E-001	-1.23007E-003	0.00000E+000	-3.70030E-001	0.00000E+000	10	...........	1583.25
	281	2.81	6.24692E-001	-1.23011E-003	0.00000E+000	-3.70030E-001	0.00000E+000	10	...........	1583.25
	282	2.82	6.21657E-001	-1.23012E-003	0.00000E+000	-3.70030E-001	0.00000E+000	10	...........	1583.25
	283	2.83	6.18607E-001	-1.23010E-003	0.00000E+000	-3.70030E-001	0.00000E+000	10	...........	1583.25
	284	2.84	6.15559E-001	-1.23011E-003	0.00000E+000	-3.70030E-001	0.00000E+000	10	...........	1583.25
	285	2.85	6.12485E-001	-1.23016E-003	0.00000E+000	-3.70030E-001	0.00000E+000	10	...........	1583.25
	286	2.86	6.09483E-001	-1.23006E-003	0.00000E+000	-3.70030E-001	0.00000E+000	10	...........	1583.25
	287	2.87	6.06460E-001	-1.23006E-003	0.00000E+000	-3.70030E-001	0.00000E+000	10	...........	1583.25
	288	2.88	6.03486E-001	-1.23002E-003	0.00000E+000	-3.70030E-001	0.00000E+000	10	...........	1583.25
	289	2.89	6.00457E-001	-1.23010E-003	0.00000E+000	-3.70030E-001	0.00000E+000	10	...........	1583.25
	290	2.9	5.97469E-001	-1.23007E-003	0.00000E+000	-3.70030E-001	0.00000E+000	10	...........	1583.25
	291	2.91	5.94473E-001	-1.23011E-003	0.00000E+000	-3.70030E-001	0.00000E+000	10	...........	1583.25
	292	2.92	5.91477E-001	-1.23015E-003	0.00000E+000	-3.70030E-001	0.00000E+000	10	...........	1583.25
	293	2.93	5.88490E-001	-1.23015E-003	0.00000E+000	-3.70030E-001	0.00000E+000	10	...........	1583.25
	294	2.94	5.85539E-001	-1.23013E-003	0.00000E+000	-3.70030E-001	0.00000E+000	10	...........	1583.25
	295	2.95	5.82584E-001	-1.23009E-003	0.00000E+000	-3.70030E-001	0.00000E+000	10	...........	1583.25
	296	2.96	5.79659E-001	-1.23012E-003	0.00000E+000	-3.70030E-001	0.00000E+000	10	...........	1583.25
	297	2.97	5.76700E-001	-1.23013E-003	0.00000E+000	-3.70030E-001	0.00000E+000	10	...........	1583.25
	298	2.98	5.73760E-001	-1.23015E-003	0.00000E+000	-3.70030E-001	0.00000E+000	10	...........	1583.25
	299	2.99	5.70828E-001	-1.23013E-003	0.00000E+000	-3.70030E-001	0.00000E+000	10	...........	1583.25
	300	3	5.67916E-001	-1.23017E-003	0.00000E+000	-3.70030E-001	0.00000E+000	10	...........	1583.25
	301	3.01	5.65026E-001	-1.23010E-003	0.00000E+000	-3.70030E-001	0.00000E+000	10	...........	1583.25
	302	3.02	5.62095E-001	-1.23011E-003	0.00000E+000	-3.70030E-001	0.00000E+000	10	...........	1583.25
	303	3.03	5.59205E-001	-1.23015E-003	0.00000E+000	-3.70030E-001	0.00000E+000	10	...........	1583.25
	304	3.04	5.56330E-001	-1.23017E-003	0.00000E+000	-3.70030E-001	0.00000E+000	10	...........	1583.25
	305	3.05	5.53463E-001	-1.23016E-003	0.00000E+000	-3.70030E-001	0.00000E+000	10	...........	1583.25
	306	3.06	5.50604E-001	-1.23015E-003	0.00000E+000	-3.70030E-001	0.00000E+000	10	...........	1583.25
	307	3.07	5.47748E-001	-1.23013E-003	0.00000E+000	-3.70030E-001	0.00000E+000	10	...........	1583.25
	308	3.08	5.44915E-001	-1.23015E-003	0.00000E+000	-3.70030E-001	0.00000E+000	10	...........	1583.25
	309	3.09	5.42048E-001	-1.23012E-003	0.00000E+000	-3.70030E-001	0.00000E+000	10	...........	1583.25
	310	3.1	5.39218E-001	-1.23017E-003	0.00000E+000	-3.70030E-001	0.00000E+000	10	...........	1583.25
	311	3.11	5.36387E-001	-1.23014E-003	0.00000E+000	-3.70030E-001	0.00000E+000	10	...........	1583.25
	312	3.12	5.33574E-001	-1.23015E-003	0.00000E+000	-3.70030E-001	0.00000E+000	10	...........	1583.25
	313	3.13	5.30767E-001	-1.23013E-003	0.00000E+000	-3.70030E-001	0.00000E+000	10	...........	1583.25
	314	3.14	5.27961E-001	-1.23015E-003	0.00000E+000	-3.70030E-001	0.00000E+000	10	...........	1583.25
	315	3.15	5.25175E-001	-1.23014E-003	0.00000E+000	-3.70030E-001	0.00000E+000	10	...........	1583.25
	316	3.16	5.22391E-001	-1.23014E-003	0.00000E+000	-3.70030E-001	0.00000E+000	10	...........	1583.25
	317	3.17	5.19634E-001	-1.23012E-003	0.00000E+000	-3.70030E-001	0.00000E+000	10	...........	1583.25
	318	3.18	5.16863E-001	-1.23016E-003	0.00000E+000	-3.70030E-001	0.00000E+000	10	...........	1583.25
	319	3.19	5.14112E-001	-1.23009E-003	0.00000E+000	-3.70030E-001	0.00000E+000	10	...........	1583.25
	320	3.2	5.11343E-001	-1.23009E-003	0.00000E+000	-3.70030E-001	0.00000E+000	10	...........	1583.25
	321	3.21	5.08584E-001	-1.23009E-003	0.00000E+000	-3.70030E-001	0.00000E+000	10	...........	1583.25
	322	3.22	5.05867E-001	-1.23016E-003	0.00000E+000	-3.70030E-001	0.00000E+000	10	...........	1583.25
	323	3.23	5.03135E-001	-1.23011E-003	0.00000E+000	-3.70030E-001	0.00000E+000	10	...........	1583.25
	324	3.24	5.00423E-001	-1.23012E-003	0.00000E+000	-3.70030E-001	0.00000E+000	10	...........	1583.25
	325	3.25	4.97709E-001	-1.23017E-003	0.00000E+000	-3.70030E-001	0.00000E+000	10	...........	1583.25
	326	3.26	4.95005E-001	-1.23014E-003	0.00000E+000	-3.70030E-001	0.00000E+000	10	...........	1583.25
	327	3.27	4.92320E-001	-1.23011E-003	0.00000E+000	-3.70030E-001	0.00000E+000	10	...........	1583.25
	328	3.28	4.89633E-001	-1.23010E-003	0.00000E+000	-3.70030E-001	0.00000E+000	10	...........	1583.25
	329	3.29	4.86942E-001	-1.23016E-003	0.00000E+000	-3.70030E-001	0.00000E+000	10	...........	1583.25
	330	3.3	4.84263E-001	-1.23014E-003	0.00000E+000	-3.70030E-001	0.00000E+000	10	...........	1583.25
	331	3.31	4.81599E-001	-1.23010E-003	0.00000E+000	-3.70030E-001	0.00000E+000	10	...........	1583.25
	332	3.32	4.78950E-001	-1.23016E-003	0.00000E+000	-3.70030E-001	0.00000E+000	10	...........	1583.25
	333	3.33	4.76319E-001	-1.23010E-003	0.00000E+000	-3.70030E-001	0.00000E+000	10	...........	1583.25
	334	3.34	4.73671E-001	-1.23015E-003	0.00000E+000	-3.70030E-001	0.00000E+000	10	...........	1583.25
	335	3.35	4.71045E-001	-1.23011E-003	0.00000E+000	-3.70030E-001	0.00000E+000	10	...........	1583.25
	336	3.36	4.68423E-001	-1.23011E-003	0.00000E+000	-3.70030E-001	0.00000E+000	10	...........	1583.25
	337	3.37	4.65811E-001	-1.23014E-003	0.00000E+000	-3.70030E-001	0.00000E+000	10	...........	1583.25
	338	3.38	4.63203E-001	-1.23014E-003	0.00000E+000	-3.70030E-001	0.00000E+000	10	...........	1583.25
	339	3.39	4.60577E-001	-1.23014E-003	0.00000E+000	-3.70030E-001	0.00000E+000	10	...........	1583.25
	340	3.4	4.57996E-001	-1.23017E-003	0.00000E+000	-3.70030E-001	0.00000E+000	10	...........	1583.25
	341	3.41	4.55403E-001	-1.23016E-003	0.00000E+000	-3.70030E-001	0.00000E+000	10	...........	1583.25
	342	3.42	4.52827E-001	-1.23020E-003	0.00000E+000	-3.70030E-001	0.00000E+000	10	...........	1583.25
	343	3.43	4.50261E-001	-1.23017E-003	0.00000E+000	-3.70030E-001	0.00000E+000	10	...........	1583.25
	344	3.44	4.47686E-001	-1.23020E-003	0.00000E+000	-3.70030E-001	0.00000E+000	10	...........	1583.25
	345	3.45	4.45145E-001	-1.23012E-003	0.00000E+000	-3.70030E-001	0.00000E+000	10	...........	1583.25
	346	3.46	4.42612E-001	-1.23018E-003	0.00000E+000	-3.70030E-001	0.00000E+000	10	...........	1583.25
	347	3.47	4.40078E-001	-1.23011E-003	0.00000E+000	-3.70030E-001	0.00000E+000	10	...........	1583.25
	348	3.48	4.37543E-001	-1.23012E-003	0.00000E+000	-3.70030E-001	0.00000E+000	10	...........	1583.25
	349	3.49	4.35010E-001	-1.23012E-003	0.00000E+000	-3.70030E-001	0.00000E+000	10	...........	1583.25
	350	3.5	4.32488E-001	-1.23011E-003	0.00000E+000	-3.70030E-001	0.00000E+000	10	...........	1583.25
	351	3.51	4.29968E-001	-1.23013E-003	0.00000E+000	-3.70030E-001	0.00000E+000	10	...........	1583.25
	352	3.52	4.27453E-001	-1.23014E-003	0.00000E+000	-3.70030E-001	0.00000E+000	10	...........	1583.25
	353	3.53	4.24973E-001	-1.23019E-003	0.00000E+000	-3.70030E-001	0.00000E+000	10	...........	1583.25
	354	3.54	4.22477E-001	-1.23010E-003	0.00000E+000	-3.70030E-001	0.00000E+000	10	...........	1583.25
	355	3.55	4.19989E-001	-1.23007E-003	0.00000E+000	-3.70030E-001	0.00000E+000	10	...........	1583.25
	356	3.56	4.17516E-001	-1.23009E-003	0.00000E+000	-3.70030E-001	0.00000E+000	10	...........	1583.25
	357	3.57	4.15041E-001	-1.23016E-003	0.00000E+000	-3.70030E-001	0.00000E+000	10	...........	1583.25
	358	3.58	4.12590E-001	-1.23009E-003	0.00000E+000	-3.70030E-001	0.00000E+000	10	...........	1583.25
	359	3.59	4.10146E-001	-1.23009E-003	0.00000E+000	-3.70030E-001	0.00000E+000	10	...........	1583.25
	360	3.6	4.07676E-001	-1.23009E-003	0.00000E+000	-3.70030E-001	0.00000E+000	10	...........	1583.25
	361	3.61	4.05230E-001	-1.23011E-003	0.00000E+000	-3.70030E-001	0.00000E+000	10	...........	1583.25
	362	3.62	4.02780E-001	-1.23008E-003	0.00000E+000	-3.70030E-001	0.00000E+000	10	...........	1583.25
	363	3.63	4.00383E-001	-1.23012E-003	0.00000E+000	-3.70030E-001	0.00000E+000	10	...........	1583.25
	364	3.64	3.97972E-001	-1.23009E-003	0.00000E+000	-3.70030E-001	0.00000E+000	10	...........	1583.25
	365	3.65	3.95540E-001	-1.23007E-003	0.00000E+000	-3.70030E-001	0.00000E+000	10	...........	1583.25
	366	3.66	3.93107E-001	-1.23013E-003	0.00000E+000	-3.70030E-001	0.00000E+000	10	...........	1583.25
	367	3.67	3.90702E-001	-1.23014E-003	0.00000E+000	-3.70030E-001	0.00000E+000	10	...........	1583.25
	368	3.68	3.88322E-001	-1.23010E-003	0.00000E+000	-3.70030E-001	0.00000E+000	10	...........	1583.25
	369	3.69	3.85935E-001	-1.23011E-003	0.00000E+000	-3.70030E-001	0.00000E+000	10	...........	1583.25
	370	3.7	3.83516E-001	-1.23007E-003	0.00000E+000	-3.70030E-001	0.00000E+000	10	...........	1583.25
	371	3.71	3.81130E-001	-1.23015E-003	0.00000E+000	-3.70030E-001	0.00000E+000	10	...........	1583.25
	372	3.72	3.78785E-001	-1.23011E-003	0.00000E+000	-3.70030E-001	0.00000E+000	10	...........	1583.25
	373	3.73	3.76413E-001	-1.23010E-003	0.00000E+000	-3.70030E-001	0.00000E+000	10	...........	1583.25
	374	3.74	3.74045E-001	-1.23019E-003	0.00000E+000	-3.70030E-001	0.00000E+000	10	...........	1583.25
	375	3.75	3.71707E-001	-1.23016E-003	0.00000E+000	-3.70030E-001	0.00000E+000	10	...........	1583.25
	376	3.76	3.69331E-001	-1.23017E-003	0.00000E+000	-3.70030E-001	0.00000E+000	10	...........	1583.25
	377	3.77	3.67006E-001	-1.23015E-003	0.00000E+000	-3.70030E-001	0.00000E+000	10	...........	1583.25
	378	3.78	3.64675E-001	-1.23014E-003	0.00000E+000	-3.70030E-001	0.00000E+000	10	...........	1583.25
	379	3.79	3.62344E-001	-1.23010E-003	0.00000E+000	-3.70030E-001	0.00000E+000	10	...........	1583.25
	380	3.8	3.60013E-001	-1.23011E-003	0.00000E+000	-3.70030E-001	0.00000E+000	10	...........	1583.25
	381	3.81	3.57665E-001	-1.23011E-003	0.00000E+000	-3.70030E-001	0.00000E+000	10	...........	1583.25
	382	3.82	3.55359E-001	-1.23012E-003	0.00000E+000	-3.70030E-001	0.00000E+000	10	...........	1583.25
	383	3.83	3.53041E-001	-1.23012E-003	0.00000E+000	-3.70030E-001	0.00000E+000	10	...........	1583.25
	384	3.84	3.50744E-001	-1.23011E-003	0.00000E+000	-3.70030E-001	0.00000E+000	10	...........	1583.25
	385	3.85	3.48461E-001	-1.23015E-003	0.00000E+000	-3.70030E-001	0.00000E+000	10	...........	1583.25
	386	3.86	3.46187E-001	-1.23010E-003	0.00000E+000	-3.70030E-001	0.00000E+000	10	...........	1583.25
	387	3.87	3.43899E-001	-1.23011E-003	0.00000E+000	-3.70030E-001	0.00000E+000	10	...........	1583.25
	388	3.88	3.41618E-001	-1.23008E-003	0.00000E+000	-3.70030E-001	0.00000E+000	10	...........	1583.25
	389	3.89	3.39367E-001	-1.23005E-003	0.00000E+000	-3.70030E-001	0.00000E+000	10	...........	1583.25
	390	3.9	3.37094E-001	-1.23008E-003	0.00000E+000	-3.70030E-001	0.00000E+000	10	...........	1583.25
	391	3.91	3.34830E-001	-1.23009E-003	0.00000E+000	-3.70030E-001	0.00000E+000	10	...........	1583.25
	392	3.92	3.32551E-001	-1.23012E-003	0.00000E+000	-3.70030E-001	0.00000E+000	10	...........	1583.25
	393	3.93	3.30295E-001	-1.23010E-003	0.00000E+000	-3.70030E-001	0.00000E+000	10	...........	1583.25
	394	3.94	3.28069E-001	-1.23010E-003	0.00000E+000	-3.70030E-001	0.00000E+000	10	...........	1583.25
	395	3.95	3.25835E-001	-1.23011E-003	0.00000E+000	-3.70030E-001	0.00000E+000	10	...........	1583.25
	396	3.96	3.23590E-001	-1.23016E-003	0.00000E+000	-3.70030E-001	0.00000E+000	10	...........	1583.25
	397	3.97	3.21365E-001	-1.23020E-003	0.00000E+000	-3.70030E-001	0.00000E+000	10	...........	1583.25
	398	3.98	3.19132E-001	-1.23020E-003	0.00000E+000	-3.70030E-001	0.00000E+000	10	...........	1583.25
	399	3.99	3.16914E-001	-1.23016E-003	0.00000E+000	-3.70030E-001	0.00000E+000	10	...........	1583.25
	400	4	3.14749E-001	-1.23012E-003	0.00000E+000	-3.70030E-001	0.00000E+000	10	...........	1583.25
	401	4.01	3.12530E-001	-1.23009E-003	0.00000E+000	-3.70030E-001	0.00000E+000	10	...........	1583.25
	402	4.02	3.10318E-001	-1.23014E-003	0.00000E+000	-3.70030E-001	0.00000E+000	10	...........	1583.25
	403	4.03	3.08146E-001	-1.23020E-003	0.00000E+000	-3.70030E-001	0.00000E+000	10	...........	1583.25
	404	4.04	3.05904E-001	-1.23016E-003	0.00000E+000	-3.70030E-001	0.00000E+000	10	...........	1583.25
	405	4.05	3.03749E-001	-1.23008E-003	0.00000E+000	-3.70030E-001	0.00000E+000	10	...........	1583.25
	406	4.06	3.01573E-001	-1.23012E-003	0.00000E+000	-3.70030E-001	0.00000E+000	10	...........	1583.25
	407	4.07	2.99387E-001	-1.23016E-003	0.00000E+000	-3.70030E-001	0.00000E+000	10	...........	1583.25
	408	4.08	2.97216E-001	-1.23019E-003	0.00000E+000	-3.70030E-001	0.00000E+000	10	...........	1583.25
	409	4.09	2.95061E-001	-1.23015E-003	0.00000E+000	-3.70030E-001	0.00000E+000	10	...........	1583.25
	410	4.1	2.92888E-001	-1.23015E-003	0.00000E+000	-3.70030E-001	0.00000E+000	10	...........	1583.25
	411	4.11	2.90754E-001	-1.23014E-003	0.00000E+000	-3.70030E-001	0.00000E+000	10	...........	1583.25
	412	4.12	2.88616E-001	-1.23015E-003	0.00000E+000	-3.70030E-001	0.00000E+000	10	...........	1583.25
	413	4.13	2.86463E-001	-1.23012E-003	0.00000E+000	-3.70030E-001	0.00000E+000	10	...........	1583.25
	414	4.14	2.84335E-001	-1.23013E-003	0.00000E+000	-3.70030E-001	0.00000E+000	10	...........	1583.25
	415	4.15	2.82198E-001	-1.23015E-003	0.00000E+000	-3.70030E-001	0.00000E+000	10	...........	1583.25
	416	4.16	2.80070E-001	-1.23013E-003	0.00000E+000	-3.70030E-001	0.00000E+000	10	...........	1583.25
	417	4.17	2.77949E-001	-1.23014E-003	0.00000E+000	-3.70030E-001	0.00000E+000	10	...........	1583.25
	418	4.18	2.75835E-001	-1.23014E-003	0.00000E+000	-3.70030E-001	0.00000E+000	10	...........	1583.25
	419	4.19	2.73722E-001	-1.23016E-003	0.00000E+000	-3.70030E-001	0.00000E+000	10	...........	1583.25
	420	4.2	2.71622E-001	-1.23020E-003	0.00000E+000	-3.70030E-001	0.00000E+000	10	...........	1583.25
	421	4.21	2.69533E-001	-1.23019E-003	0.00000E+000	-3.70030E-001	0.00000E+000	10	...........	1583.25
	422	4.22	2.67423E-001	-1.23022E-003	0.00000E+000	-3.70030E-001	0.00000E+000	10	...........	1583.25
	423	4.23	2.65331E-001	-1.23011E-003	0.00000E+000	-3.70030E-001	0.00000E+000	10	...........	1583.25
	424	4.24	2.63258E-001	-1.23015E-003	0.00000E+000	-3.70030E-001	0.00000E+000	10	...........	1583.25
	425	4.25	2.61178E-001	-1.23014E-003	0.00000E+000	-3.70030E-001	0.00000E+000	10	...........	1583.25
	426	4.26	2.59096E-001	-1.23012E-003	0.00000E+000	-3.70030E-001	0.00000E+000	10	...........	1583.25
	427	4.27	2.57045E-001	-1.23013E-003	0.00000E+000	-3.70030E-001	0.00000E+000	10	...........	1583.25
	428	4.28	2.54947E-001	-1.23010E-003	0.00000E+000	-3.70030E-001	0.00000E+000	10	...........	1583.25
	429	4.29	2.52892E-001	-1.23009E-003	0.00000E+000	-3.70030E-001	0.00000E+000	10	...........	1583.25
	430	4.3	2.50862E-001	-1.23007E-003	0.00000E+000	-3.70030E-001	0.00000E+000	10	...........	1583.25
	431	4.31	2.48806E-001	-1.23014E-003	0.00000E+000	-3.70030E-001	0.00000E+000	10	...........	1583.25
	432	4.32	2.46757E-001	-1.23014E-003	0.00000E+000	-3.70030E-001	0.00000E+000	10	...........	1583.25
	433	4.33	2.44727E-001	-1.23021E-003	0.00000E+000	-3.70030E-001	0.00000E+000	10	...........	1583.25
	434	4.34	2.42696E-001	-1.23016E-003	0.00000E+000	-3.70030E-001	0.00000E+000	10	...........	1583.25
	435	4.35	2.40705E-001	-1.23011E-003	0.00000E+000	-3.70030E-001	0.00000E+000	10	...........	1583.25
	436	4.36	2.38688E-001	-1.23007E-003	0.00000E+000	-3.70030E-001	0.00000E+000	10	...........	1583.25
	437	4.37	2.36673E-001	-1.23012E-003	0.00000E+000	-3.70030E-001	0.00000E+000	10	...........	1583.25
	438	4.38	2.34661E-001	-1.23015E-003	0.00000E+000	-3.70030E-001	0.00000E+000	10	...........	1583.25
	439	4.39	2.32653E-001	-1.23013E-003	0.00000E+000	-3.70030E-001	0.00000E+000	10	...........	1583.25
	440	4.4	2.30655E-001	-1.23011E-003	0.00000E+000	-3.70030E-001	0.00000E+000	10	...........	1583.25
	441	4.41	2.28659E-001	-1.23010E-003	0.00000E+000	-3.70030E-001	0.00000E+000	10	...........	1583.25
	442	4.42	2.26669E-001	-1.23012E-003	0.00000E+000	-3.70030E-001	0.00000E+000	10	...........	1583.25
	443	4.43	2.24678E-001	-1.23014E-003	0.00000E+000	-3.70030E-001	0.00000E+000	10	...........	1583.25
	444	4.44	2.22699E-001	-1.23014E-003	0.00000E+000	-3.70030E-001	0.00000E+000	10	...........	1583.25
	445	4.45	2.20724E-001	-1.23012E-003	0.00000E+000	-3.70030E-001	0.00000E+000	10	...........	1583.25
	446	4.46	2.18752E-001	-1.23009E-003	0.00000E+000	-3.70030E-001	0.00000E+000	10	...........	1583.25
	447	4.47	2.16791E-001	-1.23008E-003	0.00000E+000	-3.70030E-001	0.00000E+000	10	...........	1583.25
	448	4.48	2.14832E-001	-1.23007E-003	0.00000E+000	-3.70030E-001	0.00000E+000	10	...........	1583.25
	449	4.49	2.12884E-001	-1.23009E-003	0.00000E+000	-3.70030E-001	0.00000E+000	10	...........	1583.25
	450	4.5	2.10936E-001	-1.23002E-003	0.00000E+000	-3.70030E-001	0.00000E+000	10	...........	1583.25
	451	4.51	2.08988E-001	-1.23006E-003	0.00000E+000	-3.70030E-001	0.00000E+000	10	...........	1583.25
	452	4.52	2.07046E-001	-1.23012E-003	0.00000E+000	-3.70030E-001	0.00000E+000	10	...........	1583.25
	453	4.53	2.05111E-001	-1.23013E-003	0.00000E+000	-3.70030E-001	0.00000E+000	10	...........	1583.25
	454	4.54	2.03176E-001	-1.23014E-003	0.00000E+000	-3.70030E-001	0.00000E+000	10	...........	1583.25
	455	4.55	2.01255E-001	-1.23010E-003	0.00000E+000	-3.70030E-001	0.00000E+000	10	...........	1583.25
	456	4.56	1.99334E-001	-1.23010E-003	0.00000E+000	-3.70030E-001	0.00000E+000	10	...........	1583.25
	457	4.57	1.97425E-001	-1.23010E-003	0.00000E+000	-3.70030E-001	0.00000E+000	10	...........	1583.25
	458	4.58	1.95514E-001	-1.23014E-003	0.00000E+000	-3.70030E-001	0.00000E+000	10	...........	1583.25
	459	4.59	1.93607E-001	-1.23013E-003	0.00000E+000	-3.70030E-001	0.00000E+000	10	...........	1583.25
	460	4.6	1.91708E-001	-1.23011E-003	0.00000E+000	-3.70030E-001	0.00000E+000	10	...........	1583.25
	461	4.61	1.89817E-001	-1.23007E-003	0.00000E+000	-3.70030E-001	0.00000E+000	10	...........	1583.25
	462	4.62	1.87931E-001	-1.23011E-003	0.00000E+000	-3.70030E-001	0.00000E+000	10	...........	1583.25
	463	4.63	1.86048E-001	-1.23010E-003	0.00000E+000	-3.70030E-001	0.00000E+000	10	...........	1583.25
	464	4.64	1.84167E-001	-1.23009E-003	0.00000E+000	-3.70030E-001	0.00000E+000	10	...........	1583.25
	465	4.65	1.82294E-001	-1.23010E-003	0.00000E+000	-3.70030E-001	0.00000E+000	10	...........	1583.25
	466	4.66	1.80427E-001	-1.23007E-003	0.00000E+000	-3.70030E-001	0.00000E+000	10	...........	1583.25
	467	4.67	1.78561E-001	-1.23012E-003	0.00000E+000	-3.70030E-001	0.00000E+000	10	...........	1583.25
	468	4.68	1.76708E-001	-1.23011E-003	0.00000E+000	-3.70030E-001	0.00000E+000	10	...........	1583.25
	469	4.69	1.74857E-001	-1.23003E-003	0.00000E+000	-3.70030E-001	0.00000E+000	10	...........	1583.25
	470	4.7	1.73011E-001	-1.23006E-003	0.00000E+000	-3.70030E-001	0.00000E+000	10	...........	1583.25
	471	4.71	1.71166E-001	-1.23007E-003	0.00000E+000	-3.70030E-001	0.00000E+000	10	...........	1583.25
	472	4.72	1.69330E-001	-1.23011E-003	0.00000E+000	-3.70030E-001	0.00000E+000	10	...........	1583.25
	473	4.73	1.67495E-001	-1.23013E-003	0.00000E+000	-3.70030E-001	0.00000E+000	10	...........	1583.25
	474	4.74	1.65667E-001	-1.23012E-003	0.00000E+000	-3.70030E-001	0.00000E+000	10	...........	1583.25
	475	4.75	1.63848E-001	-1.23011E-003	0.00000E+000	-3.70030E-001	0.00000E+000	10	...........	1583.25
	476	4.76	1.62035E-001	-1.23010E-003	0.00000E+000	-3.70030E-001	0.00000E+000	10	...........	1583.25
	477	4.77	1.60223E-001	-1.23010E-003	0.00000E+000	-3.70030E-001	0.00000E+000	10	...........	1583.25
	478	4.78	1.58414E-001	-1.23012E-003	0.00000E+000	-3.70030E-001	0.00000E+000	10	...........	1583.25
	479	4.79	1.56614E-001	-1.23011E-003	0.00000E+000	-3.70030E-001	0.00000E+000	10	...........	1583.25
	480	4.8	1.54817E-001	-1.23013E-003	0.00000E+000	-3.70030E-001	0.00000E+000	10	...........	1583.25
	481	4.81	1.53023E-001	-1.23015E-003	0.00000E+000	-3.70030E-001	0.00000E+000	10	...........	1583.25
	482	4.82	1.51241E-001	-1.23016E-003	0.00000E+000	-3.70030E-001	0.00000E+000	10	...........	1583.25
	483	4.83	1.49457E-001	-1.23013E-003	0.00000E+000	-3.70030E-001	0.00000E+000	10	...........	1583.25
	484	4.84	1.47678E-001	-1.23018E-003	0.00000E+000	-3.70030E-001	0.00000E+000	10	...........	1583.25
	485	4.85	1.45908E-001	-1.23016E-003	0.00000E+000	-3.70030E-001	0.00000E+000	10	...........	1583.25
	486	4.86	1.44139E-001	-1.23017E-003	0.00000E+000	-3.70030E-001	0.00000E+000	10	...........	1583.25
	487	4.87	1.42377E-001	-1.23020E-003	0.00000E+000	-3.70030E-001	0.00000E+000	10	...........	1583.25
	488	4.88	1.40619E-001	-1.23017E-003	0.00000E+000	-3.70030E-001	0.00000E+000	10	...........	1583.25
	489	4.89	1.38870E-001	-1.23020E-003	0.00000E+000	-3.70030E-001	0.00000E+000	10	...........	1583.25
	490	4.9	1.37120E-001	-1.23017E-003	0.00000E+000	-3.70030E-001	0.00000E+000	10	...........	1583.25
	491	4.91	1.35375E-001	-1.23016E-003	0.00000E+000	-3.70030E-001	0.00000E+000	10	...........	1583.25
	492	4.92	1.33643E-001	-1.23013E-003	0.00000E+000	-3.70030E-001	0.00000E+000	10	...........	1583.25
	493	4.93	1.31913E-001	-1.23014E-003	0.00000E+000	-3.70030E-001	0.00000E+000	10	...........	1583.25
	494	4.94	1.30183E-001	-1.23017E-003	0.00000E+000	-3.70030E-001	0.00000E+000	10	...........	1583.25
	495	4.95	1.28465E-001	-1.23017E-003	0.00000E+000	-3.70030E-001	0.00000E+000	10	...........	1583.25
	496	4.96	1.26748E-001	-1.23017E-003	0.00000E+000	-3.70030E-001	0.00000E+000	10	...........	1583.25
	497	4.97	1.25034E-001	-1.23019E-003	0.00000E+000	-3.70030E-001	0.00000E+000	10	...........	1583.25
	498	4.98	1.23327E-001	-1.23016E-003	0.00000E+000	-3.70030E-001	0.00000E+000	10	...........	1583.25
	499	4.99	1.21627E-001	-1.23015E-003	0.00000E+000	-3.70030E-001	0.00000E+000	10	...........	1583.25
	500	5	1.19934E-001	-1.23018E-003	0.00000E+000	-3.70030E-001	0.00000E+000	10	...........	1583.25
	501	5.01	1.18240E-001	-1.23012E-003	0.00000E+000	-3.70030E-001	0.00000E+000	10	...........	1583.25
	502	5.02	1.16557E-001	-1.23014E-003	0.00000E+000	-3.70030E-001	0.00000E+000	10	...........	1583.25
	503	5.03	1.14873E-001	-1.23012E-003	0.00000E+000	-3.70030E-001	0.00000E+000	10	...........	1583.25
	504	5.04	1.13199E-001	-1.23013E-003	0.00000E+000	-3.70030E-001	0.00000E+000	10	...........	1583.25
	505	5.05	1.11527E-001	-1.23020E-003	0.00000E+000	-3.70030E-001	0.00000E+000	10	...........	1583.25
	506	5.06	1.09860E-001	-1.23013E-003	0.00000E+000	-3.70030E-001	0.00000E+000	10	...........	1583.25
	507	5.07	1.08197E-001	-1.23018E-003	0.00000E+000	-3.70030E-001	0.00000E+000	10	...........	1583.25
	508	5.08	1.06540E-001	-1.23016E-003	0.00000E+000	-3.70030E-001	0.00000E+000	10	...........	1583.25
	509	5.09	1.04895E-001	-1.23016E-003	0.00000E+000	-3.70030E-001	0.00000E+000	10	...........	1583.25
	510	5.1	1.03246E-001	-1.23011E-003	0.00000E+000	-3.70030E-001	0.00000E+000	10	...........	1583.25
	511	5.11	1.01606E-001	-1.23007E-003	0.00000E+000	-3.70030E-001	0.00000E+000	10	...........	1583.25
	512	5.12	9.99701E-002	-1.23012E-003	0.00000E+000	-3.70030E-001	0.00000E+000	10	...........	1583.25
	513	5.13	9.83363E-002	-1.23015E-003	0.00000E+000	-3.70030E-001	0.00000E+000	10	...........	1583.25
	514	5.14	9.67105E-002	-1.23011E-003	0.00000E+000	-3.70030E-001	0.00000E+000	10	...........	1583.25
	515	5.15	9.50914E-002	-1.23013E-003	0.00000E+000	-3.70030E-001	0.00000E+000	10	...........	1583.25
	516	5.16	9.34744E-002	-1.23015E-003	0.00000E+000	-3.70030E-001	0.00000E+000	10	...........	1583.25
	517	5.17	9.18613E-002	-1.23015E-003	0.00000E+000	-3.70030E-001	0.00000E+000	10	...........	1583.25
	518	5.18	9.02592E-002	-1.23007E-003	0.00000E+000	-3.70030E-001	0.00000E+000	10	...........	1583.25
	519	5.19	8.86615E-002	-1.23011E-003	0.00000E+000	-3.70030E-001	0.00000E+000	10	...........	1583.25
	520	5.2	8.70672E-002	-1.23016E-003	0.00000E+000	-3.70030E-001	0.00000E+000	10	...........	1583.25
	521	5.21	8.54724E-002	-1.23014E-003	0.00000E+000	-3.70030E-001	0.00000E+000	10	...........	1583.25
	522	5.22	8.38860E-002	-1.23017E-003	0.00000E+000	-3.70030E-001	0.00000E+000	10	...........	1583.25
	523	5.23	8.23062E-002	-1.23016E-003	0.00000E+000	-3.70030E-001	0.00000E+000	10	...........	1583.25
	524	5.24	8.07347E-002	-1.23017E-003	0.00000E+000	-3.70030E-001	0.00000E+000	10	...........	1583.25
	525	5.25	7.91585E-002	-1.23013E-003	0.00000E+000	-3.70030E-001	0.00000E+000	10	...........	1583.25
	526	5.26	7.75939E-002	-1.23021E-003	0.00000E+000	-3.70030E-001	0.00000E+000	10	...........	1583.25
	527	5.27	7.60269E-002	-1.23015E-003	0.00000E+000	-3.70030E-001	0.00000E+000	10	...........	1583.25
	528	5.28	7.44756E-002	-1.23013E-003	0.00000E+000	-3.70030E-001	0.00000E+000	10	...........	1583.25
	529	5.29	7.29234E-002	-1.23009E-003	0.00000E+000	-3.70030E-001	0.00000E+000	10	...........	1583.25
	530	5.3	7.13759E-002	-1.23012E-003	0.00000E+000	-3.70030E-001	0.00000E+000	10	...........	1583.25
	531	5.31	6.98379E-002	-1.23009E-003	0.00000E+000	-3.70030E-001	0.00000E+000	10	...........	1583.25
	532	5.32	6.82999E-002	-1.23005E-003	0.00000E+000	-3.70030E-001	0.00000E+000	10	...........	1583.25
	533	5.33	6.67702E-002	-1.23008E-003	0.00000E+000	-3.70030E-001	0.00000E+000	10	...........	1583.25
	534	5.34	6.52411E-002	-1.23014E-003	0.00000E+000	-3.70030E-001	0.00000E+000	10	...........	1583.25
	535	5.35	6.37168E-002	-1.23013E-003	0.00000E+000	-3.70030E-001	0.00000E+000	10	...........	1583.25
	536	5.36	6.21974E-002	-1.23014E-003	0.00000E+000	-3.70030E-001	0.00000E+000	10	...........	1583.25
	537	5.37	6.06858E-002	-1.23014E-003	0.00000E+000	-3.70030E-001	0.00000E+000	10	...........	1583.25
	538	5.38	5.91774E-002	-1.23017E-003	0.00000E+000	-3.70030E-001	0.00000E+000	10	...........	1583.25
	539	5.39	5.76776E-002	-1.23010E-003	0.00000E+000	-3.70030E-001	0.00000E+000	10	...........	1583.25
	540	5.4	5.61803E-002	-1.23009E-003	0.00000E+000	-3.70030E-001	0.00000E+000	10	...........	1583.25
	541	5.41	5.46930E-002	-1.23008E-003	0.00000E+000	-3.70030E-001	0.00000E+000	10	...........	1583.25
	542	5.42	5.32030E-002	-1.23013E-003	0.00000E+000	-3.70030E-001	0.00000E+000	10	...........	1583.25
	543	5.43	5.17199E-002	-1.23011E-003	0.00000E+000	-3.70030E-001	0.00000E+000	10	...........	1583.25
	544	5.44	5.02402E-002	-1.23017E-003	0.00000E+000	-3.70030E-001	0.00000E+000	10	...........	1583.25
	545	5.45	4.87687E-002	-1.23013E-003	0.00000E+000	-3.70030E-001	0.00000E+000	10	...........	1583.25
	546	5.46	4.72995E-002	-1.23015E-003	0.00000E+000	-3.70030E-001	0.00000E+000	10	...........	1583.25
	547	5.47	4.58364E-002	-1.23017E-003	0.00000E+000	-3.70030E-001	0.00000E+000	10	...........	1583.25
	548	5.48	4.43753E-002	-1.23019E-003	0.00000E+000	-3.70030E-001	0.00000E+000	10	...........	1583.25
	549	5.49	4.29236E-002	-1.23014E-003	0.00000E+000	-3.70030E-001	0.00000E+000	10	...........	1583.25
	550	5.5	4.14751E-002	-1.23017E-003	0.00000E+000	-3.70030E-001	0.00000E+000	10	...........	1583.25
	551	5.51	4.00307E-002	-1.23014E-003	0.00000E+000	-3.70030E-001	0.00000E+000	10	...........	1583.25
	552	5.52	3.85957E-002	-1.23014E-003	0.00000E+000	-3.70030E-001	0.00000E+000	10	...........	1583.25
	553	5.53	3.71570E-002	-1.23012E-003	0.00000E+000	-3.70030E-001	0.00000E+000	10	...........	1583.25
	554	5.54	3.57241E-002	-1.23017E-003	0.00000E+000	-3.70030E-001	0.00000E+000	10	...........	1583.25
	555	5.55	3.43040E-002	-1.23013E-003	0.00000E+000	-3.70030E-001	0.00000E+000	10	...........	1583.53
	556	5.56	3.28831E-002	-1.23017E-003	0.00000E+000	-3.70030E-001	0.00000E+000	10	...........	1583.53
	557	5.57	3.14658E-002	-1.23009E-003	0.00000E+000	-3.70030E-001	0.00000E+000	10	...........	1583.53
	558	5.58	3.00579E-002	-1.23013E-003	0.00000E+000	-3.70030E-001	0.00000E+000	10	...........	1583.53
	559	5.59	2.86547E-002	-1.23014E-003	0.00000E+000	-3.70030E-001	0.00000E+000	10	...........	1583.53
	560	5.6	2.72527E-002	-1.23016E-003	0.00000E+000	-3.70030E-001	0.00000E+000	10	...........	1583.53
	561	5.61	2.58585E-002	-1.23012E-003	0.00000E+000	-3.70030E-001	0.00000E+000	10	...........	1583.53
	562	5.62	2.44693E-002	-1.23014E-003	0.00000E+000	-3.70030E-001	0.00000E+000	10	...........	1583.53
	563	5.63	2.30860E-002	-1.23012E-003	0.00000E+000	-3.70030E-001	0.00000E+000	10	...........	1583.53
	564	5.64	2.17073E-002	-1.23011E-003	0.00000E+000	-3.70030E-001	0.00000E+000	10	...........	1583.53
	565	5.65	2.03305E-002	-1.23013E-003	0.00000E+000	-3.70030E-001	0.00000E+000	10	...........	1583.53
	566	5.66	1.89582E-002	-1.23012E-003	0.00000E+000	-3.70030E-001	0.00000E+000	10	...........	1583.53
	567	5.67	1.75931E-002	-1.23013E-003	0.00000E+000	-3.70030E-001	0.00000E+000	10	...........	1583.53
	568	5.68	1.62326E-002	-1.23003E-003	0.00000E+000	-3.70030E-001	0.00000E+000	10	...........	1583.53
	569	5.69	1.48687E-002	-1.23008E-003	0.00000E+000	-3.70030E-001	0.00000E+000	10	...........	1583.53
	570	5.7	1.35179E-002	-1.23012E-003	0.00000E+000	-3.70030E-001	0.00000E+000	10	...........	1583.53
	571	5.71	1.21685E-002	-1.23014E-003	0.00000E+000	-3.70030E-001	0.00000E+000	10	...........	1583.53
	572	5.72	1.08288E-002	-1.23007E-003	0.00000E+000	-3.70030E-001	0.00000E+000	10	...........	1583.53
	573	5.73	9.48907E-003	-1.23011E-003	0.00000E+000	-3.70030E-001	0.00000E+000	10	...........	1583.53
	574	5.74	8.15283E-003	-1.23017E-003	0.00000E+000	-3.70030E-001	0.00000E+000	10	...........	1583.53
	575	5.75	6.82710E-003	-1.23013E-003	0.00000E+000	-3.70030E-001	0.00000E+000	10	...........	1583.53
	576	5.76	5.50003E-003	-1.23012E-003	0.00000E+000	-3.70030E-001	0.00000E+000	10	...........	1583.53
	577	5.77	4.18102E-003	-1.23018E-003	0.00000E+000	-3.70030E-001	0.00000E+000	10	...........	1583.53
	578	5.78	2.86478E-003	-1.23022E-003	0.00000E+000	-3.70030E-001	0.00000E+000	10	...........	1583.53
	579	5.79	1.55064E-003	-1.23017E-003	0.00000E+000	-3.70030E-001	0.00000E+000	10	...........	1583.53
	580	5.8	2.47378E-004	-1.23015E-003	0.00000E+000	-3.70030E-001	0.00000E+000	10	...........	1583.53
	581	5.81	-1.05721E-003	-1.23011E-003	0.00000E+000	-3.70030E-001	0.00000E+000	10	...........	1583.53
