EXPLAIN
TAG	CHRONOP
TITLE	LABEL	Chronopotentiometry Scan	Test Identifier
DATE	LABEL	23/1/2025	Date
TIME	LABEL	14:29:39	Time
NOTES	NOTES	1	Notes...
	
PSTAT	PSTAT	IFC1010-42004	Potentiostat
IPRESTEP	QUANT	0.00000E+000	Pre-step Current(A)
TPRESTEP	QUANT	0.00000E+000	Pre-step Delay Time (s)
ISTEP1	QUANT	1.23000E-003	Step 1 Current (A)
TSTEP1	QUANT	5.00000E+003	Step 1 Time (s)
ISTEP2	QUANT	-1.23000E-003	Step 2 Current (A)
TSTEP2	QUANT	5.00000E+003	Step 2 Time (s)
SAMPLETIME	QUANT	1.00000E-002	Sample Period (s)
DECIMATE	TOGGLE	F	Decimate
VLIMITLOWER	QUANT	0.00000E+000	Lower Limit V (V)
VLIMITUPPER	QUANT	8.00000E-001	Upper Limit V (V)
EQDELAY	QUANT	1.00000E+000	Equil. Time (s)
SAMPLINGMODE	SELECTOR	1	Sampling Mode
AREA	QUANT	2.00000E+000	Sample Area (cm^2)
ELECTRODETYPE	SELECTOR	0	Electrode Type
STRIPPING	TOGGLE	F	Used for Stripping
SEQUENCER	TOGGLE	TRUE	Run as Sequence
PSTATMODEL	IQUANT	64	Pstat Model
PSTATSECTION	LABEL	IFC1010-42004	Pstat Section
PSTATSERIALNO	LABEL	42004	Pstat Serial Number
CTRLMODE	IQUANT	0	Control Mode
ELECTROMETER	IQUANT	0	RE=0 or CS=1
IESTAB	IQUANT	0	I/E Stability
CASPEED	IQUANT	4	Control Amp Speed
CONVENTION	IQUANT	1	Current Convention
ICHRANGE	IQUANT	2	Ich Range
ICHRANGEMODE	TOGGLE	T	Ich Auto Range
ICHOFFSETENABLE	TOGGLE	F	Ich Offset Enable
ICHOFFSET	QUANT	0	Ich Offset (V)
ICHFILTER	IQUANT	3	Ich Filter
VCHRANGE	IQUANT	3	Vch Range
VCHRANGEMODE	TOGGLE	T	Vch Auto Range
VCHOFFSETENABLE	TOGGLE	F	Vch Offset Enable
VCHOFFSET	QUANT	0	Vch Offset (V)
VCHFILTER	IQUANT	3	Vch Filter
IERANGELOWERLIMIT	IQUANT	4	I/E Range Lower Limit
IERANGEMODE	TOGGLE	F	I/E AutoRange
IERANGE	IQUANT	11	I/E Range
ACHSELECT	IQUANT	0	Ach Select
ACHRANGE	IQUANT	2	Ach Range
ACHOFFSETENABLE	TOGGLE	F	Ach Offset Enable
ACHOFFSET	QUANT	0	Ach Offset (V)
ACHFILTER	IQUANT	1	Ach Filter
SENSECABLEID	IQUANT	14	Sense Cable ID
PWRCABLEID	IQUANT	14	Power Cable ID
DCCALDATE	LABEL	1/22/2025	DC Calibration Date
ACCALDATE	LABEL	11/15/2024	AC Calibration Date
FRAMEWORKVERSION	LABEL	7.10.4	Framework Version
INSTRUMENTVERSION	LABEL	4.91	Instrument Version
COMMVERSION	LABEL	3.10	Communications Version
CPUPLDVERSION	LABEL	2.54	CPU PLD Version
CTRLPLDVERSION	LABEL	0.00	CTRL PLD Version
PSTATPLDVERSION	LABEL	0.00	PSTAT PLD Version
CURVE	TABLE	595
	Pt	T	Vf	Im	Vu	Sig	Ach	IERange	Over	Temp
	#	s	V vs. Ref.	A	V	V	V	#	bits	deg C
	0	0	2.42622E-001	-1.22049E-007	0.00000E+000	0.00000E+000	0.00000E+000	10	...........	1583.53
	1	0.01	2.58559E-001	1.22956E-003	0.00000E+000	3.70030E-001	0.00000E+000	10	...........	1583.53
	2	0.02	2.61341E-001	1.22962E-003	0.00000E+000	3.70030E-001	0.00000E+000	10	...........	1583.53
	3	0.03	2.63778E-001	1.22955E-003	0.00000E+000	3.70030E-001	0.00000E+000	10	...........	1583.53
	4	0.04	2.66099E-001	1.22957E-003	0.00000E+000	3.70030E-001	0.00000E+000	10	...........	1583.53
	5	0.05	2.68363E-001	1.22951E-003	0.00000E+000	3.70030E-001	0.00000E+000	10	...........	1583.53
	6	0.06	2.70636E-001	1.22959E-003	0.00000E+000	3.70030E-001	0.00000E+000	10	...........	1583.53
	7	0.07	2.72854E-001	1.22956E-003	0.00000E+000	3.70030E-001	0.00000E+000	10	...........	1583.53
	8	0.08	2.75039E-001	1.22956E-003	0.00000E+000	3.70030E-001	0.00000E+000	10	...........	1583.53
	9	0.09	2.77248E-001	1.22961E-003	0.00000E+000	3.70030E-001	0.00000E+000	10	...........	1583.53
	10	0.1	2.79449E-001	1.22954E-003	0.00000E+000	3.70030E-001	0.00000E+000	10	...........	1583.53
	11	0.11	2.81642E-001	1.22961E-003	0.00000E+000	3.70030E-001	0.00000E+000	10	...........	1583.53
	12	0.12	2.83855E-001	1.22963E-003	0.00000E+000	3.70030E-001	0.00000E+000	10	...........	1583.53
	13	0.13	2.86044E-001	1.22957E-003	0.00000E+000	3.70030E-001	0.00000E+000	10	...........	1583.53
	14	0.14	2.88231E-001	1.22961E-003	0.00000E+000	3.70030E-001	0.00000E+000	10	...........	1583.53
	15	0.15	2.90415E-001	1.22958E-003	0.00000E+000	3.70030E-001	0.00000E+000	10	...........	1583.53
	16	0.16	2.92605E-001	1.22962E-003	0.00000E+000	3.70030E-001	0.00000E+000	10	...........	1583.53
	17	0.17	2.94816E-001	1.22962E-003	0.00000E+000	3.70030E-001	0.00000E+000	10	...........	1583.53
	18	0.18	2.97022E-001	1.22968E-003	0.00000E+000	3.70030E-001	0.00000E+000	10	...........	1583.53
	19	0.19	2.99186E-001	1.22960E-003	0.00000E+000	3.70030E-001	0.00000E+000	10	...........	1583.53
	20	0.2	3.01388E-001	1.22960E-003	0.00000E+000	3.70030E-001	0.00000E+000	10	...........	1583.53
	21	0.21	3.03575E-001	1.22958E-003	0.00000E+000	3.70030E-001	0.00000E+000	10	...........	1583.53
	22	0.22	3.05773E-001	1.22963E-003	0.00000E+000	3.70030E-001	0.00000E+000	10	...........	1583.53
	23	0.23	3.07997E-001	1.22964E-003	0.00000E+000	3.70030E-001	0.00000E+000	10	...........	1583.53
	24	0.24	3.10205E-001	1.22964E-003	0.00000E+000	3.70030E-001	0.00000E+000	10	...........	1583.53
	25	0.25	3.12404E-001	1.22960E-003	0.00000E+000	3.70030E-001	0.00000E+000	10	...........	1583.53
	26	0.26	3.14623E-001	1.22963E-003	0.00000E+000	3.70030E-001	0.00000E+000	10	...........	1583.53
	27	0.27	3.16813E-001	1.22964E-003	0.00000E+000	3.70030E-001	0.00000E+000	10	...........	1583.53
	28	0.28	3.19018E-001	1.22963E-003	0.00000E+000	3.70030E-001	0.00000E+000	10	...........	1583.53
	29	0.29	3.21250E-001	1.22962E-003	0.00000E+000	3.70030E-001	0.00000E+000	10	...........	1583.53
	30	0.3	3.23460E-001	1.22965E-003	0.00000E+000	3.70030E-001	0.00000E+000	10	...........	1583.53
	31	0.31	3.25675E-001	1.22966E-003	0.00000E+000	3.70030E-001	0.00000E+000	10	...........	1583.53
	32	0.32	3.27884E-001	1.22968E-003	0.00000E+000	3.70030E-001	0.00000E+000	10	...........	1583.53
	33	0.33	3.30091E-001	1.22968E-003	0.00000E+000	3.70030E-001	0.00000E+000	10	...........	1583.53
	34	0.34	3.32306E-001	1.22963E-003	0.00000E+000	3.70030E-001	0.00000E+000	10	...........	1583.53
	35	0.35	3.34565E-001	1.22968E-003	0.00000E+000	3.70030E-001	0.00000E+000	10	...........	1583.53
	36	0.36	3.36791E-001	1.22961E-003	0.00000E+000	3.70030E-001	0.00000E+000	10	...........	1583.53
	37	0.37	3.39000E-001	1.22962E-003	0.00000E+000	3.70030E-001	0.00000E+000	10	...........	1583.53
	38	0.38	3.41233E-001	1.22966E-003	0.00000E+000	3.70030E-001	0.00000E+000	10	...........	1583.53
	39	0.39	3.43475E-001	1.22964E-003	0.00000E+000	3.70030E-001	0.00000E+000	10	...........	1583.53
	40	0.4	3.45705E-001	1.22963E-003	0.00000E+000	3.70030E-001	0.00000E+000	10	...........	1583.53
	41	0.41	3.47965E-001	1.22964E-003	0.00000E+000	3.70030E-001	0.00000E+000	10	...........	1583.53
	42	0.42	3.50177E-001	1.22960E-003	0.00000E+000	3.70030E-001	0.00000E+000	10	...........	1583.53
	43	0.43	3.52435E-001	1.22962E-003	0.00000E+000	3.70030E-001	0.00000E+000	10	...........	1583.53
	44	0.44	3.54685E-001	1.22966E-003	0.00000E+000	3.70030E-001	0.00000E+000	10	...........	1583.53
	45	0.45	3.56919E-001	1.22966E-003	0.00000E+000	3.70030E-001	0.00000E+000	10	...........	1583.53
	46	0.46	3.59181E-001	1.22963E-003	0.00000E+000	3.70030E-001	0.00000E+000	10	...........	1583.53
	47	0.47	3.61439E-001	1.22960E-003	0.00000E+000	3.70030E-001	0.00000E+000	10	...........	1583.53
	48	0.48	3.63688E-001	1.22961E-003	0.00000E+000	3.70030E-001	0.00000E+000	10	...........	1583.53
	49	0.49	3.65961E-001	1.22959E-003	0.00000E+000	3.70030E-001	0.00000E+000	10	...........	1583.53
	50	0.5	3.68208E-001	1.22962E-003	0.00000E+000	3.70030E-001	0.00000E+000	10	...........	1583.53
	51	0.51	3.70464E-001	1.22960E-003	0.00000E+000	3.70030E-001	0.00000E+000	10	...........	1583.53
	52	0.52	3.72748E-001	1.22963E-003	0.00000E+000	3.70030E-001	0.00000E+000	10	...........	1583.53
	53	0.53	3.74998E-001	1.22963E-003	0.00000E+000	3.70030E-001	0.00000E+000	10	...........	1583.53
	54	0.54	3.77264E-001	1.22963E-003	0.00000E+000	3.70030E-001	0.00000E+000	10	...........	1583.53
	55	0.55	3.79540E-001	1.22969E-003	0.00000E+000	3.70030E-001	0.00000E+000	10	...........	1583.53
	56	0.56	3.81822E-001	1.22967E-003	0.00000E+000	3.70030E-001	0.00000E+000	10	...........	1583.53
	57	0.57	3.84092E-001	1.22963E-003	0.00000E+000	3.70030E-001	0.00000E+000	10	...........	1583.53
	58	0.58	3.86377E-001	1.22963E-003	0.00000E+000	3.70030E-001	0.00000E+000	10	...........	1583.53
	59	0.59	3.88655E-001	1.22958E-003	0.00000E+000	3.70030E-001	0.00000E+000	10	...........	1583.53
	60	0.6	3.90931E-001	1.22962E-003	0.00000E+000	3.70030E-001	0.00000E+000	10	...........	1583.53
	61	0.61	3.93205E-001	1.22960E-003	0.00000E+000	3.70030E-001	0.00000E+000	10	...........	1583.53
	62	0.62	3.95496E-001	1.22962E-003	0.00000E+000	3.70030E-001	0.00000E+000	10	...........	1583.53
	63	0.63	3.97806E-001	1.22962E-003	0.00000E+000	3.70030E-001	0.00000E+000	10	...........	1583.53
	64	0.64	4.00098E-001	1.22963E-003	0.00000E+000	3.70030E-001	0.00000E+000	10	...........	1583.53
	65	0.65	4.02383E-001	1.22964E-003	0.00000E+000	3.70030E-001	0.00000E+000	10	...........	1583.53
	66	0.66	4.04654E-001	1.22964E-003	0.00000E+000	3.70030E-001	0.00000E+000	10	...........	1583.53
	67	0.67	4.06973E-001	1.22961E-003	0.00000E+000	3.70030E-001	0.00000E+000	10	...........	1583.53
	68	0.68	4.09275E-001	1.22962E-003	0.00000E+000	3.70030E-001	0.00000E+000	10	...........	1583.53
	69	0.69	4.11588E-001	1.22967E-003	0.00000E+000	3.70030E-001	0.00000E+000	10	...........	1583.53
	70	0.7	4.13878E-001	1.22964E-003	0.00000E+000	3.70030E-001	0.00000E+000	10	...........	1583.82
	71	0.71	4.16196E-001	1.22964E-003	0.00000E+000	3.70030E-001	0.00000E+000	10	...........	1583.82
	72	0.72	4.18515E-001	1.22966E-003	0.00000E+000	3.70030E-001	0.00000E+000	10	...........	1583.82
	73	0.73	4.20805E-001	1.22960E-003	0.00000E+000	3.70030E-001	0.00000E+000	10	...........	1583.82
	74	0.74	4.23128E-001	1.22960E-003	0.00000E+000	3.70030E-001	0.00000E+000	10	...........	1583.82
	75	0.75	4.25443E-001	1.22958E-003	0.00000E+000	3.70030E-001	0.00000E+000	10	...........	1583.82
	76	0.76	4.27743E-001	1.22958E-003	0.00000E+000	3.70030E-001	0.00000E+000	10	...........	1583.82
	77	0.77	4.30064E-001	1.22957E-003	0.00000E+000	3.70030E-001	0.00000E+000	10	...........	1583.82
	78	0.78	4.32390E-001	1.22955E-003	0.00000E+000	3.70030E-001	0.00000E+000	10	...........	1583.82
	79	0.79	4.34697E-001	1.22956E-003	0.00000E+000	3.70030E-001	0.00000E+000	10	...........	1583.82
	80	0.8	4.37069E-001	1.22962E-003	0.00000E+000	3.70030E-001	0.00000E+000	10	...........	1583.82
	81	0.81	4.39398E-001	1.22961E-003	0.00000E+000	3.70030E-001	0.00000E+000	10	...........	1583.82
	82	0.82	4.41718E-001	1.22964E-003	0.00000E+000	3.70030E-001	0.00000E+000	10	...........	1583.82
	83	0.83	4.44027E-001	1.22961E-003	0.00000E+000	3.70030E-001	0.00000E+000	10	...........	1583.82
	84	0.84	4.46362E-001	1.22964E-003	0.00000E+000	3.70030E-001	0.00000E+000	10	...........	1583.82
	85	0.85	4.48689E-001	1.22963E-003	0.00000E+000	3.70030E-001	0.00000E+000	10	...........	1583.82
	86	0.86	4.51028E-001	1.22966E-003	0.00000E+000	3.70030E-001	0.00000E+000	10	...........	1583.82
	87	0.87	4.53385E-001	1.22964E-003	0.00000E+000	3.70030E-001	0.00000E+000	10	...........	1583.82
	88	0.88	4.55711E-001	1.22967E-003	0.00000E+000	3.70030E-001	0.00000E+000	10	...........	1583.82
	89	0.89	4.58068E-001	1.22964E-003	0.00000E+000	3.70030E-001	0.00000E+000	10	...........	1583.82
	90	0.9	4.60395E-001	1.22962E-003	0.00000E+000	3.70030E-001	0.00000E+000	10	...........	1583.82
	91	0.91	4.62788E-001	1.22970E-003	0.00000E+000	3.70030E-001	0.00000E+000	10	...........	1583.82
	92	0.92	4.65136E-001	1.22972E-003	0.00000E+000	3.70030E-001	0.00000E+000	10	...........	1583.82
	93	0.93	4.67481E-001	1.22965E-003	0.00000E+000	3.70030E-001	0.00000E+000	10	...........	1583.82
	94	0.94	4.69813E-001	1.22960E-003	0.00000E+000	3.70030E-001	0.00000E+000	10	...........	1583.82
	95	0.95	4.72146E-001	1.22957E-003	0.00000E+000	3.70030E-001	0.00000E+000	10	...........	1583.82
	96	0.96	4.74520E-001	1.22958E-003	0.00000E+000	3.70030E-001	0.00000E+000	10	...........	1583.82
	97	0.97	4.76898E-001	1.22959E-003	0.00000E+000	3.70030E-001	0.00000E+000	10	...........	1583.82
	98	0.98	4.79252E-001	1.22961E-003	0.00000E+000	3.70030E-001	0.00000E+000	10	...........	1583.82
	99	0.99	4.81633E-001	1.22969E-003	0.00000E+000	3.70030E-001	0.00000E+000	10	...........	1583.82
	100	1	4.83967E-001	1.22962E-003	0.00000E+000	3.70030E-001	0.00000E+000	10	...........	1583.82
	101	1.01	4.86318E-001	1.22961E-003	0.00000E+000	3.70030E-001	0.00000E+000	10	...........	1583.82
	102	1.02	4.88715E-001	1.22960E-003	0.00000E+000	3.70030E-001	0.00000E+000	10	...........	1583.82
	103	1.03	4.91073E-001	1.22960E-003	0.00000E+000	3.70030E-001	0.00000E+000	10	...........	1583.82
	104	1.04	4.93464E-001	1.22965E-003	0.00000E+000	3.70030E-001	0.00000E+000	10	...........	1583.82
	105	1.05	4.95836E-001	1.22964E-003	0.00000E+000	3.70030E-001	0.00000E+000	10	...........	1583.82
	106	1.06	4.98187E-001	1.22956E-003	0.00000E+000	3.70030E-001	0.00000E+000	10	...........	1583.82
	107	1.07	5.00570E-001	1.22958E-003	0.00000E+000	3.70030E-001	0.00000E+000	10	...........	1583.82
	108	1.08	5.02928E-001	1.22960E-003	0.00000E+000	3.70030E-001	0.00000E+000	10	...........	1583.82
	109	1.09	5.05310E-001	1.22958E-003	0.00000E+000	3.70030E-001	0.00000E+000	10	...........	1583.82
	110	1.1	5.07692E-001	1.22963E-003	0.00000E+000	3.70030E-001	0.00000E+000	10	...........	1583.82
	111	1.11	5.10060E-001	1.22962E-003	0.00000E+000	3.70030E-001	0.00000E+000	10	...........	1583.82
	112	1.12	5.12478E-001	1.22962E-003	0.00000E+000	3.70030E-001	0.00000E+000	10	...........	1583.82
	113	1.13	5.14874E-001	1.22964E-003	0.00000E+000	3.70030E-001	0.00000E+000	10	...........	1583.82
	114	1.14	5.17249E-001	1.22961E-003	0.00000E+000	3.70030E-001	0.00000E+000	10	...........	1583.82
	115	1.15	5.19615E-001	1.22963E-003	0.00000E+000	3.70030E-001	0.00000E+000	10	...........	1583.82
	116	1.16	5.22000E-001	1.22963E-003	0.00000E+000	3.70030E-001	0.00000E+000	10	...........	1583.82
	117	1.17	5.24372E-001	1.22960E-003	0.00000E+000	3.70030E-001	0.00000E+000	10	...........	1583.82
	118	1.18	5.26778E-001	1.22960E-003	0.00000E+000	3.70030E-001	0.00000E+000	10	...........	1583.82
	119	1.19	5.29179E-001	1.22957E-003	0.00000E+000	3.70030E-001	0.00000E+000	10	...........	1583.82
	120	1.2	5.31552E-001	1.22962E-003	0.00000E+000	3.70030E-001	0.00000E+000	10	...........	1583.82
	121	1.21	5.33924E-001	1.22960E-003	0.00000E+000	3.70030E-001	0.00000E+000	10	...........	1583.82
	122	1.22	5.36329E-001	1.22961E-003	0.00000E+000	3.70030E-001	0.00000E+000	10	...........	1583.82
	123	1.23	5.38748E-001	1.22971E-003	0.00000E+000	3.70030E-001	0.00000E+000	10	...........	1583.82
	124	1.24	5.41127E-001	1.22968E-003	0.00000E+000	3.70030E-001	0.00000E+000	10	...........	1583.82
	125	1.25	5.43512E-001	1.22962E-003	0.00000E+000	3.70030E-001	0.00000E+000	10	...........	1583.82
	126	1.26	5.45899E-001	1.22963E-003	0.00000E+000	3.70030E-001	0.00000E+000	10	...........	1583.82
	127	1.27	5.48278E-001	1.22966E-003	0.00000E+000	3.70030E-001	0.00000E+000	10	...........	1583.82
	128	1.28	5.50687E-001	1.22958E-003	0.00000E+000	3.70030E-001	0.00000E+000	10	...........	1583.82
	129	1.29	5.53070E-001	1.22962E-003	0.00000E+000	3.70030E-001	0.00000E+000	10	...........	1583.82
	130	1.3	5.55466E-001	1.22960E-003	0.00000E+000	3.70030E-001	0.00000E+000	10	...........	1583.82
	131	1.31	5.57859E-001	1.22958E-003	0.00000E+000	3.70030E-001	0.00000E+000	10	...........	1583.82
	132	1.32	5.60238E-001	1.22955E-003	0.00000E+000	3.70030E-001	0.00000E+000	10	...........	1583.82
	133	1.33	5.62631E-001	1.22961E-003	0.00000E+000	3.70030E-001	0.00000E+000	10	...........	1583.82
	134	1.34	5.65075E-001	1.22970E-003	0.00000E+000	3.70030E-001	0.00000E+000	10	...........	1583.82
	135	1.35	5.67474E-001	1.22968E-003	0.00000E+000	3.70030E-001	0.00000E+000	10	...........	1583.82
	136	1.36	5.69854E-001	1.22971E-003	0.00000E+000	3.70030E-001	0.00000E+000	10	...........	1583.82
	137	1.37	5.72261E-001	1.22962E-003	0.00000E+000	3.70030E-001	0.00000E+000	10	...........	1583.82
	138	1.38	5.74625E-001	1.22962E-003	0.00000E+000	3.70030E-001	0.00000E+000	10	...........	1583.82
	139	1.39	5.77035E-001	1.22962E-003	0.00000E+000	3.70030E-001	0.00000E+000	10	...........	1583.82
	140	1.4	5.79426E-001	1.22960E-003	0.00000E+000	3.70030E-001	0.00000E+000	10	...........	1583.82
	141	1.41	5.81789E-001	1.22961E-003	0.00000E+000	3.70030E-001	0.00000E+000	10	...........	1583.82
	142	1.42	5.84178E-001	1.22960E-003	0.00000E+000	3.70030E-001	0.00000E+000	10	...........	1583.82
	143	1.43	5.86585E-001	1.22965E-003	0.00000E+000	3.70030E-001	0.00000E+000	10	...........	1583.82
	144	1.44	5.88958E-001	1.22956E-003	0.00000E+000	3.70030E-001	0.00000E+000	10	...........	1583.82
	145	1.45	5.91380E-001	1.22962E-003	0.00000E+000	3.70030E-001	0.00000E+000	10	...........	1583.82
	146	1.46	5.93776E-001	1.22963E-003	0.00000E+000	3.70030E-001	0.00000E+000	10	...........	1583.82
	147	1.47	5.96168E-001	1.22962E-003	0.00000E+000	3.70030E-001	0.00000E+000	10	...........	1583.82
	148	1.48	5.98550E-001	1.22963E-003	0.00000E+000	3.70030E-001	0.00000E+000	10	...........	1583.82
	149	1.49	6.00919E-001	1.22961E-003	0.00000E+000	3.70030E-001	0.00000E+000	10	...........	1583.82
	150	1.5	6.03318E-001	1.22956E-003	0.00000E+000	3.70030E-001	0.00000E+000	10	...........	1583.82
	151	1.51	6.05684E-001	1.22959E-003	0.00000E+000	3.70030E-001	0.00000E+000	10	...........	1583.82
	152	1.52	6.08074E-001	1.22963E-003	0.00000E+000	3.70030E-001	0.00000E+000	10	...........	1583.82
	153	1.53	6.10462E-001	1.22963E-003	0.00000E+000	3.70030E-001	0.00000E+000	10	...........	1583.82
	154	1.54	6.12825E-001	1.22961E-003	0.00000E+000	3.70030E-001	0.00000E+000	10	...........	1583.82
	155	1.55	6.15214E-001	1.22958E-003	0.00000E+000	3.70030E-001	0.00000E+000	10	...........	1583.82
	156	1.56	6.17593E-001	1.22955E-003	0.00000E+000	3.70030E-001	0.00000E+000	10	...........	1583.82
	157	1.57	6.19962E-001	1.22958E-003	0.00000E+000	3.70030E-001	0.00000E+000	10	...........	1583.82
	158	1.58	6.22321E-001	1.22963E-003	0.00000E+000	3.70030E-001	0.00000E+000	10	...........	1583.82
	159	1.59	6.24689E-001	1.22964E-003	0.00000E+000	3.70030E-001	0.00000E+000	10	...........	1583.82
	160	1.6	6.27058E-001	1.22962E-003	0.00000E+000	3.70030E-001	0.00000E+000	10	...........	1583.82
	161	1.61	6.29438E-001	1.22966E-003	0.00000E+000	3.70030E-001	0.00000E+000	10	...........	1583.82
	162	1.62	6.31791E-001	1.22966E-003	0.00000E+000	3.70030E-001	0.00000E+000	10	...........	1583.82
	163	1.63	6.34172E-001	1.22963E-003	0.00000E+000	3.70030E-001	0.00000E+000	10	...........	1583.82
	164	1.64	6.36509E-001	1.22960E-003	0.00000E+000	3.70030E-001	0.00000E+000	10	...........	1583.82
	165	1.65	6.38849E-001	1.22956E-003	0.00000E+000	3.70030E-001	0.00000E+000	10	...........	1583.82
	166	1.66	6.41218E-001	1.22959E-003	0.00000E+000	3.70030E-001	0.00000E+000	10	...........	1583.82
	167	1.67	6.43573E-001	1.22961E-003	0.00000E+000	3.70030E-001	0.00000E+000	10	...........	1583.82
	168	1.68	6.45896E-001	1.22959E-003	0.00000E+000	3.70030E-001	0.00000E+000	10	...........	1583.82
	169	1.69	6.48236E-001	1.22965E-003	0.00000E+000	3.70030E-001	0.00000E+000	10	...........	1583.82
	170	1.7	6.50586E-001	1.22965E-003	0.00000E+000	3.70030E-001	0.00000E+000	10	...........	1583.44
	171	1.71	6.52912E-001	1.22964E-003	0.00000E+000	3.70030E-001	0.00000E+000	10	...........	1583.44
	172	1.72	6.55240E-001	1.22958E-003	0.00000E+000	3.70030E-001	0.00000E+000	10	...........	1583.44
	173	1.73	6.57550E-001	1.22958E-003	0.00000E+000	3.70030E-001	0.00000E+000	10	...........	1583.44
	174	1.74	6.59875E-001	1.22958E-003	0.00000E+000	3.70030E-001	0.00000E+000	10	...........	1583.44
	175	1.75	6.62182E-001	1.22960E-003	0.00000E+000	3.70030E-001	0.00000E+000	10	...........	1583.44
	176	1.76	6.64481E-001	1.22958E-003	0.00000E+000	3.70030E-001	0.00000E+000	10	...........	1583.44
	177	1.77	6.66823E-001	1.22959E-003	0.00000E+000	3.70030E-001	0.00000E+000	10	...........	1583.44
	178	1.78	6.69120E-001	1.22960E-003	0.00000E+000	3.70030E-001	0.00000E+000	10	...........	1583.44
	179	1.79	6.71412E-001	1.22961E-003	0.00000E+000	3.70030E-001	0.00000E+000	10	...........	1583.44
	180	1.8	6.73699E-001	1.22960E-003	0.00000E+000	3.70030E-001	0.00000E+000	10	...........	1583.44
	181	1.81	6.75986E-001	1.22958E-003	0.00000E+000	3.70030E-001	0.00000E+000	10	...........	1583.44
	182	1.82	6.78251E-001	1.22957E-003	0.00000E+000	3.70030E-001	0.00000E+000	10	...........	1583.44
	183	1.83	6.80566E-001	1.22961E-003	0.00000E+000	3.70030E-001	0.00000E+000	10	...........	1583.44
	184	1.84	6.82844E-001	1.22962E-003	0.00000E+000	3.70030E-001	0.00000E+000	10	...........	1583.44
	185	1.85	6.85090E-001	1.22960E-003	0.00000E+000	3.70030E-001	0.00000E+000	10	...........	1583.44
	186	1.86	6.87353E-001	1.22961E-003	0.00000E+000	3.70030E-001	0.00000E+000	10	...........	1583.44
	187	1.87	6.89619E-001	1.22959E-003	0.00000E+000	3.70030E-001	0.00000E+000	10	...........	1583.44
	188	1.88	6.91903E-001	1.22967E-003	0.00000E+000	3.70030E-001	0.00000E+000	10	...........	1583.44
	189	1.89	6.94150E-001	1.22967E-003	0.00000E+000	3.70030E-001	0.00000E+000	10	...........	1583.44
	190	1.9	6.96360E-001	1.22967E-003	0.00000E+000	3.70030E-001	0.00000E+000	10	...........	1583.44
	191	1.91	6.98593E-001	1.22960E-003	0.00000E+000	3.70030E-001	0.00000E+000	10	...........	1583.44
	192	1.92	7.00821E-001	1.22960E-003	0.00000E+000	3.70030E-001	0.00000E+000	10	...........	1583.44
	193	1.93	7.03013E-001	1.22961E-003	0.00000E+000	3.70030E-001	0.00000E+000	10	...........	1583.44
	194	1.94	7.05270E-001	1.22960E-003	0.00000E+000	3.70030E-001	0.00000E+000	10	...........	1583.44
	195	1.95	7.07469E-001	1.22962E-003	0.00000E+000	3.70030E-001	0.00000E+000	10	...........	1583.44
	196	1.96	7.09673E-001	1.22962E-003	0.00000E+000	3.70030E-001	0.00000E+000	10	...........	1583.44
	197	1.97	7.11862E-001	1.22967E-003	0.00000E+000	3.70030E-001	0.00000E+000	10	...........	1583.44
	198	1.98	7.14039E-001	1.22958E-003	0.00000E+000	3.70030E-001	0.00000E+000	10	...........	1583.44
	199	1.99	7.16196E-001	1.22959E-003	0.00000E+000	3.70030E-001	0.00000E+000	10	...........	1583.44
	200	2	7.18412E-001	1.22959E-003	0.00000E+000	3.70030E-001	0.00000E+000	10	...........	1583.44
	201	2.01	7.20568E-001	1.22966E-003	0.00000E+000	3.70030E-001	0.00000E+000	10	...........	1583.44
	202	2.02	7.22707E-001	1.22965E-003	0.00000E+000	3.70030E-001	0.00000E+000	10	...........	1583.44
	203	2.03	7.24855E-001	1.22958E-003	0.00000E+000	3.70030E-001	0.00000E+000	10	...........	1583.44
	204	2.04	7.26983E-001	1.22958E-003	0.00000E+000	3.70030E-001	0.00000E+000	10	...........	1583.44
	205	2.05	7.29111E-001	1.22961E-003	0.00000E+000	3.70030E-001	0.00000E+000	10	...........	1583.44
	206	2.06	7.31263E-001	1.22960E-003	0.00000E+000	3.70030E-001	0.00000E+000	10	...........	1583.44
	207	2.07	7.33366E-001	1.22961E-003	0.00000E+000	3.70030E-001	0.00000E+000	10	...........	1583.44
	208	2.08	7.35463E-001	1.22960E-003	0.00000E+000	3.70030E-001	0.00000E+000	10	...........	1583.44
	209	2.09	7.37576E-001	1.22960E-003	0.00000E+000	3.70030E-001	0.00000E+000	10	...........	1583.44
	210	2.1	7.39667E-001	1.22965E-003	0.00000E+000	3.70030E-001	0.00000E+000	10	...........	1583.44
	211	2.11	7.41745E-001	1.22962E-003	0.00000E+000	3.70030E-001	0.00000E+000	10	...........	1583.44
	212	2.12	7.43832E-001	1.22960E-003	0.00000E+000	3.70030E-001	0.00000E+000	10	...........	1583.44
	213	2.13	7.45884E-001	1.22956E-003	0.00000E+000	3.70030E-001	0.00000E+000	10	...........	1583.44
	214	2.14	7.47953E-001	1.22956E-003	0.00000E+000	3.70030E-001	0.00000E+000	10	...........	1583.44
	215	2.15	7.49992E-001	1.22958E-003	0.00000E+000	3.70030E-001	0.00000E+000	10	...........	1583.44
	216	2.16	7.52028E-001	1.22963E-003	0.00000E+000	3.70030E-001	0.00000E+000	10	...........	1583.44
	217	2.17	7.54074E-001	1.22962E-003	0.00000E+000	3.70030E-001	0.00000E+000	10	...........	1583.44
	218	2.18	7.56100E-001	1.22962E-003	0.00000E+000	3.70030E-001	0.00000E+000	10	...........	1583.44
	219	2.19	7.58093E-001	1.22961E-003	0.00000E+000	3.70030E-001	0.00000E+000	10	...........	1583.44
	220	2.2	7.60075E-001	1.22960E-003	0.00000E+000	3.70030E-001	0.00000E+000	10	...........	1583.44
	221	2.21	7.62070E-001	1.22963E-003	0.00000E+000	3.70030E-001	0.00000E+000	10	...........	1583.44
	222	2.22	7.64044E-001	1.22960E-003	0.00000E+000	3.70030E-001	0.00000E+000	10	...........	1583.44
	223	2.23	7.66009E-001	1.22962E-003	0.00000E+000	3.70030E-001	0.00000E+000	10	...........	1583.44
	224	2.24	7.67964E-001	1.22960E-003	0.00000E+000	3.70030E-001	0.00000E+000	10	...........	1583.44
	225	2.25	7.69946E-001	1.22963E-003	0.00000E+000	3.70030E-001	0.00000E+000	10	...........	1583.44
	226	2.26	7.71890E-001	1.22960E-003	0.00000E+000	3.70030E-001	0.00000E+000	10	...........	1583.44
	227	2.27	7.73823E-001	1.22963E-003	0.00000E+000	3.70030E-001	0.00000E+000	10	...........	1583.44
	228	2.28	7.75733E-001	1.22957E-003	0.00000E+000	3.70030E-001	0.00000E+000	10	...........	1583.44
	229	2.29	7.77637E-001	1.22965E-003	0.00000E+000	3.70030E-001	0.00000E+000	10	...........	1583.44
	230	2.3	7.79557E-001	1.22969E-003	0.00000E+000	3.70030E-001	0.00000E+000	10	...........	1583.44
	231	2.31	7.81475E-001	1.22968E-003	0.00000E+000	3.70030E-001	0.00000E+000	10	...........	1583.44
	232	2.32	7.83354E-001	1.22964E-003	0.00000E+000	3.70030E-001	0.00000E+000	10	...........	1583.44
	233	2.33	7.85221E-001	1.22967E-003	0.00000E+000	3.70030E-001	0.00000E+000	10	...........	1583.44
	234	2.34	7.87062E-001	1.22961E-003	0.00000E+000	3.70030E-001	0.00000E+000	10	...........	1583.44
	235	2.35	7.88907E-001	1.22958E-003	0.00000E+000	3.70030E-001	0.00000E+000	10	...........	1583.44
	236	2.36	7.90723E-001	1.22959E-003	0.00000E+000	3.70030E-001	0.00000E+000	10	...........	1583.44
	237	2.37	7.92540E-001	1.22958E-003	0.00000E+000	3.70030E-001	0.00000E+000	10	...........	1583.44
	238	2.38	7.94372E-001	1.22965E-003	0.00000E+000	3.70030E-001	0.00000E+000	10	...........	1583.44
	239	2.39	7.96203E-001	1.22963E-003	0.00000E+000	3.70030E-001	0.00000E+000	10	...........	1583.44
	240	2.4	7.98016E-001	1.22966E-003	0.00000E+000	3.70030E-001	0.00000E+000	10	...........	1583.44
	241	2.41	7.99800E-001	1.22968E-003	0.00000E+000	3.70030E-001	0.00000E+000	10	...........	1583.44
	242	2.42	8.01572E-001	1.22961E-003	0.00000E+000	3.70030E-001	0.00000E+000	10	...........	1583.44
	243	2.43	8.03344E-001	1.22960E-003	0.00000E+000	3.70030E-001	0.00000E+000	10	...........	1583.44
	244	2.44	8.05095E-001	1.22964E-003	0.00000E+000	3.70030E-001	0.00000E+000	10	...........	1583.44
	245	2.45	7.73781E-001	-1.22985E-003	0.00000E+000	-3.70030E-001	0.00000E+000	10	...........	1583.44
	246	2.46	7.68037E-001	-1.22994E-003	0.00000E+000	-3.70030E-001	0.00000E+000	10	...........	1583.44
	247	2.47	7.63268E-001	-1.22995E-003	0.00000E+000	-3.70030E-001	0.00000E+000	10	...........	1583.44
	248	2.48	7.59004E-001	-1.22993E-003	0.00000E+000	-3.70030E-001	0.00000E+000	10	...........	1583.44
	249	2.49	7.54953E-001	-1.22996E-003	0.00000E+000	-3.70030E-001	0.00000E+000	10	...........	1583.44
	250	2.5	7.51107E-001	-1.23001E-003	0.00000E+000	-3.70030E-001	0.00000E+000	10	...........	1583.44
	251	2.51	7.47411E-001	-1.22998E-003	0.00000E+000	-3.70030E-001	0.00000E+000	10	...........	1583.44
	252	2.52	7.43775E-001	-1.23004E-003	0.00000E+000	-3.70030E-001	0.00000E+000	10	...........	1583.44
	253	2.53	7.40216E-001	-1.22999E-003	0.00000E+000	-3.70030E-001	0.00000E+000	10	...........	1583.44
	254	2.54	7.36778E-001	-1.22999E-003	0.00000E+000	-3.70030E-001	0.00000E+000	10	...........	1583.44
	255	2.55	7.33355E-001	-1.23001E-003	0.00000E+000	-3.70030E-001	0.00000E+000	10	...........	1583.44
	256	2.56	7.29988E-001	-1.23004E-003	0.00000E+000	-3.70030E-001	0.00000E+000	10	...........	1583.44
	257	2.57	7.26629E-001	-1.23002E-003	0.00000E+000	-3.70030E-001	0.00000E+000	10	...........	1583.44
	258	2.58	7.23372E-001	-1.23003E-003	0.00000E+000	-3.70030E-001	0.00000E+000	10	...........	1583.44
	259	2.59	7.20074E-001	-1.23005E-003	0.00000E+000	-3.70030E-001	0.00000E+000	10	...........	1583.44
	260	2.6	7.16795E-001	-1.23006E-003	0.00000E+000	-3.70030E-001	0.00000E+000	10	...........	1583.44
	261	2.61	7.13597E-001	-1.23011E-003	0.00000E+000	-3.70030E-001	0.00000E+000	10	...........	1583.44
	262	2.62	7.10378E-001	-1.23009E-003	0.00000E+000	-3.70030E-001	0.00000E+000	10	...........	1583.44
	263	2.63	7.07207E-001	-1.23012E-003	0.00000E+000	-3.70030E-001	0.00000E+000	10	...........	1583.44
	264	2.64	7.04030E-001	-1.23012E-003	0.00000E+000	-3.70030E-001	0.00000E+000	10	...........	1583.44
	265	2.65	7.00854E-001	-1.23014E-003	0.00000E+000	-3.70030E-001	0.00000E+000	10	...........	1583.44
	266	2.66	6.97718E-001	-1.23011E-003	0.00000E+000	-3.70030E-001	0.00000E+000	10	...........	1583.44
	267	2.67	6.94610E-001	-1.23012E-003	0.00000E+000	-3.70030E-001	0.00000E+000	10	...........	1583.44
	268	2.68	6.91450E-001	-1.23008E-003	0.00000E+000	-3.70030E-001	0.00000E+000	10	...........	1583.44
	269	2.69	6.88351E-001	-1.23004E-003	0.00000E+000	-3.70030E-001	0.00000E+000	10	...........	1583.44
	270	2.7	6.85274E-001	-1.23009E-003	0.00000E+000	-3.70030E-001	0.00000E+000	10	...........	1583.25
	271	2.71	6.82168E-001	-1.23011E-003	0.00000E+000	-3.70030E-001	0.00000E+000	10	...........	1583.25
	272	2.72	6.79092E-001	-1.23016E-003	0.00000E+000	-3.70030E-001	0.00000E+000	10	...........	1583.25
	273	2.73	6.75989E-001	-1.23014E-003	0.00000E+000	-3.70030E-001	0.00000E+000	10	...........	1583.25
	274	2.74	6.72918E-001	-1.23012E-003	0.00000E+000	-3.70030E-001	0.00000E+000	10	...........	1583.25
	275	2.75	6.69861E-001	-1.23015E-003	0.00000E+000	-3.70030E-001	0.00000E+000	10	...........	1583.25
	276	2.76	6.66811E-001	-1.23014E-003	0.00000E+000	-3.70030E-001	0.00000E+000	10	...........	1583.25
	277	2.77	6.63730E-001	-1.23012E-003	0.00000E+000	-3.70030E-001	0.00000E+000	10	...........	1583.25
	278	2.78	6.60707E-001	-1.23015E-003	0.00000E+000	-3.70030E-001	0.00000E+000	10	...........	1583.25
	279	2.79	6.57660E-001	-1.23011E-003	0.00000E+000	-3.70030E-001	0.00000E+000	10	...........	1583.25
	280	2.8	6.54663E-001	-1.23013E-003	0.00000E+000	-3.70030E-001	0.00000E+000	10	...........	1583.25
	281	2.81	6.51631E-001	-1.23014E-003	0.00000E+000	-3.70030E-001	0.00000E+000	10	...........	1583.25
	282	2.82	6.48625E-001	-1.23012E-003	0.00000E+000	-3.70030E-001	0.00000E+000	10	...........	1583.25
	283	2.83	6.45615E-001	-1.23012E-003	0.00000E+000	-3.70030E-001	0.00000E+000	10	...........	1583.25
	284	2.84	6.42626E-001	-1.23016E-003	0.00000E+000	-3.70030E-001	0.00000E+000	10	...........	1583.25
	285	2.85	6.39605E-001	-1.23013E-003	0.00000E+000	-3.70030E-001	0.00000E+000	10	...........	1583.25
	286	2.86	6.36637E-001	-1.23011E-003	0.00000E+000	-3.70030E-001	0.00000E+000	10	...........	1583.25
	287	2.87	6.33665E-001	-1.23010E-003	0.00000E+000	-3.70030E-001	0.00000E+000	10	...........	1583.25
	288	2.88	6.30692E-001	-1.23010E-003	0.00000E+000	-3.70030E-001	0.00000E+000	10	...........	1583.25
	289	2.89	6.27729E-001	-1.23012E-003	0.00000E+000	-3.70030E-001	0.00000E+000	10	...........	1583.25
	290	2.9	6.24735E-001	-1.23017E-003	0.00000E+000	-3.70030E-001	0.00000E+000	10	...........	1583.25
	291	2.91	6.21781E-001	-1.23017E-003	0.00000E+000	-3.70030E-001	0.00000E+000	10	...........	1583.25
	292	2.92	6.18833E-001	-1.23017E-003	0.00000E+000	-3.70030E-001	0.00000E+000	10	...........	1583.25
	293	2.93	6.15905E-001	-1.23018E-003	0.00000E+000	-3.70030E-001	0.00000E+000	10	...........	1583.25
	294	2.94	6.12938E-001	-1.23011E-003	0.00000E+000	-3.70030E-001	0.00000E+000	10	...........	1583.25
	295	2.95	6.10020E-001	-1.23011E-003	0.00000E+000	-3.70030E-001	0.00000E+000	10	...........	1583.25
	296	2.96	6.07100E-001	-1.23013E-003	0.00000E+000	-3.70030E-001	0.00000E+000	10	...........	1583.25
	297	2.97	6.04201E-001	-1.23008E-003	0.00000E+000	-3.70030E-001	0.00000E+000	10	...........	1583.25
	298	2.98	6.01273E-001	-1.23011E-003	0.00000E+000	-3.70030E-001	0.00000E+000	10	...........	1583.25
	299	2.99	5.98359E-001	-1.23009E-003	0.00000E+000	-3.70030E-001	0.00000E+000	10	...........	1583.25
	300	3	5.95484E-001	-1.23013E-003	0.00000E+000	-3.70030E-001	0.00000E+000	10	...........	1583.25
	301	3.01	5.92602E-001	-1.23012E-003	0.00000E+000	-3.70030E-001	0.00000E+000	10	...........	1583.25
	302	3.02	5.89733E-001	-1.23010E-003	0.00000E+000	-3.70030E-001	0.00000E+000	10	...........	1583.25
	303	3.03	5.86844E-001	-1.23011E-003	0.00000E+000	-3.70030E-001	0.00000E+000	10	...........	1583.25
	304	3.04	5.83974E-001	-1.23010E-003	0.00000E+000	-3.70030E-001	0.00000E+000	10	...........	1583.25
	305	3.05	5.81123E-001	-1.23014E-003	0.00000E+000	-3.70030E-001	0.00000E+000	10	...........	1583.25
	306	3.06	5.78283E-001	-1.23010E-003	0.00000E+000	-3.70030E-001	0.00000E+000	10	...........	1583.25
	307	3.07	5.75408E-001	-1.23012E-003	0.00000E+000	-3.70030E-001	0.00000E+000	10	...........	1583.25
	308	3.08	5.72582E-001	-1.23014E-003	0.00000E+000	-3.70030E-001	0.00000E+000	10	...........	1583.25
	309	3.09	5.69735E-001	-1.23014E-003	0.00000E+000	-3.70030E-001	0.00000E+000	10	...........	1583.25
	310	3.1	5.66937E-001	-1.23013E-003	0.00000E+000	-3.70030E-001	0.00000E+000	10	...........	1583.25
	311	3.11	5.64127E-001	-1.23014E-003	0.00000E+000	-3.70030E-001	0.00000E+000	10	...........	1583.25
	312	3.12	5.61313E-001	-1.23011E-003	0.00000E+000	-3.70030E-001	0.00000E+000	10	...........	1583.25
	313	3.13	5.58512E-001	-1.23013E-003	0.00000E+000	-3.70030E-001	0.00000E+000	10	...........	1583.25
	314	3.14	5.55706E-001	-1.23011E-003	0.00000E+000	-3.70030E-001	0.00000E+000	10	...........	1583.25
	315	3.15	5.52918E-001	-1.23016E-003	0.00000E+000	-3.70030E-001	0.00000E+000	10	...........	1583.25
	316	3.16	5.50131E-001	-1.23017E-003	0.00000E+000	-3.70030E-001	0.00000E+000	10	...........	1583.25
	317	3.17	5.47374E-001	-1.23016E-003	0.00000E+000	-3.70030E-001	0.00000E+000	10	...........	1583.25
	318	3.18	5.44642E-001	-1.23016E-003	0.00000E+000	-3.70030E-001	0.00000E+000	10	...........	1583.25
	319	3.19	5.41858E-001	-1.23015E-003	0.00000E+000	-3.70030E-001	0.00000E+000	10	...........	1583.25
	320	3.2	5.39126E-001	-1.23011E-003	0.00000E+000	-3.70030E-001	0.00000E+000	10	...........	1583.25
	321	3.21	5.36371E-001	-1.23009E-003	0.00000E+000	-3.70030E-001	0.00000E+000	10	...........	1583.25
	322	3.22	5.33627E-001	-1.23014E-003	0.00000E+000	-3.70030E-001	0.00000E+000	10	...........	1583.25
	323	3.23	5.30891E-001	-1.23012E-003	0.00000E+000	-3.70030E-001	0.00000E+000	10	...........	1583.25
	324	3.24	5.28197E-001	-1.23011E-003	0.00000E+000	-3.70030E-001	0.00000E+000	10	...........	1583.25
	325	3.25	5.25476E-001	-1.23011E-003	0.00000E+000	-3.70030E-001	0.00000E+000	10	...........	1583.25
	326	3.26	5.22768E-001	-1.23008E-003	0.00000E+000	-3.70030E-001	0.00000E+000	10	...........	1583.25
	327	3.27	5.20084E-001	-1.23006E-003	0.00000E+000	-3.70030E-001	0.00000E+000	10	...........	1583.25
	328	3.28	5.17395E-001	-1.23010E-003	0.00000E+000	-3.70030E-001	0.00000E+000	10	...........	1583.25
	329	3.29	5.14716E-001	-1.23007E-003	0.00000E+000	-3.70030E-001	0.00000E+000	10	...........	1583.25
	330	3.3	5.12033E-001	-1.23008E-003	0.00000E+000	-3.70030E-001	0.00000E+000	10	...........	1583.25
	331	3.31	5.09350E-001	-1.23010E-003	0.00000E+000	-3.70030E-001	0.00000E+000	10	...........	1583.25
	332	3.32	5.06699E-001	-1.23012E-003	0.00000E+000	-3.70030E-001	0.00000E+000	10	...........	1583.25
	333	3.33	5.04058E-001	-1.23012E-003	0.00000E+000	-3.70030E-001	0.00000E+000	10	...........	1583.25
	334	3.34	5.01408E-001	-1.23012E-003	0.00000E+000	-3.70030E-001	0.00000E+000	10	...........	1583.25
	335	3.35	4.98741E-001	-1.23014E-003	0.00000E+000	-3.70030E-001	0.00000E+000	10	...........	1583.25
	336	3.36	4.96120E-001	-1.23017E-003	0.00000E+000	-3.70030E-001	0.00000E+000	10	...........	1583.25
	337	3.37	4.93514E-001	-1.23012E-003	0.00000E+000	-3.70030E-001	0.00000E+000	10	...........	1583.25
	338	3.38	4.90892E-001	-1.23011E-003	0.00000E+000	-3.70030E-001	0.00000E+000	10	...........	1583.25
	339	3.39	4.88269E-001	-1.23014E-003	0.00000E+000	-3.70030E-001	0.00000E+000	10	...........	1583.25
	340	3.4	4.85649E-001	-1.23010E-003	0.00000E+000	-3.70030E-001	0.00000E+000	10	...........	1583.25
	341	3.41	4.83058E-001	-1.23015E-003	0.00000E+000	-3.70030E-001	0.00000E+000	10	...........	1583.25
	342	3.42	4.80470E-001	-1.23014E-003	0.00000E+000	-3.70030E-001	0.00000E+000	10	...........	1583.25
	343	3.43	4.77890E-001	-1.23009E-003	0.00000E+000	-3.70030E-001	0.00000E+000	10	...........	1583.25
	344	3.44	4.75330E-001	-1.23011E-003	0.00000E+000	-3.70030E-001	0.00000E+000	10	...........	1583.25
	345	3.45	4.72720E-001	-1.23016E-003	0.00000E+000	-3.70030E-001	0.00000E+000	10	...........	1583.25
	346	3.46	4.70182E-001	-1.23011E-003	0.00000E+000	-3.70030E-001	0.00000E+000	10	...........	1583.25
	347	3.47	4.67641E-001	-1.23010E-003	0.00000E+000	-3.70030E-001	0.00000E+000	10	...........	1583.25
	348	3.48	4.65098E-001	-1.23007E-003	0.00000E+000	-3.70030E-001	0.00000E+000	10	...........	1583.25
	349	3.49	4.62589E-001	-1.23012E-003	0.00000E+000	-3.70030E-001	0.00000E+000	10	...........	1583.25
	350	3.5	4.59995E-001	-1.23015E-003	0.00000E+000	-3.70030E-001	0.00000E+000	10	...........	1583.25
	351	3.51	4.57481E-001	-1.23012E-003	0.00000E+000	-3.70030E-001	0.00000E+000	10	...........	1583.25
	352	3.52	4.54981E-001	-1.23016E-003	0.00000E+000	-3.70030E-001	0.00000E+000	10	...........	1583.25
	353	3.53	4.52464E-001	-1.23014E-003	0.00000E+000	-3.70030E-001	0.00000E+000	10	...........	1583.25
	354	3.54	4.49943E-001	-1.23010E-003	0.00000E+000	-3.70030E-001	0.00000E+000	10	...........	1583.25
	355	3.55	4.47447E-001	-1.23012E-003	0.00000E+000	-3.70030E-001	0.00000E+000	10	...........	1583.25
	356	3.56	4.44952E-001	-1.23014E-003	0.00000E+000	-3.70030E-001	0.00000E+000	10	...........	1583.25
	357	3.57	4.42463E-001	-1.23013E-003	0.00000E+000	-3.70030E-001	0.00000E+000	10	...........	1583.25
	358	3.58	4.40007E-001	-1.23011E-003	0.00000E+000	-3.70030E-001	0.00000E+000	10	...........	1583.25
	359	3.59	4.37527E-001	-1.23006E-003	0.00000E+000	-3.70030E-001	0.00000E+000	10	...........	1583.25
	360	3.6	4.35060E-001	-1.23007E-003	0.00000E+000	-3.70030E-001	0.00000E+000	10	...........	1583.25
	361	3.61	4.32601E-001	-1.23011E-003	0.00000E+000	-3.70030E-001	0.00000E+000	10	...........	1583.25
	362	3.62	4.30131E-001	-1.23013E-003	0.00000E+000	-3.70030E-001	0.00000E+000	10	...........	1583.25
	363	3.63	4.27675E-001	-1.23009E-003	0.00000E+000	-3.70030E-001	0.00000E+000	10	...........	1583.25
	364	3.64	4.25261E-001	-1.23010E-003	0.00000E+000	-3.70030E-001	0.00000E+000	10	...........	1583.25
	365	3.65	4.22835E-001	-1.23007E-003	0.00000E+000	-3.70030E-001	0.00000E+000	10	...........	1583.25
	366	3.66	4.20383E-001	-1.23017E-003	0.00000E+000	-3.70030E-001	0.00000E+000	10	...........	1583.25
	367	3.67	4.17973E-001	-1.23011E-003	0.00000E+000	-3.70030E-001	0.00000E+000	10	...........	1583.25
	368	3.68	4.15548E-001	-1.23017E-003	0.00000E+000	-3.70030E-001	0.00000E+000	10	...........	1583.25
	369	3.69	4.13161E-001	-1.23012E-003	0.00000E+000	-3.70030E-001	0.00000E+000	10	...........	1583.25
	370	3.7	4.10732E-001	-1.23012E-003	0.00000E+000	-3.70030E-001	0.00000E+000	10	...........	1583.25
	371	3.71	4.08329E-001	-1.23016E-003	0.00000E+000	-3.70030E-001	0.00000E+000	10	...........	1583.25
	372	3.72	4.05933E-001	-1.23010E-003	0.00000E+000	-3.70030E-001	0.00000E+000	10	...........	1583.25
	373	3.73	4.03564E-001	-1.23009E-003	0.00000E+000	-3.70030E-001	0.00000E+000	10	...........	1583.25
	374	3.74	4.01186E-001	-1.23012E-003	0.00000E+000	-3.70030E-001	0.00000E+000	10	...........	1583.25
	375	3.75	3.98805E-001	-1.23012E-003	0.00000E+000	-3.70030E-001	0.00000E+000	10	...........	1583.25
	376	3.76	3.96427E-001	-1.23011E-003	0.00000E+000	-3.70030E-001	0.00000E+000	10	...........	1583.25
	377	3.77	3.94088E-001	-1.23009E-003	0.00000E+000	-3.70030E-001	0.00000E+000	10	...........	1583.25
	378	3.78	3.91720E-001	-1.23016E-003	0.00000E+000	-3.70030E-001	0.00000E+000	10	...........	1583.25
	379	3.79	3.89356E-001	-1.23015E-003	0.00000E+000	-3.70030E-001	0.00000E+000	10	...........	1583.25
	380	3.8	3.87016E-001	-1.23015E-003	0.00000E+000	-3.70030E-001	0.00000E+000	10	...........	1583.25
	381	3.81	3.84663E-001	-1.23015E-003	0.00000E+000	-3.70030E-001	0.00000E+000	10	...........	1583.25
	382	3.82	3.82313E-001	-1.23012E-003	0.00000E+000	-3.70030E-001	0.00000E+000	10	...........	1583.25
	383	3.83	3.80024E-001	-1.23009E-003	0.00000E+000	-3.70030E-001	0.00000E+000	10	...........	1583.25
	384	3.84	3.77694E-001	-1.23012E-003	0.00000E+000	-3.70030E-001	0.00000E+000	10	...........	1583.25
	385	3.85	3.75377E-001	-1.23014E-003	0.00000E+000	-3.70030E-001	0.00000E+000	10	...........	1583.25
	386	3.86	3.73067E-001	-1.23011E-003	0.00000E+000	-3.70030E-001	0.00000E+000	10	...........	1583.25
	387	3.87	3.70741E-001	-1.23019E-003	0.00000E+000	-3.70030E-001	0.00000E+000	10	...........	1583.25
	388	3.88	3.68439E-001	-1.23013E-003	0.00000E+000	-3.70030E-001	0.00000E+000	10	...........	1583.25
	389	3.89	3.66154E-001	-1.23016E-003	0.00000E+000	-3.70030E-001	0.00000E+000	10	...........	1583.25
	390	3.9	3.63869E-001	-1.23015E-003	0.00000E+000	-3.70030E-001	0.00000E+000	10	...........	1583.25
	391	3.91	3.61562E-001	-1.23015E-003	0.00000E+000	-3.70030E-001	0.00000E+000	10	...........	1583.25
	392	3.92	3.59300E-001	-1.23016E-003	0.00000E+000	-3.70030E-001	0.00000E+000	10	...........	1583.25
	393	3.93	3.57005E-001	-1.23016E-003	0.00000E+000	-3.70030E-001	0.00000E+000	10	...........	1583.25
	394	3.94	3.54744E-001	-1.23015E-003	0.00000E+000	-3.70030E-001	0.00000E+000	10	...........	1583.25
	395	3.95	3.52493E-001	-1.23017E-003	0.00000E+000	-3.70030E-001	0.00000E+000	10	...........	1583.25
	396	3.96	3.50224E-001	-1.23009E-003	0.00000E+000	-3.70030E-001	0.00000E+000	10	...........	1583.25
	397	3.97	3.47999E-001	-1.23013E-003	0.00000E+000	-3.70030E-001	0.00000E+000	10	...........	1583.25
	398	3.98	3.45743E-001	-1.23006E-003	0.00000E+000	-3.70030E-001	0.00000E+000	10	...........	1583.25
	399	3.99	3.43505E-001	-1.23013E-003	0.00000E+000	-3.70030E-001	0.00000E+000	10	...........	1583.25
	400	4	3.41259E-001	-1.23011E-003	0.00000E+000	-3.70030E-001	0.00000E+000	10	...........	1583.25
	401	4.01	3.39010E-001	-1.23014E-003	0.00000E+000	-3.70030E-001	0.00000E+000	10	...........	1583.25
	402	4.02	3.36801E-001	-1.23012E-003	0.00000E+000	-3.70030E-001	0.00000E+000	10	...........	1583.25
	403	4.03	3.34582E-001	-1.23007E-003	0.00000E+000	-3.70030E-001	0.00000E+000	10	...........	1583.25
	404	4.04	3.32335E-001	-1.23011E-003	0.00000E+000	-3.70030E-001	0.00000E+000	10	...........	1583.25
	405	4.05	3.30131E-001	-1.23014E-003	0.00000E+000	-3.70030E-001	0.00000E+000	10	...........	1583.25
	406	4.06	3.27940E-001	-1.23014E-003	0.00000E+000	-3.70030E-001	0.00000E+000	10	...........	1583.25
	407	4.07	3.25729E-001	-1.23013E-003	0.00000E+000	-3.70030E-001	0.00000E+000	10	...........	1583.25
	408	4.08	3.23528E-001	-1.23013E-003	0.00000E+000	-3.70030E-001	0.00000E+000	10	...........	1583.25
	409	4.09	3.21367E-001	-1.23010E-003	0.00000E+000	-3.70030E-001	0.00000E+000	10	...........	1583.25
	410	4.1	3.19156E-001	-1.23011E-003	0.00000E+000	-3.70030E-001	0.00000E+000	10	...........	1583.25
	411	4.11	3.16977E-001	-1.23013E-003	0.00000E+000	-3.70030E-001	0.00000E+000	10	...........	1583.25
	412	4.12	3.14824E-001	-1.23015E-003	0.00000E+000	-3.70030E-001	0.00000E+000	10	...........	1583.25
	413	4.13	3.12636E-001	-1.23012E-003	0.00000E+000	-3.70030E-001	0.00000E+000	10	...........	1583.25
	414	4.14	3.10490E-001	-1.23013E-003	0.00000E+000	-3.70030E-001	0.00000E+000	10	...........	1583.25
	415	4.15	3.08343E-001	-1.23018E-003	0.00000E+000	-3.70030E-001	0.00000E+000	10	...........	1583.25
	416	4.16	3.06150E-001	-1.23007E-003	0.00000E+000	-3.70030E-001	0.00000E+000	10	...........	1583.25
	417	4.17	3.03999E-001	-1.23013E-003	0.00000E+000	-3.70030E-001	0.00000E+000	10	...........	1583.25
	418	4.18	3.01856E-001	-1.23016E-003	0.00000E+000	-3.70030E-001	0.00000E+000	10	...........	1583.25
	419	4.19	2.99705E-001	-1.23014E-003	0.00000E+000	-3.70030E-001	0.00000E+000	10	...........	1583.25
	420	4.2	2.97588E-001	-1.23014E-003	0.00000E+000	-3.70030E-001	0.00000E+000	10	...........	1583.25
	421	4.21	2.95452E-001	-1.23017E-003	0.00000E+000	-3.70030E-001	0.00000E+000	10	...........	1583.25
	422	4.22	2.93306E-001	-1.23017E-003	0.00000E+000	-3.70030E-001	0.00000E+000	10	...........	1583.25
	423	4.23	2.91196E-001	-1.23012E-003	0.00000E+000	-3.70030E-001	0.00000E+000	10	...........	1583.25
	424	4.24	2.89091E-001	-1.23011E-003	0.00000E+000	-3.70030E-001	0.00000E+000	10	...........	1583.25
	425	4.25	2.86996E-001	-1.23009E-003	0.00000E+000	-3.70030E-001	0.00000E+000	10	...........	1583.25
	426	4.26	2.84897E-001	-1.23010E-003	0.00000E+000	-3.70030E-001	0.00000E+000	10	...........	1583.25
	427	4.27	2.82790E-001	-1.23012E-003	0.00000E+000	-3.70030E-001	0.00000E+000	10	...........	1583.25
	428	4.28	2.80666E-001	-1.23014E-003	0.00000E+000	-3.70030E-001	0.00000E+000	10	...........	1583.25
	429	4.29	2.78571E-001	-1.23014E-003	0.00000E+000	-3.70030E-001	0.00000E+000	10	...........	1583.25
	430	4.3	2.76481E-001	-1.23013E-003	0.00000E+000	-3.70030E-001	0.00000E+000	10	...........	1583.25
	431	4.31	2.74421E-001	-1.23013E-003	0.00000E+000	-3.70030E-001	0.00000E+000	10	...........	1583.25
	432	4.32	2.72331E-001	-1.23017E-003	0.00000E+000	-3.70030E-001	0.00000E+000	10	...........	1583.25
	433	4.33	2.70263E-001	-1.23014E-003	0.00000E+000	-3.70030E-001	0.00000E+000	10	...........	1583.25
	434	4.34	2.68167E-001	-1.23016E-003	0.00000E+000	-3.70030E-001	0.00000E+000	10	...........	1583.25
	435	4.35	2.66106E-001	-1.23017E-003	0.00000E+000	-3.70030E-001	0.00000E+000	10	...........	1583.25
	436	4.36	2.64041E-001	-1.23016E-003	0.00000E+000	-3.70030E-001	0.00000E+000	10	...........	1583.25
	437	4.37	2.61993E-001	-1.23015E-003	0.00000E+000	-3.70030E-001	0.00000E+000	10	...........	1583.25
	438	4.38	2.59945E-001	-1.23019E-003	0.00000E+000	-3.70030E-001	0.00000E+000	10	...........	1583.25
	439	4.39	2.57901E-001	-1.23012E-003	0.00000E+000	-3.70030E-001	0.00000E+000	10	...........	1583.25
	440	4.4	2.55857E-001	-1.23010E-003	0.00000E+000	-3.70030E-001	0.00000E+000	10	...........	1583.25
	441	4.41	2.53808E-001	-1.23015E-003	0.00000E+000	-3.70030E-001	0.00000E+000	10	...........	1583.25
	442	4.42	2.51779E-001	-1.23016E-003	0.00000E+000	-3.70030E-001	0.00000E+000	10	...........	1583.25
	443	4.43	2.49747E-001	-1.23019E-003	0.00000E+000	-3.70030E-001	0.00000E+000	10	...........	1583.25
	444	4.44	2.47739E-001	-1.23016E-003	0.00000E+000	-3.70030E-001	0.00000E+000	10	...........	1583.25
	445	4.45	2.45732E-001	-1.23015E-003	0.00000E+000	-3.70030E-001	0.00000E+000	10	...........	1583.25
	446	4.46	2.43729E-001	-1.23016E-003	0.00000E+000	-3.70030E-001	0.00000E+000	10	...........	1583.25
	447	4.47	2.41709E-001	-1.23014E-003	0.00000E+000	-3.70030E-001	0.00000E+000	10	...........	1583.25
	448	4.48	2.39752E-001	-1.23014E-003	0.00000E+000	-3.70030E-001	0.00000E+000	10	...........	1583.25
	449	4.49	2.37755E-001	-1.23010E-003	0.00000E+000	-3.70030E-001	0.00000E+000	10	...........	1583.25
	450	4.5	2.35766E-001	-1.23011E-003	0.00000E+000	-3.70030E-001	0.00000E+000	10	...........	1583.25
	451	4.51	2.33777E-001	-1.23012E-003	0.00000E+000	-3.70030E-001	0.00000E+000	10	...........	1583.25
	452	4.52	2.31793E-001	-1.23014E-003	0.00000E+000	-3.70030E-001	0.00000E+000	10	...........	1583.25
	453	4.53	2.29818E-001	-1.23012E-003	0.00000E+000	-3.70030E-001	0.00000E+000	10	...........	1583.25
	454	4.54	2.27846E-001	-1.23013E-003	0.00000E+000	-3.70030E-001	0.00000E+000	10	...........	1583.25
	455	4.55	2.25881E-001	-1.23009E-003	0.00000E+000	-3.70030E-001	0.00000E+000	10	...........	1583.25
	456	4.56	2.23918E-001	-1.23008E-003	0.00000E+000	-3.70030E-001	0.00000E+000	10	...........	1583.25
	457	4.57	2.21962E-001	-1.23010E-003	0.00000E+000	-3.70030E-001	0.00000E+000	10	...........	1583.25
	458	4.58	2.20009E-001	-1.23011E-003	0.00000E+000	-3.70030E-001	0.00000E+000	10	...........	1583.25
	459	4.59	2.18060E-001	-1.23015E-003	0.00000E+000	-3.70030E-001	0.00000E+000	10	...........	1583.25
	460	4.6	2.16116E-001	-1.23011E-003	0.00000E+000	-3.70030E-001	0.00000E+000	10	...........	1583.25
	461	4.61	2.14178E-001	-1.23012E-003	0.00000E+000	-3.70030E-001	0.00000E+000	10	...........	1583.25
	462	4.62	2.12244E-001	-1.23015E-003	0.00000E+000	-3.70030E-001	0.00000E+000	10	...........	1583.25
	463	4.63	2.10320E-001	-1.23012E-003	0.00000E+000	-3.70030E-001	0.00000E+000	10	...........	1583.25
	464	4.64	2.08391E-001	-1.23015E-003	0.00000E+000	-3.70030E-001	0.00000E+000	10	...........	1583.25
	465	4.65	2.06475E-001	-1.23016E-003	0.00000E+000	-3.70030E-001	0.00000E+000	10	...........	1583.25
	466	4.66	2.04556E-001	-1.23020E-003	0.00000E+000	-3.70030E-001	0.00000E+000	10	...........	1583.25
	467	4.67	2.02648E-001	-1.23016E-003	0.00000E+000	-3.70030E-001	0.00000E+000	10	...........	1583.25
	468	4.68	2.00742E-001	-1.23014E-003	0.00000E+000	-3.70030E-001	0.00000E+000	10	...........	1583.25
	469	4.69	1.98843E-001	-1.23019E-003	0.00000E+000	-3.70030E-001	0.00000E+000	10	...........	1583.25
	470	4.7	1.96944E-001	-1.23015E-003	0.00000E+000	-3.70030E-001	0.00000E+000	10	...........	1583.25
	471	4.71	1.95059E-001	-1.23012E-003	0.00000E+000	-3.70030E-001	0.00000E+000	10	...........	1583.25
	472	4.72	1.93171E-001	-1.23009E-003	0.00000E+000	-3.70030E-001	0.00000E+000	10	...........	1583.25
	473	4.73	1.91292E-001	-1.23012E-003	0.00000E+000	-3.70030E-001	0.00000E+000	10	...........	1583.25
	474	4.74	1.89416E-001	-1.23019E-003	0.00000E+000	-3.70030E-001	0.00000E+000	10	...........	1583.25
	475	4.75	1.87546E-001	-1.23015E-003	0.00000E+000	-3.70030E-001	0.00000E+000	10	...........	1583.25
	476	4.76	1.85682E-001	-1.23020E-003	0.00000E+000	-3.70030E-001	0.00000E+000	10	...........	1583.25
	477	4.77	1.83818E-001	-1.23015E-003	0.00000E+000	-3.70030E-001	0.00000E+000	10	...........	1583.25
	478	4.78	1.81961E-001	-1.23017E-003	0.00000E+000	-3.70030E-001	0.00000E+000	10	...........	1583.25
	479	4.79	1.80107E-001	-1.23019E-003	0.00000E+000	-3.70030E-001	0.00000E+000	10	...........	1583.25
	480	4.8	1.78257E-001	-1.23021E-003	0.00000E+000	-3.70030E-001	0.00000E+000	10	...........	1583.25
	481	4.81	1.76413E-001	-1.23019E-003	0.00000E+000	-3.70030E-001	0.00000E+000	10	...........	1583.25
	482	4.82	1.74578E-001	-1.23014E-003	0.00000E+000	-3.70030E-001	0.00000E+000	10	...........	1583.25
	483	4.83	1.72737E-001	-1.23022E-003	0.00000E+000	-3.70030E-001	0.00000E+000	10	...........	1583.25
	484	4.84	1.70909E-001	-1.23019E-003	0.00000E+000	-3.70030E-001	0.00000E+000	10	...........	1583.25
	485	4.85	1.69091E-001	-1.23017E-003	0.00000E+000	-3.70030E-001	0.00000E+000	10	...........	1583.25
	486	4.86	1.67268E-001	-1.23014E-003	0.00000E+000	-3.70030E-001	0.00000E+000	10	...........	1583.25
	487	4.87	1.65455E-001	-1.23016E-003	0.00000E+000	-3.70030E-001	0.00000E+000	10	...........	1583.25
	488	4.88	1.63650E-001	-1.23015E-003	0.00000E+000	-3.70030E-001	0.00000E+000	10	...........	1583.25
	489	4.89	1.61849E-001	-1.23021E-003	0.00000E+000	-3.70030E-001	0.00000E+000	10	...........	1583.25
	490	4.9	1.60053E-001	-1.23014E-003	0.00000E+000	-3.70030E-001	0.00000E+000	10	...........	1583.25
	491	4.91	1.58258E-001	-1.23016E-003	0.00000E+000	-3.70030E-001	0.00000E+000	10	...........	1583.25
	492	4.92	1.56468E-001	-1.23021E-003	0.00000E+000	-3.70030E-001	0.00000E+000	10	...........	1583.25
	493	4.93	1.54687E-001	-1.23018E-003	0.00000E+000	-3.70030E-001	0.00000E+000	10	...........	1583.25
	494	4.94	1.52904E-001	-1.23019E-003	0.00000E+000	-3.70030E-001	0.00000E+000	10	...........	1583.25
	495	4.95	1.51130E-001	-1.23017E-003	0.00000E+000	-3.70030E-001	0.00000E+000	10	...........	1583.25
	496	4.96	1.49357E-001	-1.23016E-003	0.00000E+000	-3.70030E-001	0.00000E+000	10	...........	1583.25
	497	4.97	1.47589E-001	-1.23019E-003	0.00000E+000	-3.70030E-001	0.00000E+000	10	...........	1583.25
	498	4.98	1.45833E-001	-1.23018E-003	0.00000E+000	-3.70030E-001	0.00000E+000	10	...........	1583.25
	499	4.99	1.44073E-001	-1.23014E-003	0.00000E+000	-3.70030E-001	0.00000E+000	10	...........	1583.25
	500	5	1.42323E-001	-1.23014E-003	0.00000E+000	-3.70030E-001	0.00000E+000	10	...........	1583.25
	501	5.01	1.40576E-001	-1.23016E-003	0.00000E+000	-3.70030E-001	0.00000E+000	10	...........	1583.25
	502	5.02	1.38833E-001	-1.23014E-003	0.00000E+000	-3.70030E-001	0.00000E+000	10	...........	1583.25
	503	5.03	1.37102E-001	-1.23017E-003	0.00000E+000	-3.70030E-001	0.00000E+000	10	...........	1583.25
	504	5.04	1.35369E-001	-1.23011E-003	0.00000E+000	-3.70030E-001	0.00000E+000	10	...........	1583.25
	505	5.05	1.33642E-001	-1.23009E-003	0.00000E+000	-3.70030E-001	0.00000E+000	10	...........	1583.25
	506	5.06	1.31921E-001	-1.23013E-003	0.00000E+000	-3.70030E-001	0.00000E+000	10	...........	1583.25
	507	5.07	1.30206E-001	-1.23012E-003	0.00000E+000	-3.70030E-001	0.00000E+000	10	...........	1583.25
	508	5.08	1.28495E-001	-1.23014E-003	0.00000E+000	-3.70030E-001	0.00000E+000	10	...........	1583.25
	509	5.09	1.26786E-001	-1.23016E-003	0.00000E+000	-3.70030E-001	0.00000E+000	10	...........	1583.25
	510	5.1	1.25083E-001	-1.23016E-003	0.00000E+000	-3.70030E-001	0.00000E+000	10	...........	1583.25
	511	5.11	1.23387E-001	-1.23017E-003	0.00000E+000	-3.70030E-001	0.00000E+000	10	...........	1583.25
	512	5.12	1.21693E-001	-1.23015E-003	0.00000E+000	-3.70030E-001	0.00000E+000	10	...........	1583.25
	513	5.13	1.20006E-001	-1.23014E-003	0.00000E+000	-3.70030E-001	0.00000E+000	10	...........	1583.25
	514	5.14	1.18319E-001	-1.23017E-003	0.00000E+000	-3.70030E-001	0.00000E+000	10	...........	1583.25
	515	5.15	1.16642E-001	-1.23015E-003	0.00000E+000	-3.70030E-001	0.00000E+000	10	...........	1583.25
	516	5.16	1.14964E-001	-1.23017E-003	0.00000E+000	-3.70030E-001	0.00000E+000	10	...........	1583.25
	517	5.17	1.13298E-001	-1.23021E-003	0.00000E+000	-3.70030E-001	0.00000E+000	10	...........	1583.25
	518	5.18	1.11638E-001	-1.23016E-003	0.00000E+000	-3.70030E-001	0.00000E+000	10	...........	1583.25
	519	5.19	1.09974E-001	-1.23018E-003	0.00000E+000	-3.70030E-001	0.00000E+000	10	...........	1583.25
	520	5.2	1.08325E-001	-1.23020E-003	0.00000E+000	-3.70030E-001	0.00000E+000	10	...........	1583.25
	521	5.21	1.06673E-001	-1.23011E-003	0.00000E+000	-3.70030E-001	0.00000E+000	10	...........	1583.25
	522	5.22	1.05034E-001	-1.23016E-003	0.00000E+000	-3.70030E-001	0.00000E+000	10	...........	1583.25
	523	5.23	1.03391E-001	-1.23017E-003	0.00000E+000	-3.70030E-001	0.00000E+000	10	...........	1583.25
	524	5.24	1.01753E-001	-1.23017E-003	0.00000E+000	-3.70030E-001	0.00000E+000	10	...........	1583.25
	525	5.25	1.00128E-001	-1.23013E-003	0.00000E+000	-3.70030E-001	0.00000E+000	10	...........	1583.25
	526	5.26	9.85011E-002	-1.23015E-003	0.00000E+000	-3.70030E-001	0.00000E+000	10	...........	1583.25
	527	5.27	9.68782E-002	-1.23016E-003	0.00000E+000	-3.70030E-001	0.00000E+000	10	...........	1583.25
	528	5.28	9.52633E-002	-1.23011E-003	0.00000E+000	-3.70030E-001	0.00000E+000	10	...........	1583.25
	529	5.29	9.36567E-002	-1.23012E-003	0.00000E+000	-3.70030E-001	0.00000E+000	10	...........	1583.25
	530	5.3	9.20486E-002	-1.23014E-003	0.00000E+000	-3.70030E-001	0.00000E+000	10	...........	1583.25
	531	5.31	9.04508E-002	-1.23014E-003	0.00000E+000	-3.70030E-001	0.00000E+000	10	...........	1583.25
	532	5.32	8.88542E-002	-1.23011E-003	0.00000E+000	-3.70030E-001	0.00000E+000	10	...........	1583.25
	533	5.33	8.72641E-002	-1.23015E-003	0.00000E+000	-3.70030E-001	0.00000E+000	10	...........	1583.25
	534	5.34	8.56748E-002	-1.23015E-003	0.00000E+000	-3.70030E-001	0.00000E+000	10	...........	1583.25
	535	5.35	8.40970E-002	-1.23011E-003	0.00000E+000	-3.70030E-001	0.00000E+000	10	...........	1583.25
	536	5.36	8.25236E-002	-1.23017E-003	0.00000E+000	-3.70030E-001	0.00000E+000	10	...........	1583.25
	537	5.37	8.09563E-002	-1.23011E-003	0.00000E+000	-3.70030E-001	0.00000E+000	10	...........	1583.25
	538	5.38	7.93925E-002	-1.23012E-003	0.00000E+000	-3.70030E-001	0.00000E+000	10	...........	1583.25
	539	5.39	7.78279E-002	-1.23012E-003	0.00000E+000	-3.70030E-001	0.00000E+000	10	...........	1583.25
	540	5.4	7.62747E-002	-1.23015E-003	0.00000E+000	-3.70030E-001	0.00000E+000	10	...........	1583.25
	541	5.41	7.47237E-002	-1.23017E-003	0.00000E+000	-3.70030E-001	0.00000E+000	10	...........	1583.25
	542	5.42	7.31738E-002	-1.23017E-003	0.00000E+000	-3.70030E-001	0.00000E+000	10	...........	1583.25
	543	5.43	7.16279E-002	-1.23017E-003	0.00000E+000	-3.70030E-001	0.00000E+000	10	...........	1583.25
	544	5.44	7.00930E-002	-1.23016E-003	0.00000E+000	-3.70030E-001	0.00000E+000	10	...........	1583.25
	545	5.45	6.85600E-002	-1.23011E-003	0.00000E+000	-3.70030E-001	0.00000E+000	10	...........	1583.25
	546	5.46	6.70328E-002	-1.23010E-003	0.00000E+000	-3.70030E-001	0.00000E+000	10	...........	1583.25
	547	5.47	6.55127E-002	-1.23015E-003	0.00000E+000	-3.70030E-001	0.00000E+000	10	...........	1583.25
	548	5.48	6.39923E-002	-1.23017E-003	0.00000E+000	-3.70030E-001	0.00000E+000	10	...........	1583.25
	549	5.49	6.24788E-002	-1.23018E-003	0.00000E+000	-3.70030E-001	0.00000E+000	10	...........	1583.25
	550	5.5	6.09676E-002	-1.23016E-003	0.00000E+000	-3.70030E-001	0.00000E+000	10	...........	1583.25
	551	5.51	5.94647E-002	-1.23018E-003	0.00000E+000	-3.70030E-001	0.00000E+000	10	...........	1583.25
	552	5.52	5.79671E-002	-1.23017E-003	0.00000E+000	-3.70030E-001	0.00000E+000	10	...........	1583.25
	553	5.53	5.64736E-002	-1.23014E-003	0.00000E+000	-3.70030E-001	0.00000E+000	10	...........	1583.25
	554	5.54	5.49851E-002	-1.23012E-003	0.00000E+000	-3.70030E-001	0.00000E+000	10	...........	1583.25
	555	5.55	5.35014E-002	-1.23017E-003	0.00000E+000	-3.70030E-001	0.00000E+000	10	...........	1583.25
	556	5.56	5.20230E-002	-1.23014E-003	0.00000E+000	-3.70030E-001	0.00000E+000	10	...........	1583.25
	557	5.57	5.05478E-002	-1.23012E-003	0.00000E+000	-3.70030E-001	0.00000E+000	10	...........	1583.25
	558	5.58	4.90764E-002	-1.23017E-003	0.00000E+000	-3.70030E-001	0.00000E+000	10	...........	1583.25
	559	5.59	4.76113E-002	-1.23014E-003	0.00000E+000	-3.70030E-001	0.00000E+000	10	...........	1583.25
	560	5.6	4.61518E-002	-1.23012E-003	0.00000E+000	-3.70030E-001	0.00000E+000	10	...........	1583.25
	561	5.61	4.46946E-002	-1.23011E-003	0.00000E+000	-3.70030E-001	0.00000E+000	10	...........	1583.25
	562	5.62	4.32469E-002	-1.23010E-003	0.00000E+000	-3.70030E-001	0.00000E+000	10	...........	1583.25
	563	5.63	4.18028E-002	-1.23009E-003	0.00000E+000	-3.70030E-001	0.00000E+000	10	...........	1583.25
	564	5.64	4.03592E-002	-1.23015E-003	0.00000E+000	-3.70030E-001	0.00000E+000	10	...........	1583.25
	565	5.65	3.89228E-002	-1.23016E-003	0.00000E+000	-3.70030E-001	0.00000E+000	10	...........	1583.25
	566	5.66	3.74942E-002	-1.23021E-003	0.00000E+000	-3.70030E-001	0.00000E+000	10	...........	1583.25
	567	5.67	3.60649E-002	-1.23015E-003	0.00000E+000	-3.70030E-001	0.00000E+000	10	...........	1583.25
	568	5.68	3.46419E-002	-1.23015E-003	0.00000E+000	-3.70030E-001	0.00000E+000	10	...........	1583.25
	569	5.69	3.32310E-002	-1.23014E-003	0.00000E+000	-3.70030E-001	0.00000E+000	10	...........	1583.25
	570	5.7	3.18147E-002	-1.23017E-003	0.00000E+000	-3.70030E-001	0.00000E+000	10	...........	1583.44
	571	5.71	3.04051E-002	-1.23019E-003	0.00000E+000	-3.70030E-001	0.00000E+000	10	...........	1583.44
	572	5.72	2.90007E-002	-1.23020E-003	0.00000E+000	-3.70030E-001	0.00000E+000	10	...........	1583.44
	573	5.73	2.76048E-002	-1.23017E-003	0.00000E+000	-3.70030E-001	0.00000E+000	10	...........	1583.44
	574	5.74	2.62074E-002	-1.23018E-003	0.00000E+000	-3.70030E-001	0.00000E+000	10	...........	1583.44
	575	5.75	2.48181E-002	-1.23015E-003	0.00000E+000	-3.70030E-001	0.00000E+000	10	...........	1583.44
	576	5.76	2.34360E-002	-1.23022E-003	0.00000E+000	-3.70030E-001	0.00000E+000	10	...........	1583.44
	577	5.77	2.20627E-002	-1.23016E-003	0.00000E+000	-3.70030E-001	0.00000E+000	10	...........	1583.44
	578	5.78	2.06876E-002	-1.23016E-003	0.00000E+000	-3.70030E-001	0.00000E+000	10	...........	1583.44
	579	5.79	1.93166E-002	-1.23010E-003	0.00000E+000	-3.70030E-001	0.00000E+000	10	...........	1583.44
	580	5.8	1.79498E-002	-1.23012E-003	0.00000E+000	-3.70030E-001	0.00000E+000	10	...........	1583.44
	581	5.81	1.65883E-002	-1.23015E-003	0.00000E+000	-3.70030E-001	0.00000E+000	10	...........	1583.44
	582	5.82	1.52348E-002	-1.23013E-003	0.00000E+000	-3.70030E-001	0.00000E+000	10	...........	1583.44
	583	5.83	1.38814E-002	-1.23010E-003	0.00000E+000	-3.70030E-001	0.00000E+000	10	...........	1583.44
	584	5.84	1.25337E-002	-1.23011E-003	0.00000E+000	-3.70030E-001	0.00000E+000	10	...........	1583.44
	585	5.85	1.11897E-002	-1.23011E-003	0.00000E+000	-3.70030E-001	0.00000E+000	10	...........	1583.44
	586	5.86	9.85199E-003	-1.23013E-003	0.00000E+000	-3.70030E-001	0.00000E+000	10	...........	1583.44
	587	5.87	8.51579E-003	-1.23011E-003	0.00000E+000	-3.70030E-001	0.00000E+000	10	...........	1583.44
	588	5.88	7.18520E-003	-1.23015E-003	0.00000E+000	-3.70030E-001	0.00000E+000	10	...........	1583.44
	589	5.89	5.85979E-003	-1.23014E-003	0.00000E+000	-3.70030E-001	0.00000E+000	10	...........	1583.44
	590	5.9	4.53714E-003	-1.23013E-003	0.00000E+000	-3.70030E-001	0.00000E+000	10	...........	1583.44
	591	5.91	3.22402E-003	-1.23013E-003	0.00000E+000	-3.70030E-001	0.00000E+000	10	...........	1583.44
	592	5.92	1.91175E-003	-1.23013E-003	0.00000E+000	-3.70030E-001	0.00000E+000	10	...........	1583.44
	593	5.93	6.04829E-004	-1.23010E-003	0.00000E+000	-3.70030E-001	0.00000E+000	10	...........	1583.44
	594	5.94	-6.97775E-004	-1.23010E-003	0.00000E+000	-3.70030E-001	0.00000E+000	10	...........	1583.44
