EXPLAIN
TAG	CHRONOP
TITLE	LABEL	Chronopotentiometry Scan	Test Identifier
DATE	LABEL	22/1/2025	Date
TIME	LABEL	22:04:47	Time
NOTES	NOTES	1	Notes...
	
PSTAT	PSTAT	IFC1010-42004	Potentiostat
IPRESTEP	QUANT	0.00000E+000	Pre-step Current(A)
TPRESTEP	QUANT	0.00000E+000	Pre-step Delay Time (s)
ISTEP1	QUANT	1.23000E-003	Step 1 Current (A)
TSTEP1	QUANT	5.00000E+003	Step 1 Time (s)
ISTEP2	QUANT	-1.23000E-003	Step 2 Current (A)
TSTEP2	QUANT	5.00000E+003	Step 2 Time (s)
SAMPLETIME	QUANT	1.00000E-002	Sample Period (s)
DECIMATE	TOGGLE	F	Decimate
VLIMITLOWER	QUANT	0.00000E+000	Lower Limit V (V)
VLIMITUPPER	QUANT	8.00000E-001	Upper Limit V (V)
EQDELAY	QUANT	1.00000E+000	Equil. Time (s)
SAMPLINGMODE	SELECTOR	1	Sampling Mode
AREA	QUANT	2.00000E+000	Sample Area (cm^2)
ELECTRODETYPE	SELECTOR	0	Electrode Type
STRIPPING	TOGGLE	F	Used for Stripping
SEQUENCER	TOGGLE	TRUE	Run as Sequence
PSTATMODEL	IQUANT	64	Pstat Model
PSTATSECTION	LABEL	IFC1010-42004	Pstat Section
PSTATSERIALNO	LABEL	42004	Pstat Serial Number
CTRLMODE	IQUANT	0	Control Mode
ELECTROMETER	IQUANT	0	RE=0 or CS=1
IESTAB	IQUANT	0	I/E Stability
CASPEED	IQUANT	4	Control Amp Speed
CONVENTION	IQUANT	1	Current Convention
ICHRANGE	IQUANT	2	Ich Range
ICHRANGEMODE	TOGGLE	T	Ich Auto Range
ICHOFFSETENABLE	TOGGLE	F	Ich Offset Enable
ICHOFFSET	QUANT	0	Ich Offset (V)
ICHFILTER	IQUANT	3	Ich Filter
VCHRANGE	IQUANT	3	Vch Range
VCHRANGEMODE	TOGGLE	T	Vch Auto Range
VCHOFFSETENABLE	TOGGLE	F	Vch Offset Enable
VCHOFFSET	QUANT	0	Vch Offset (V)
VCHFILTER	IQUANT	3	Vch Filter
IERANGELOWERLIMIT	IQUANT	4	I/E Range Lower Limit
IERANGEMODE	TOGGLE	F	I/E AutoRange
IERANGE	IQUANT	11	I/E Range
ACHSELECT	IQUANT	0	Ach Select
ACHRANGE	IQUANT	2	Ach Range
ACHOFFSETENABLE	TOGGLE	F	Ach Offset Enable
ACHOFFSET	QUANT	0	Ach Offset (V)
ACHFILTER	IQUANT	1	Ach Filter
SENSECABLEID	IQUANT	14	Sense Cable ID
PWRCABLEID	IQUANT	14	Power Cable ID
DCCALDATE	LABEL	1/22/2025	DC Calibration Date
ACCALDATE	LABEL	11/15/2024	AC Calibration Date
FRAMEWORKVERSION	LABEL	7.10.4	Framework Version
INSTRUMENTVERSION	LABEL	4.91	Instrument Version
COMMVERSION	LABEL	3.10	Communications Version
CPUPLDVERSION	LABEL	2.54	CPU PLD Version
CTRLPLDVERSION	LABEL	0.00	CTRL PLD Version
PSTATPLDVERSION	LABEL	0.00	PSTAT PLD Version
CURVE	TABLE	618
	Pt	T	Vf	Im	Vu	Sig	Ach	IERange	Over	Temp
	#	s	V vs. Ref.	A	V	V	V	#	bits	deg C
	0	0	4.53159E-001	-5.87716E-007	0.00000E+000	0.00000E+000	0.00000E+000	10	...........	1584.50
	1	0.01	4.65076E-001	1.22920E-003	0.00000E+000	3.70030E-001	0.00000E+000	10	...........	1584.50
	2	0.02	4.67383E-001	1.22922E-003	0.00000E+000	3.70030E-001	0.00000E+000	10	...........	1584.50
	3	0.03	4.69450E-001	1.22927E-003	0.00000E+000	3.70030E-001	0.00000E+000	10	...........	1584.50
	4	0.04	4.71449E-001	1.22928E-003	0.00000E+000	3.70030E-001	0.00000E+000	10	...........	1584.50
	5	0.05	4.73408E-001	1.22935E-003	0.00000E+000	3.70030E-001	0.00000E+000	10	...........	1584.50
	6	0.06	4.75349E-001	1.22929E-003	0.00000E+000	3.70030E-001	0.00000E+000	10	...........	1584.50
	7	0.07	4.77265E-001	1.22929E-003	0.00000E+000	3.70030E-001	0.00000E+000	10	...........	1584.50
	8	0.08	4.79147E-001	1.22926E-003	0.00000E+000	3.70030E-001	0.00000E+000	10	...........	1584.50
	9	0.09	4.81053E-001	1.22934E-003	0.00000E+000	3.70030E-001	0.00000E+000	10	...........	1584.50
	10	0.1	4.82939E-001	1.22939E-003	0.00000E+000	3.70030E-001	0.00000E+000	10	...........	1584.50
	11	0.11	4.84821E-001	1.22940E-003	0.00000E+000	3.70030E-001	0.00000E+000	10	...........	1584.50
	12	0.12	4.86699E-001	1.22941E-003	0.00000E+000	3.70030E-001	0.00000E+000	10	...........	1584.50
	13	0.13	4.88560E-001	1.22933E-003	0.00000E+000	3.70030E-001	0.00000E+000	10	...........	1584.50
	14	0.14	4.90441E-001	1.22941E-003	0.00000E+000	3.70030E-001	0.00000E+000	10	...........	1584.50
	15	0.15	4.92302E-001	1.22944E-003	0.00000E+000	3.70030E-001	0.00000E+000	10	...........	1584.50
	16	0.16	4.94141E-001	1.22944E-003	0.00000E+000	3.70030E-001	0.00000E+000	10	...........	1584.50
	17	0.17	4.95975E-001	1.22942E-003	0.00000E+000	3.70030E-001	0.00000E+000	10	...........	1584.50
	18	0.18	4.97838E-001	1.22948E-003	0.00000E+000	3.70030E-001	0.00000E+000	10	...........	1584.50
	19	0.19	4.99701E-001	1.22941E-003	0.00000E+000	3.70030E-001	0.00000E+000	10	...........	1584.50
	20	0.2	5.01526E-001	1.22948E-003	0.00000E+000	3.70030E-001	0.00000E+000	10	...........	1584.50
	21	0.21	5.03358E-001	1.22941E-003	0.00000E+000	3.70030E-001	0.00000E+000	10	...........	1584.50
	22	0.22	5.05184E-001	1.22948E-003	0.00000E+000	3.70030E-001	0.00000E+000	10	...........	1584.50
	23	0.23	5.07016E-001	1.22945E-003	0.00000E+000	3.70030E-001	0.00000E+000	10	...........	1584.50
	24	0.24	5.08820E-001	1.22944E-003	0.00000E+000	3.70030E-001	0.00000E+000	10	...........	1584.50
	25	0.25	5.10653E-001	1.22943E-003	0.00000E+000	3.70030E-001	0.00000E+000	10	...........	1584.50
	26	0.26	5.12493E-001	1.22947E-003	0.00000E+000	3.70030E-001	0.00000E+000	10	...........	1584.50
	27	0.27	5.14313E-001	1.22947E-003	0.00000E+000	3.70030E-001	0.00000E+000	10	...........	1584.50
	28	0.28	5.16127E-001	1.22946E-003	0.00000E+000	3.70030E-001	0.00000E+000	10	...........	1584.50
	29	0.29	5.17924E-001	1.22950E-003	0.00000E+000	3.70030E-001	0.00000E+000	10	...........	1584.50
	30	0.3	5.19741E-001	1.22953E-003	0.00000E+000	3.70030E-001	0.00000E+000	10	...........	1584.50
	31	0.31	5.21550E-001	1.22949E-003	0.00000E+000	3.70030E-001	0.00000E+000	10	...........	1584.50
	32	0.32	5.23348E-001	1.22957E-003	0.00000E+000	3.70030E-001	0.00000E+000	10	...........	1584.50
	33	0.33	5.25183E-001	1.22955E-003	0.00000E+000	3.70030E-001	0.00000E+000	10	...........	1584.50
	34	0.34	5.26969E-001	1.22959E-003	0.00000E+000	3.70030E-001	0.00000E+000	10	...........	1584.50
	35	0.35	5.28775E-001	1.22960E-003	0.00000E+000	3.70030E-001	0.00000E+000	10	...........	1584.50
	36	0.36	5.30567E-001	1.22963E-003	0.00000E+000	3.70030E-001	0.00000E+000	10	...........	1584.50
	37	0.37	5.32356E-001	1.22961E-003	0.00000E+000	3.70030E-001	0.00000E+000	10	...........	1584.50
	38	0.38	5.34131E-001	1.22959E-003	0.00000E+000	3.70030E-001	0.00000E+000	10	...........	1584.50
	39	0.39	5.35902E-001	1.22960E-003	0.00000E+000	3.70030E-001	0.00000E+000	10	...........	1584.50
	40	0.4	5.37676E-001	1.22959E-003	0.00000E+000	3.70030E-001	0.00000E+000	10	...........	1584.50
	41	0.41	5.39492E-001	1.22960E-003	0.00000E+000	3.70030E-001	0.00000E+000	10	...........	1584.50
	42	0.42	5.41262E-001	1.22961E-003	0.00000E+000	3.70030E-001	0.00000E+000	10	...........	1584.50
	43	0.43	5.43028E-001	1.22953E-003	0.00000E+000	3.70030E-001	0.00000E+000	10	...........	1584.50
	44	0.44	5.44806E-001	1.22957E-003	0.00000E+000	3.70030E-001	0.00000E+000	10	...........	1584.50
	45	0.45	5.46597E-001	1.22963E-003	0.00000E+000	3.70030E-001	0.00000E+000	10	...........	1584.50
	46	0.46	5.48354E-001	1.22960E-003	0.00000E+000	3.70030E-001	0.00000E+000	10	...........	1584.50
	47	0.47	5.50126E-001	1.22960E-003	0.00000E+000	3.70030E-001	0.00000E+000	10	...........	1584.50
	48	0.48	5.51890E-001	1.22961E-003	0.00000E+000	3.70030E-001	0.00000E+000	10	...........	1584.50
	49	0.49	5.53631E-001	1.22955E-003	0.00000E+000	3.70030E-001	0.00000E+000	10	...........	1584.50
	50	0.5	5.55399E-001	1.22957E-003	0.00000E+000	3.70030E-001	0.00000E+000	10	...........	1584.50
	51	0.51	5.57155E-001	1.22958E-003	0.00000E+000	3.70030E-001	0.00000E+000	10	...........	1584.50
	52	0.52	5.58902E-001	1.22964E-003	0.00000E+000	3.70030E-001	0.00000E+000	10	...........	1584.50
	53	0.53	5.60632E-001	1.22961E-003	0.00000E+000	3.70030E-001	0.00000E+000	10	...........	1584.50
	54	0.54	5.62391E-001	1.22956E-003	0.00000E+000	3.70030E-001	0.00000E+000	10	...........	1584.50
	55	0.55	5.64156E-001	1.22958E-003	0.00000E+000	3.70030E-001	0.00000E+000	10	...........	1584.50
	56	0.56	5.65906E-001	1.22965E-003	0.00000E+000	3.70030E-001	0.00000E+000	10	...........	1584.50
	57	0.57	5.67648E-001	1.22960E-003	0.00000E+000	3.70030E-001	0.00000E+000	10	...........	1584.50
	58	0.58	5.69373E-001	1.22958E-003	0.00000E+000	3.70030E-001	0.00000E+000	10	...........	1584.50
	59	0.59	5.71108E-001	1.22957E-003	0.00000E+000	3.70030E-001	0.00000E+000	10	...........	1584.50
	60	0.6	5.72843E-001	1.22964E-003	0.00000E+000	3.70030E-001	0.00000E+000	10	...........	1584.50
	61	0.61	5.74571E-001	1.22963E-003	0.00000E+000	3.70030E-001	0.00000E+000	10	...........	1584.50
	62	0.62	5.76327E-001	1.22964E-003	0.00000E+000	3.70030E-001	0.00000E+000	10	...........	1584.50
	63	0.63	5.78049E-001	1.22962E-003	0.00000E+000	3.70030E-001	0.00000E+000	10	...........	1584.50
	64	0.64	5.79777E-001	1.22958E-003	0.00000E+000	3.70030E-001	0.00000E+000	10	...........	1584.50
	65	0.65	5.81474E-001	1.22957E-003	0.00000E+000	3.70030E-001	0.00000E+000	10	...........	1584.50
	66	0.66	5.83195E-001	1.22961E-003	0.00000E+000	3.70030E-001	0.00000E+000	10	...........	1584.50
	67	0.67	5.84902E-001	1.22958E-003	0.00000E+000	3.70030E-001	0.00000E+000	10	...........	1584.50
	68	0.68	5.86632E-001	1.22962E-003	0.00000E+000	3.70030E-001	0.00000E+000	10	...........	1584.50
	69	0.69	5.88327E-001	1.22967E-003	0.00000E+000	3.70030E-001	0.00000E+000	10	...........	1584.50
	70	0.7	5.90064E-001	1.22961E-003	0.00000E+000	3.70030E-001	0.00000E+000	10	...........	1584.50
	71	0.71	5.91757E-001	1.22961E-003	0.00000E+000	3.70030E-001	0.00000E+000	10	...........	1584.50
	72	0.72	5.93459E-001	1.22964E-003	0.00000E+000	3.70030E-001	0.00000E+000	10	...........	1584.50
	73	0.73	5.95153E-001	1.22967E-003	0.00000E+000	3.70030E-001	0.00000E+000	10	...........	1584.50
	74	0.74	5.96863E-001	1.22961E-003	0.00000E+000	3.70030E-001	0.00000E+000	10	...........	1584.50
	75	0.75	5.98547E-001	1.22963E-003	0.00000E+000	3.70030E-001	0.00000E+000	10	...........	1584.50
	76	0.76	6.00246E-001	1.22968E-003	0.00000E+000	3.70030E-001	0.00000E+000	10	...........	1584.50
	77	0.77	6.01988E-001	1.22965E-003	0.00000E+000	3.70030E-001	0.00000E+000	10	...........	1584.50
	78	0.78	6.03665E-001	1.22966E-003	0.00000E+000	3.70030E-001	0.00000E+000	10	...........	1584.50
	79	0.79	6.05336E-001	1.22966E-003	0.00000E+000	3.70030E-001	0.00000E+000	10	...........	1584.50
	80	0.8	6.07018E-001	1.22959E-003	0.00000E+000	3.70030E-001	0.00000E+000	10	...........	1584.50
	81	0.81	6.08691E-001	1.22968E-003	0.00000E+000	3.70030E-001	0.00000E+000	10	...........	1584.50
	82	0.82	6.10364E-001	1.22967E-003	0.00000E+000	3.70030E-001	0.00000E+000	10	...........	1584.50
	83	0.83	6.12030E-001	1.22965E-003	0.00000E+000	3.70030E-001	0.00000E+000	10	...........	1584.50
	84	0.84	6.13700E-001	1.22964E-003	0.00000E+000	3.70030E-001	0.00000E+000	10	...........	1584.50
	85	0.85	6.15397E-001	1.22969E-003	0.00000E+000	3.70030E-001	0.00000E+000	10	...........	1583.63
	86	0.86	6.17071E-001	1.22967E-003	0.00000E+000	3.70030E-001	0.00000E+000	10	...........	1583.63
	87	0.87	6.18751E-001	1.22971E-003	0.00000E+000	3.70030E-001	0.00000E+000	10	...........	1583.63
	88	0.88	6.20418E-001	1.22969E-003	0.00000E+000	3.70030E-001	0.00000E+000	10	...........	1583.63
	89	0.89	6.22068E-001	1.22969E-003	0.00000E+000	3.70030E-001	0.00000E+000	10	...........	1583.63
	90	0.9	6.23716E-001	1.22969E-003	0.00000E+000	3.70030E-001	0.00000E+000	10	...........	1583.63
	91	0.91	6.25372E-001	1.22964E-003	0.00000E+000	3.70030E-001	0.00000E+000	10	...........	1583.63
	92	0.92	6.27011E-001	1.22964E-003	0.00000E+000	3.70030E-001	0.00000E+000	10	...........	1583.63
	93	0.93	6.28673E-001	1.22968E-003	0.00000E+000	3.70030E-001	0.00000E+000	10	...........	1583.63
	94	0.94	6.30332E-001	1.22966E-003	0.00000E+000	3.70030E-001	0.00000E+000	10	...........	1583.63
	95	0.95	6.31970E-001	1.22964E-003	0.00000E+000	3.70030E-001	0.00000E+000	10	...........	1583.63
	96	0.96	6.33614E-001	1.22964E-003	0.00000E+000	3.70030E-001	0.00000E+000	10	...........	1583.63
	97	0.97	6.35251E-001	1.22968E-003	0.00000E+000	3.70030E-001	0.00000E+000	10	...........	1583.63
	98	0.98	6.36877E-001	1.22964E-003	0.00000E+000	3.70030E-001	0.00000E+000	10	...........	1583.63
	99	0.99	6.38522E-001	1.22974E-003	0.00000E+000	3.70030E-001	0.00000E+000	10	...........	1583.63
	100	1	6.40170E-001	1.22972E-003	0.00000E+000	3.70030E-001	0.00000E+000	10	...........	1583.63
	101	1.01	6.41816E-001	1.22964E-003	0.00000E+000	3.70030E-001	0.00000E+000	10	...........	1583.63
	102	1.02	6.43437E-001	1.22966E-003	0.00000E+000	3.70030E-001	0.00000E+000	10	...........	1583.63
	103	1.03	6.45039E-001	1.22965E-003	0.00000E+000	3.70030E-001	0.00000E+000	10	...........	1583.63
	104	1.04	6.46658E-001	1.22966E-003	0.00000E+000	3.70030E-001	0.00000E+000	10	...........	1583.63
	105	1.05	6.48276E-001	1.22964E-003	0.00000E+000	3.70030E-001	0.00000E+000	10	...........	1583.63
	106	1.06	6.49883E-001	1.22961E-003	0.00000E+000	3.70030E-001	0.00000E+000	10	...........	1583.63
	107	1.07	6.51488E-001	1.22968E-003	0.00000E+000	3.70030E-001	0.00000E+000	10	...........	1583.63
	108	1.08	6.53113E-001	1.22968E-003	0.00000E+000	3.70030E-001	0.00000E+000	10	...........	1583.63
	109	1.09	6.54731E-001	1.22968E-003	0.00000E+000	3.70030E-001	0.00000E+000	10	...........	1583.63
	110	1.1	6.56335E-001	1.22971E-003	0.00000E+000	3.70030E-001	0.00000E+000	10	...........	1583.63
	111	1.11	6.57921E-001	1.22969E-003	0.00000E+000	3.70030E-001	0.00000E+000	10	...........	1583.63
	112	1.12	6.59526E-001	1.22960E-003	0.00000E+000	3.70030E-001	0.00000E+000	10	...........	1583.63
	113	1.13	6.61093E-001	1.22962E-003	0.00000E+000	3.70030E-001	0.00000E+000	10	...........	1583.63
	114	1.14	6.62686E-001	1.22962E-003	0.00000E+000	3.70030E-001	0.00000E+000	10	...........	1583.63
	115	1.15	6.64272E-001	1.22962E-003	0.00000E+000	3.70030E-001	0.00000E+000	10	...........	1583.63
	116	1.16	6.65848E-001	1.22964E-003	0.00000E+000	3.70030E-001	0.00000E+000	10	...........	1583.63
	117	1.17	6.67449E-001	1.22963E-003	0.00000E+000	3.70030E-001	0.00000E+000	10	...........	1583.63
	118	1.18	6.69038E-001	1.22969E-003	0.00000E+000	3.70030E-001	0.00000E+000	10	...........	1583.63
	119	1.19	6.70626E-001	1.22964E-003	0.00000E+000	3.70030E-001	0.00000E+000	10	...........	1583.63
	120	1.2	6.72174E-001	1.22969E-003	0.00000E+000	3.70030E-001	0.00000E+000	10	...........	1583.63
	121	1.21	6.73755E-001	1.22975E-003	0.00000E+000	3.70030E-001	0.00000E+000	10	...........	1583.63
	122	1.22	6.75323E-001	1.22970E-003	0.00000E+000	3.70030E-001	0.00000E+000	10	...........	1583.63
	123	1.23	6.76859E-001	1.22963E-003	0.00000E+000	3.70030E-001	0.00000E+000	10	...........	1583.63
	124	1.24	6.78396E-001	1.22961E-003	0.00000E+000	3.70030E-001	0.00000E+000	10	...........	1583.63
	125	1.25	6.79989E-001	1.22968E-003	0.00000E+000	3.70030E-001	0.00000E+000	10	...........	1583.63
	126	1.26	6.81554E-001	1.22978E-003	0.00000E+000	3.70030E-001	0.00000E+000	10	...........	1583.63
	127	1.27	6.83103E-001	1.22969E-003	0.00000E+000	3.70030E-001	0.00000E+000	10	...........	1583.63
	128	1.28	6.84633E-001	1.22967E-003	0.00000E+000	3.70030E-001	0.00000E+000	10	...........	1583.63
	129	1.29	6.86175E-001	1.22963E-003	0.00000E+000	3.70030E-001	0.00000E+000	10	...........	1583.63
	130	1.3	6.87698E-001	1.22965E-003	0.00000E+000	3.70030E-001	0.00000E+000	10	...........	1583.63
	131	1.31	6.89248E-001	1.22966E-003	0.00000E+000	3.70030E-001	0.00000E+000	10	...........	1583.63
	132	1.32	6.90768E-001	1.22962E-003	0.00000E+000	3.70030E-001	0.00000E+000	10	...........	1583.63
	133	1.33	6.92306E-001	1.22963E-003	0.00000E+000	3.70030E-001	0.00000E+000	10	...........	1583.63
	134	1.34	6.93828E-001	1.22957E-003	0.00000E+000	3.70030E-001	0.00000E+000	10	...........	1583.63
	135	1.35	6.95319E-001	1.22960E-003	0.00000E+000	3.70030E-001	0.00000E+000	10	...........	1583.63
	136	1.36	6.96827E-001	1.22962E-003	0.00000E+000	3.70030E-001	0.00000E+000	10	...........	1583.63
	137	1.37	6.98350E-001	1.22963E-003	0.00000E+000	3.70030E-001	0.00000E+000	10	...........	1583.63
	138	1.38	6.99852E-001	1.22965E-003	0.00000E+000	3.70030E-001	0.00000E+000	10	...........	1583.63
	139	1.39	7.01367E-001	1.22965E-003	0.00000E+000	3.70030E-001	0.00000E+000	10	...........	1583.63
	140	1.4	7.02860E-001	1.22966E-003	0.00000E+000	3.70030E-001	0.00000E+000	10	...........	1583.63
	141	1.41	7.04395E-001	1.22968E-003	0.00000E+000	3.70030E-001	0.00000E+000	10	...........	1583.63
	142	1.42	7.05892E-001	1.22971E-003	0.00000E+000	3.70030E-001	0.00000E+000	10	...........	1583.63
	143	1.43	7.07373E-001	1.22968E-003	0.00000E+000	3.70030E-001	0.00000E+000	10	...........	1583.63
	144	1.44	7.08846E-001	1.22966E-003	0.00000E+000	3.70030E-001	0.00000E+000	10	...........	1583.63
	145	1.45	7.10316E-001	1.22966E-003	0.00000E+000	3.70030E-001	0.00000E+000	10	...........	1583.63
	146	1.46	7.11793E-001	1.22965E-003	0.00000E+000	3.70030E-001	0.00000E+000	10	...........	1583.63
	147	1.47	7.13269E-001	1.22961E-003	0.00000E+000	3.70030E-001	0.00000E+000	10	...........	1583.63
	148	1.48	7.14738E-001	1.22966E-003	0.00000E+000	3.70030E-001	0.00000E+000	10	...........	1583.63
	149	1.49	7.16200E-001	1.22971E-003	0.00000E+000	3.70030E-001	0.00000E+000	10	...........	1583.63
	150	1.5	7.17683E-001	1.22972E-003	0.00000E+000	3.70030E-001	0.00000E+000	10	...........	1583.63
	151	1.51	7.19184E-001	1.22968E-003	0.00000E+000	3.70030E-001	0.00000E+000	10	...........	1583.63
	152	1.52	7.20611E-001	1.22973E-003	0.00000E+000	3.70030E-001	0.00000E+000	10	...........	1583.63
	153	1.53	7.22054E-001	1.22972E-003	0.00000E+000	3.70030E-001	0.00000E+000	10	...........	1583.63
	154	1.54	7.23504E-001	1.22967E-003	0.00000E+000	3.70030E-001	0.00000E+000	10	...........	1583.63
	155	1.55	7.24935E-001	1.22968E-003	0.00000E+000	3.70030E-001	0.00000E+000	10	...........	1583.63
	156	1.56	7.26380E-001	1.22972E-003	0.00000E+000	3.70030E-001	0.00000E+000	10	...........	1583.63
	157	1.57	7.27798E-001	1.22966E-003	0.00000E+000	3.70030E-001	0.00000E+000	10	...........	1583.63
	158	1.58	7.29223E-001	1.22968E-003	0.00000E+000	3.70030E-001	0.00000E+000	10	...........	1583.63
	159	1.59	7.30676E-001	1.22970E-003	0.00000E+000	3.70030E-001	0.00000E+000	10	...........	1583.63
	160	1.6	7.32102E-001	1.22965E-003	0.00000E+000	3.70030E-001	0.00000E+000	10	...........	1583.63
	161	1.61	7.33507E-001	1.22966E-003	0.00000E+000	3.70030E-001	0.00000E+000	10	...........	1583.63
	162	1.62	7.34931E-001	1.22962E-003	0.00000E+000	3.70030E-001	0.00000E+000	10	...........	1583.63
	163	1.63	7.36330E-001	1.22964E-003	0.00000E+000	3.70030E-001	0.00000E+000	10	...........	1583.63
	164	1.64	7.37738E-001	1.22963E-003	0.00000E+000	3.70030E-001	0.00000E+000	10	...........	1583.63
	165	1.65	7.39126E-001	1.22963E-003	0.00000E+000	3.70030E-001	0.00000E+000	10	...........	1583.63
	166	1.66	7.40529E-001	1.22964E-003	0.00000E+000	3.70030E-001	0.00000E+000	10	...........	1583.63
	167	1.67	7.41910E-001	1.22968E-003	0.00000E+000	3.70030E-001	0.00000E+000	10	...........	1583.63
	168	1.68	7.43318E-001	1.22967E-003	0.00000E+000	3.70030E-001	0.00000E+000	10	...........	1583.63
	169	1.69	7.44710E-001	1.22968E-003	0.00000E+000	3.70030E-001	0.00000E+000	10	...........	1583.63
	170	1.7	7.46092E-001	1.22966E-003	0.00000E+000	3.70030E-001	0.00000E+000	10	...........	1583.63
	171	1.71	7.47472E-001	1.22971E-003	0.00000E+000	3.70030E-001	0.00000E+000	10	...........	1583.63
	172	1.72	7.48830E-001	1.22967E-003	0.00000E+000	3.70030E-001	0.00000E+000	10	...........	1583.63
	173	1.73	7.50194E-001	1.22964E-003	0.00000E+000	3.70030E-001	0.00000E+000	10	...........	1583.63
	174	1.74	7.51551E-001	1.22968E-003	0.00000E+000	3.70030E-001	0.00000E+000	10	...........	1583.63
	175	1.75	7.52909E-001	1.22971E-003	0.00000E+000	3.70030E-001	0.00000E+000	10	...........	1583.63
	176	1.76	7.54260E-001	1.22969E-003	0.00000E+000	3.70030E-001	0.00000E+000	10	...........	1583.63
	177	1.77	7.55620E-001	1.22960E-003	0.00000E+000	3.70030E-001	0.00000E+000	10	...........	1583.63
	178	1.78	7.56932E-001	1.22964E-003	0.00000E+000	3.70030E-001	0.00000E+000	10	...........	1583.63
	179	1.79	7.58284E-001	1.22965E-003	0.00000E+000	3.70030E-001	0.00000E+000	10	...........	1583.63
	180	1.8	7.59611E-001	1.22963E-003	0.00000E+000	3.70030E-001	0.00000E+000	10	...........	1583.63
	181	1.81	7.60938E-001	1.22963E-003	0.00000E+000	3.70030E-001	0.00000E+000	10	...........	1583.63
	182	1.82	7.62270E-001	1.22963E-003	0.00000E+000	3.70030E-001	0.00000E+000	10	...........	1583.63
	183	1.83	7.63599E-001	1.22969E-003	0.00000E+000	3.70030E-001	0.00000E+000	10	...........	1583.63
	184	1.84	7.64918E-001	1.22966E-003	0.00000E+000	3.70030E-001	0.00000E+000	10	...........	1583.63
	185	1.85	7.66194E-001	1.22964E-003	0.00000E+000	3.70030E-001	0.00000E+000	10	...........	1583.05
	186	1.86	7.67503E-001	1.22963E-003	0.00000E+000	3.70030E-001	0.00000E+000	10	...........	1583.05
	187	1.87	7.68803E-001	1.22964E-003	0.00000E+000	3.70030E-001	0.00000E+000	10	...........	1583.05
	188	1.88	7.70105E-001	1.22967E-003	0.00000E+000	3.70030E-001	0.00000E+000	10	...........	1583.05
	189	1.89	7.71373E-001	1.22967E-003	0.00000E+000	3.70030E-001	0.00000E+000	10	...........	1583.05
	190	1.9	7.72656E-001	1.22967E-003	0.00000E+000	3.70030E-001	0.00000E+000	10	...........	1583.05
	191	1.91	7.73940E-001	1.22965E-003	0.00000E+000	3.70030E-001	0.00000E+000	10	...........	1583.05
	192	1.92	7.75211E-001	1.22971E-003	0.00000E+000	3.70030E-001	0.00000E+000	10	...........	1583.05
	193	1.93	7.76477E-001	1.22972E-003	0.00000E+000	3.70030E-001	0.00000E+000	10	...........	1583.05
	194	1.94	7.77708E-001	1.22968E-003	0.00000E+000	3.70030E-001	0.00000E+000	10	...........	1583.05
	195	1.95	7.78979E-001	1.22970E-003	0.00000E+000	3.70030E-001	0.00000E+000	10	...........	1583.05
	196	1.96	7.80228E-001	1.22976E-003	0.00000E+000	3.70030E-001	0.00000E+000	10	...........	1583.05
	197	1.97	7.81492E-001	1.22969E-003	0.00000E+000	3.70030E-001	0.00000E+000	10	...........	1583.05
	198	1.98	7.82742E-001	1.22970E-003	0.00000E+000	3.70030E-001	0.00000E+000	10	...........	1583.05
	199	1.99	7.83947E-001	1.22966E-003	0.00000E+000	3.70030E-001	0.00000E+000	10	...........	1583.05
	200	2	7.85184E-001	1.22971E-003	0.00000E+000	3.70030E-001	0.00000E+000	10	...........	1583.05
	201	2.01	7.86403E-001	1.22966E-003	0.00000E+000	3.70030E-001	0.00000E+000	10	...........	1583.05
	202	2.02	7.87622E-001	1.22971E-003	0.00000E+000	3.70030E-001	0.00000E+000	10	...........	1583.05
	203	2.03	7.88849E-001	1.22975E-003	0.00000E+000	3.70030E-001	0.00000E+000	10	...........	1583.05
	204	2.04	7.90042E-001	1.22973E-003	0.00000E+000	3.70030E-001	0.00000E+000	10	...........	1583.05
	205	2.05	7.91246E-001	1.22973E-003	0.00000E+000	3.70030E-001	0.00000E+000	10	...........	1583.05
	206	2.06	7.92451E-001	1.22966E-003	0.00000E+000	3.70030E-001	0.00000E+000	10	...........	1583.05
	207	2.07	7.93642E-001	1.22975E-003	0.00000E+000	3.70030E-001	0.00000E+000	10	...........	1583.05
	208	2.08	7.94841E-001	1.22966E-003	0.00000E+000	3.70030E-001	0.00000E+000	10	...........	1583.05
	209	2.09	7.96029E-001	1.22971E-003	0.00000E+000	3.70030E-001	0.00000E+000	10	...........	1583.05
	210	2.1	7.97221E-001	1.22978E-003	0.00000E+000	3.70030E-001	0.00000E+000	10	...........	1583.05
	211	2.11	7.98381E-001	1.22970E-003	0.00000E+000	3.70030E-001	0.00000E+000	10	...........	1583.05
	212	2.12	7.99544E-001	1.22970E-003	0.00000E+000	3.70030E-001	0.00000E+000	10	...........	1583.05
	213	2.13	8.00697E-001	1.22970E-003	0.00000E+000	3.70030E-001	0.00000E+000	10	...........	1583.05
	214	2.14	8.01845E-001	1.22969E-003	0.00000E+000	3.70030E-001	0.00000E+000	10	...........	1583.05
	215	2.15	8.02993E-001	1.22970E-003	0.00000E+000	3.70030E-001	0.00000E+000	10	...........	1583.05
	216	2.16	7.80191E-001	-1.22974E-003	0.00000E+000	-3.70030E-001	0.00000E+000	10	...........	1583.05
	217	2.17	7.75858E-001	-1.22985E-003	0.00000E+000	-3.70030E-001	0.00000E+000	10	...........	1583.05
	218	2.18	7.72167E-001	-1.22991E-003	0.00000E+000	-3.70030E-001	0.00000E+000	10	...........	1583.05
	219	2.19	7.68771E-001	-1.22993E-003	0.00000E+000	-3.70030E-001	0.00000E+000	10	...........	1583.05
	220	2.2	7.65573E-001	-1.22999E-003	0.00000E+000	-3.70030E-001	0.00000E+000	10	...........	1583.05
	221	2.21	7.62534E-001	-1.22999E-003	0.00000E+000	-3.70030E-001	0.00000E+000	10	...........	1583.05
	222	2.22	7.59589E-001	-1.23001E-003	0.00000E+000	-3.70030E-001	0.00000E+000	10	...........	1583.05
	223	2.23	7.56770E-001	-1.22998E-003	0.00000E+000	-3.70030E-001	0.00000E+000	10	...........	1583.05
	224	2.24	7.53979E-001	-1.23000E-003	0.00000E+000	-3.70030E-001	0.00000E+000	10	...........	1583.05
	225	2.25	7.51259E-001	-1.23001E-003	0.00000E+000	-3.70030E-001	0.00000E+000	10	...........	1583.05
	226	2.26	7.48610E-001	-1.22997E-003	0.00000E+000	-3.70030E-001	0.00000E+000	10	...........	1583.05
	227	2.27	7.45986E-001	-1.22997E-003	0.00000E+000	-3.70030E-001	0.00000E+000	10	...........	1583.05
	228	2.28	7.43385E-001	-1.23001E-003	0.00000E+000	-3.70030E-001	0.00000E+000	10	...........	1583.05
	229	2.29	7.40782E-001	-1.23009E-003	0.00000E+000	-3.70030E-001	0.00000E+000	10	...........	1583.05
	230	2.3	7.38251E-001	-1.23003E-003	0.00000E+000	-3.70030E-001	0.00000E+000	10	...........	1583.05
	231	2.31	7.35738E-001	-1.23005E-003	0.00000E+000	-3.70030E-001	0.00000E+000	10	...........	1583.05
	232	2.32	7.33262E-001	-1.23003E-003	0.00000E+000	-3.70030E-001	0.00000E+000	10	...........	1583.05
	233	2.33	7.30792E-001	-1.23009E-003	0.00000E+000	-3.70030E-001	0.00000E+000	10	...........	1583.05
	234	2.34	7.28336E-001	-1.23002E-003	0.00000E+000	-3.70030E-001	0.00000E+000	10	...........	1583.05
	235	2.35	7.25932E-001	-1.23000E-003	0.00000E+000	-3.70030E-001	0.00000E+000	10	...........	1583.05
	236	2.36	7.23551E-001	-1.22996E-003	0.00000E+000	-3.70030E-001	0.00000E+000	10	...........	1583.05
	237	2.37	7.21178E-001	-1.22996E-003	0.00000E+000	-3.70030E-001	0.00000E+000	10	...........	1583.05
	238	2.38	7.18810E-001	-1.23001E-003	0.00000E+000	-3.70030E-001	0.00000E+000	10	...........	1583.05
	239	2.39	7.16381E-001	-1.23001E-003	0.00000E+000	-3.70030E-001	0.00000E+000	10	...........	1583.05
	240	2.4	7.14034E-001	-1.23004E-003	0.00000E+000	-3.70030E-001	0.00000E+000	10	...........	1583.05
	241	2.41	7.11701E-001	-1.23008E-003	0.00000E+000	-3.70030E-001	0.00000E+000	10	...........	1583.05
	242	2.42	7.09347E-001	-1.23009E-003	0.00000E+000	-3.70030E-001	0.00000E+000	10	...........	1583.05
	243	2.43	7.07042E-001	-1.23008E-003	0.00000E+000	-3.70030E-001	0.00000E+000	10	...........	1583.05
	244	2.44	7.04755E-001	-1.23001E-003	0.00000E+000	-3.70030E-001	0.00000E+000	10	...........	1583.05
	245	2.45	7.02435E-001	-1.23006E-003	0.00000E+000	-3.70030E-001	0.00000E+000	10	...........	1583.05
	246	2.46	7.00171E-001	-1.23005E-003	0.00000E+000	-3.70030E-001	0.00000E+000	10	...........	1583.05
	247	2.47	6.97879E-001	-1.23003E-003	0.00000E+000	-3.70030E-001	0.00000E+000	10	...........	1583.05
	248	2.48	6.95609E-001	-1.23002E-003	0.00000E+000	-3.70030E-001	0.00000E+000	10	...........	1583.05
	249	2.49	6.93347E-001	-1.23006E-003	0.00000E+000	-3.70030E-001	0.00000E+000	10	...........	1583.05
	250	2.5	6.91046E-001	-1.23006E-003	0.00000E+000	-3.70030E-001	0.00000E+000	10	...........	1583.05
	251	2.51	6.88808E-001	-1.23007E-003	0.00000E+000	-3.70030E-001	0.00000E+000	10	...........	1583.05
	252	2.52	6.86561E-001	-1.23006E-003	0.00000E+000	-3.70030E-001	0.00000E+000	10	...........	1583.05
	253	2.53	6.84335E-001	-1.23005E-003	0.00000E+000	-3.70030E-001	0.00000E+000	10	...........	1583.05
	254	2.54	6.82097E-001	-1.23008E-003	0.00000E+000	-3.70030E-001	0.00000E+000	10	...........	1583.05
	255	2.55	6.79861E-001	-1.23011E-003	0.00000E+000	-3.70030E-001	0.00000E+000	10	...........	1583.05
	256	2.56	6.77646E-001	-1.23004E-003	0.00000E+000	-3.70030E-001	0.00000E+000	10	...........	1583.05
	257	2.57	6.75417E-001	-1.23006E-003	0.00000E+000	-3.70030E-001	0.00000E+000	10	...........	1583.05
	258	2.58	6.73222E-001	-1.23007E-003	0.00000E+000	-3.70030E-001	0.00000E+000	10	...........	1583.05
	259	2.59	6.71014E-001	-1.23008E-003	0.00000E+000	-3.70030E-001	0.00000E+000	10	...........	1583.05
	260	2.6	6.68794E-001	-1.23011E-003	0.00000E+000	-3.70030E-001	0.00000E+000	10	...........	1583.05
	261	2.61	6.66601E-001	-1.23008E-003	0.00000E+000	-3.70030E-001	0.00000E+000	10	...........	1583.05
	262	2.62	6.64389E-001	-1.23007E-003	0.00000E+000	-3.70030E-001	0.00000E+000	10	...........	1583.05
	263	2.63	6.62208E-001	-1.23006E-003	0.00000E+000	-3.70030E-001	0.00000E+000	10	...........	1583.05
	264	2.64	6.60025E-001	-1.23007E-003	0.00000E+000	-3.70030E-001	0.00000E+000	10	...........	1583.05
	265	2.65	6.57844E-001	-1.23006E-003	0.00000E+000	-3.70030E-001	0.00000E+000	10	...........	1583.05
	266	2.66	6.55684E-001	-1.23001E-003	0.00000E+000	-3.70030E-001	0.00000E+000	10	...........	1583.05
	267	2.67	6.53528E-001	-1.23001E-003	0.00000E+000	-3.70030E-001	0.00000E+000	10	...........	1583.05
	268	2.68	6.51318E-001	-1.23008E-003	0.00000E+000	-3.70030E-001	0.00000E+000	10	...........	1583.05
	269	2.69	6.49155E-001	-1.23011E-003	0.00000E+000	-3.70030E-001	0.00000E+000	10	...........	1583.05
	270	2.7	6.46977E-001	-1.23009E-003	0.00000E+000	-3.70030E-001	0.00000E+000	10	...........	1583.05
	271	2.71	6.44814E-001	-1.23012E-003	0.00000E+000	-3.70030E-001	0.00000E+000	10	...........	1583.05
	272	2.72	6.42669E-001	-1.23008E-003	0.00000E+000	-3.70030E-001	0.00000E+000	10	...........	1583.05
	273	2.73	6.40515E-001	-1.23013E-003	0.00000E+000	-3.70030E-001	0.00000E+000	10	...........	1583.05
	274	2.74	6.38335E-001	-1.23007E-003	0.00000E+000	-3.70030E-001	0.00000E+000	10	...........	1583.05
	275	2.75	6.36190E-001	-1.23008E-003	0.00000E+000	-3.70030E-001	0.00000E+000	10	...........	1583.05
	276	2.76	6.34059E-001	-1.23009E-003	0.00000E+000	-3.70030E-001	0.00000E+000	10	...........	1583.05
	277	2.77	6.31927E-001	-1.23005E-003	0.00000E+000	-3.70030E-001	0.00000E+000	10	...........	1583.05
	278	2.78	6.29781E-001	-1.23009E-003	0.00000E+000	-3.70030E-001	0.00000E+000	10	...........	1583.05
	279	2.79	6.27673E-001	-1.23012E-003	0.00000E+000	-3.70030E-001	0.00000E+000	10	...........	1583.05
	280	2.8	6.25509E-001	-1.23011E-003	0.00000E+000	-3.70030E-001	0.00000E+000	10	...........	1583.05
	281	2.81	6.23358E-001	-1.23007E-003	0.00000E+000	-3.70030E-001	0.00000E+000	10	...........	1583.05
	282	2.82	6.21249E-001	-1.23009E-003	0.00000E+000	-3.70030E-001	0.00000E+000	10	...........	1583.05
	283	2.83	6.19140E-001	-1.23011E-003	0.00000E+000	-3.70030E-001	0.00000E+000	10	...........	1583.05
	284	2.84	6.17026E-001	-1.23007E-003	0.00000E+000	-3.70030E-001	0.00000E+000	10	...........	1583.05
	285	2.85	6.14895E-001	-1.23007E-003	0.00000E+000	-3.70030E-001	0.00000E+000	10	...........	1583.05
	286	2.86	6.12770E-001	-1.23002E-003	0.00000E+000	-3.70030E-001	0.00000E+000	10	...........	1583.05
	287	2.87	6.10655E-001	-1.23012E-003	0.00000E+000	-3.70030E-001	0.00000E+000	10	...........	1583.05
	288	2.88	6.08529E-001	-1.23012E-003	0.00000E+000	-3.70030E-001	0.00000E+000	10	...........	1583.05
	289	2.89	6.06402E-001	-1.23015E-003	0.00000E+000	-3.70030E-001	0.00000E+000	10	...........	1583.05
	290	2.9	6.04298E-001	-1.23011E-003	0.00000E+000	-3.70030E-001	0.00000E+000	10	...........	1583.05
	291	2.91	6.02207E-001	-1.23010E-003	0.00000E+000	-3.70030E-001	0.00000E+000	10	...........	1583.05
	292	2.92	6.00070E-001	-1.23012E-003	0.00000E+000	-3.70030E-001	0.00000E+000	10	...........	1583.05
	293	2.93	5.97973E-001	-1.23009E-003	0.00000E+000	-3.70030E-001	0.00000E+000	10	...........	1583.05
	294	2.94	5.95890E-001	-1.23007E-003	0.00000E+000	-3.70030E-001	0.00000E+000	10	...........	1583.05
	295	2.95	5.93790E-001	-1.23012E-003	0.00000E+000	-3.70030E-001	0.00000E+000	10	...........	1583.05
	296	2.96	5.91686E-001	-1.23010E-003	0.00000E+000	-3.70030E-001	0.00000E+000	10	...........	1583.05
	297	2.97	5.89591E-001	-1.23008E-003	0.00000E+000	-3.70030E-001	0.00000E+000	10	...........	1583.05
	298	2.98	5.87485E-001	-1.23008E-003	0.00000E+000	-3.70030E-001	0.00000E+000	10	...........	1583.05
	299	2.99	5.85394E-001	-1.23011E-003	0.00000E+000	-3.70030E-001	0.00000E+000	10	...........	1583.05
	300	3	5.83314E-001	-1.23007E-003	0.00000E+000	-3.70030E-001	0.00000E+000	10	...........	1583.05
	301	3.01	5.81237E-001	-1.23006E-003	0.00000E+000	-3.70030E-001	0.00000E+000	10	...........	1583.05
	302	3.02	5.79143E-001	-1.23007E-003	0.00000E+000	-3.70030E-001	0.00000E+000	10	...........	1583.05
	303	3.03	5.77078E-001	-1.23006E-003	0.00000E+000	-3.70030E-001	0.00000E+000	10	...........	1583.05
	304	3.04	5.74988E-001	-1.23005E-003	0.00000E+000	-3.70030E-001	0.00000E+000	10	...........	1583.05
	305	3.05	5.72919E-001	-1.23008E-003	0.00000E+000	-3.70030E-001	0.00000E+000	10	...........	1583.05
	306	3.06	5.70838E-001	-1.23005E-003	0.00000E+000	-3.70030E-001	0.00000E+000	10	...........	1583.05
	307	3.07	5.68744E-001	-1.23010E-003	0.00000E+000	-3.70030E-001	0.00000E+000	10	...........	1583.05
	308	3.08	5.66697E-001	-1.23016E-003	0.00000E+000	-3.70030E-001	0.00000E+000	10	...........	1583.05
	309	3.09	5.64608E-001	-1.23016E-003	0.00000E+000	-3.70030E-001	0.00000E+000	10	...........	1583.05
	310	3.1	5.62515E-001	-1.23014E-003	0.00000E+000	-3.70030E-001	0.00000E+000	10	...........	1583.05
	311	3.11	5.60452E-001	-1.23016E-003	0.00000E+000	-3.70030E-001	0.00000E+000	10	...........	1583.05
	312	3.12	5.58391E-001	-1.23009E-003	0.00000E+000	-3.70030E-001	0.00000E+000	10	...........	1583.05
	313	3.13	5.56338E-001	-1.23012E-003	0.00000E+000	-3.70030E-001	0.00000E+000	10	...........	1583.05
	314	3.14	5.54274E-001	-1.23013E-003	0.00000E+000	-3.70030E-001	0.00000E+000	10	...........	1583.05
	315	3.15	5.52229E-001	-1.23012E-003	0.00000E+000	-3.70030E-001	0.00000E+000	10	...........	1583.05
	316	3.16	5.50143E-001	-1.23015E-003	0.00000E+000	-3.70030E-001	0.00000E+000	10	...........	1583.05
	317	3.17	5.48094E-001	-1.23012E-003	0.00000E+000	-3.70030E-001	0.00000E+000	10	...........	1583.05
	318	3.18	5.46051E-001	-1.23008E-003	0.00000E+000	-3.70030E-001	0.00000E+000	10	...........	1583.05
	319	3.19	5.43997E-001	-1.23009E-003	0.00000E+000	-3.70030E-001	0.00000E+000	10	...........	1583.05
	320	3.2	5.41941E-001	-1.23010E-003	0.00000E+000	-3.70030E-001	0.00000E+000	10	...........	1583.05
	321	3.21	5.39886E-001	-1.23013E-003	0.00000E+000	-3.70030E-001	0.00000E+000	10	...........	1583.05
	322	3.22	5.37821E-001	-1.23012E-003	0.00000E+000	-3.70030E-001	0.00000E+000	10	...........	1583.05
	323	3.23	5.35790E-001	-1.23005E-003	0.00000E+000	-3.70030E-001	0.00000E+000	10	...........	1583.05
	324	3.24	5.33728E-001	-1.23005E-003	0.00000E+000	-3.70030E-001	0.00000E+000	10	...........	1583.05
	325	3.25	5.31687E-001	-1.23010E-003	0.00000E+000	-3.70030E-001	0.00000E+000	10	...........	1583.05
	326	3.26	5.29633E-001	-1.23013E-003	0.00000E+000	-3.70030E-001	0.00000E+000	10	...........	1583.05
	327	3.27	5.27583E-001	-1.23014E-003	0.00000E+000	-3.70030E-001	0.00000E+000	10	...........	1583.05
	328	3.28	5.25554E-001	-1.23006E-003	0.00000E+000	-3.70030E-001	0.00000E+000	10	...........	1583.05
	329	3.29	5.23520E-001	-1.23011E-003	0.00000E+000	-3.70030E-001	0.00000E+000	10	...........	1583.05
	330	3.3	5.21465E-001	-1.23006E-003	0.00000E+000	-3.70030E-001	0.00000E+000	10	...........	1583.05
	331	3.31	5.19437E-001	-1.23005E-003	0.00000E+000	-3.70030E-001	0.00000E+000	10	...........	1583.05
	332	3.32	5.17416E-001	-1.23009E-003	0.00000E+000	-3.70030E-001	0.00000E+000	10	...........	1583.05
	333	3.33	5.15350E-001	-1.23011E-003	0.00000E+000	-3.70030E-001	0.00000E+000	10	...........	1583.05
	334	3.34	5.13319E-001	-1.23015E-003	0.00000E+000	-3.70030E-001	0.00000E+000	10	...........	1583.05
	335	3.35	5.11266E-001	-1.23013E-003	0.00000E+000	-3.70030E-001	0.00000E+000	10	...........	1583.05
	336	3.36	5.09250E-001	-1.23011E-003	0.00000E+000	-3.70030E-001	0.00000E+000	10	...........	1583.05
	337	3.37	5.07206E-001	-1.23011E-003	0.00000E+000	-3.70030E-001	0.00000E+000	10	...........	1583.05
	338	3.38	5.05188E-001	-1.23010E-003	0.00000E+000	-3.70030E-001	0.00000E+000	10	...........	1583.05
	339	3.39	5.03167E-001	-1.23011E-003	0.00000E+000	-3.70030E-001	0.00000E+000	10	...........	1583.05
	340	3.4	5.01156E-001	-1.23009E-003	0.00000E+000	-3.70030E-001	0.00000E+000	10	...........	1583.05
	341	3.41	4.99084E-001	-1.23010E-003	0.00000E+000	-3.70030E-001	0.00000E+000	10	...........	1583.05
	342	3.42	4.97085E-001	-1.23010E-003	0.00000E+000	-3.70030E-001	0.00000E+000	10	...........	1583.05
	343	3.43	4.95070E-001	-1.23009E-003	0.00000E+000	-3.70030E-001	0.00000E+000	10	...........	1583.05
	344	3.44	4.93059E-001	-1.23008E-003	0.00000E+000	-3.70030E-001	0.00000E+000	10	...........	1583.05
	345	3.45	4.91032E-001	-1.23010E-003	0.00000E+000	-3.70030E-001	0.00000E+000	10	...........	1583.05
	346	3.46	4.89031E-001	-1.23008E-003	0.00000E+000	-3.70030E-001	0.00000E+000	10	...........	1583.05
	347	3.47	4.87022E-001	-1.23006E-003	0.00000E+000	-3.70030E-001	0.00000E+000	10	...........	1583.05
	348	3.48	4.84966E-001	-1.23011E-003	0.00000E+000	-3.70030E-001	0.00000E+000	10	...........	1583.05
	349	3.49	4.82973E-001	-1.23004E-003	0.00000E+000	-3.70030E-001	0.00000E+000	10	...........	1583.05
	350	3.5	4.80947E-001	-1.23005E-003	0.00000E+000	-3.70030E-001	0.00000E+000	10	...........	1583.05
	351	3.51	4.78927E-001	-1.23014E-003	0.00000E+000	-3.70030E-001	0.00000E+000	10	...........	1583.05
	352	3.52	4.76941E-001	-1.23007E-003	0.00000E+000	-3.70030E-001	0.00000E+000	10	...........	1583.05
	353	3.53	4.74942E-001	-1.23007E-003	0.00000E+000	-3.70030E-001	0.00000E+000	10	...........	1583.05
	354	3.54	4.72907E-001	-1.23008E-003	0.00000E+000	-3.70030E-001	0.00000E+000	10	...........	1583.05
	355	3.55	4.70889E-001	-1.23009E-003	0.00000E+000	-3.70030E-001	0.00000E+000	10	...........	1583.05
	356	3.56	4.68906E-001	-1.23008E-003	0.00000E+000	-3.70030E-001	0.00000E+000	10	...........	1583.05
	357	3.57	4.66890E-001	-1.23008E-003	0.00000E+000	-3.70030E-001	0.00000E+000	10	...........	1583.05
	358	3.58	4.64883E-001	-1.23006E-003	0.00000E+000	-3.70030E-001	0.00000E+000	10	...........	1583.05
	359	3.59	4.62884E-001	-1.23008E-003	0.00000E+000	-3.70030E-001	0.00000E+000	10	...........	1583.05
	360	3.6	4.60897E-001	-1.23003E-003	0.00000E+000	-3.70030E-001	0.00000E+000	10	...........	1583.05
	361	3.61	4.58862E-001	-1.23007E-003	0.00000E+000	-3.70030E-001	0.00000E+000	10	...........	1583.05
	362	3.62	4.56858E-001	-1.23004E-003	0.00000E+000	-3.70030E-001	0.00000E+000	10	...........	1583.05
	363	3.63	4.54865E-001	-1.23010E-003	0.00000E+000	-3.70030E-001	0.00000E+000	10	...........	1583.05
	364	3.64	4.52855E-001	-1.23007E-003	0.00000E+000	-3.70030E-001	0.00000E+000	10	...........	1583.05
	365	3.65	4.50864E-001	-1.23010E-003	0.00000E+000	-3.70030E-001	0.00000E+000	10	...........	1583.05
	366	3.66	4.48862E-001	-1.23012E-003	0.00000E+000	-3.70030E-001	0.00000E+000	10	...........	1583.05
	367	3.67	4.46846E-001	-1.23014E-003	0.00000E+000	-3.70030E-001	0.00000E+000	10	...........	1583.05
	368	3.68	4.44845E-001	-1.23010E-003	0.00000E+000	-3.70030E-001	0.00000E+000	10	...........	1583.05
	369	3.69	4.42856E-001	-1.23007E-003	0.00000E+000	-3.70030E-001	0.00000E+000	10	...........	1583.05
	370	3.7	4.40866E-001	-1.23009E-003	0.00000E+000	-3.70030E-001	0.00000E+000	10	...........	1583.05
	371	3.71	4.38885E-001	-1.23007E-003	0.00000E+000	-3.70030E-001	0.00000E+000	10	...........	1583.05
	372	3.72	4.36891E-001	-1.23006E-003	0.00000E+000	-3.70030E-001	0.00000E+000	10	...........	1583.05
	373	3.73	4.34880E-001	-1.23006E-003	0.00000E+000	-3.70030E-001	0.00000E+000	10	...........	1583.05
	374	3.74	4.32881E-001	-1.23013E-003	0.00000E+000	-3.70030E-001	0.00000E+000	10	...........	1583.05
	375	3.75	4.30879E-001	-1.23014E-003	0.00000E+000	-3.70030E-001	0.00000E+000	10	...........	1583.05
	376	3.76	4.28889E-001	-1.23012E-003	0.00000E+000	-3.70030E-001	0.00000E+000	10	...........	1583.05
	377	3.77	4.26906E-001	-1.23014E-003	0.00000E+000	-3.70030E-001	0.00000E+000	10	...........	1583.05
	378	3.78	4.24945E-001	-1.23007E-003	0.00000E+000	-3.70030E-001	0.00000E+000	10	...........	1583.05
	379	3.79	4.22954E-001	-1.23004E-003	0.00000E+000	-3.70030E-001	0.00000E+000	10	...........	1583.05
	380	3.8	4.20925E-001	-1.23008E-003	0.00000E+000	-3.70030E-001	0.00000E+000	10	...........	1583.05
	381	3.81	4.18931E-001	-1.23012E-003	0.00000E+000	-3.70030E-001	0.00000E+000	10	...........	1583.05
	382	3.82	4.16950E-001	-1.23014E-003	0.00000E+000	-3.70030E-001	0.00000E+000	10	...........	1583.05
	383	3.83	4.14965E-001	-1.23013E-003	0.00000E+000	-3.70030E-001	0.00000E+000	10	...........	1583.05
	384	3.84	4.13006E-001	-1.23006E-003	0.00000E+000	-3.70030E-001	0.00000E+000	10	...........	1583.05
	385	3.85	4.10997E-001	-1.23016E-003	0.00000E+000	-3.70030E-001	0.00000E+000	10	...........	1583.05
	386	3.86	4.09005E-001	-1.23017E-003	0.00000E+000	-3.70030E-001	0.00000E+000	10	...........	1583.05
	387	3.87	4.07007E-001	-1.23013E-003	0.00000E+000	-3.70030E-001	0.00000E+000	10	...........	1583.05
	388	3.88	4.05029E-001	-1.23009E-003	0.00000E+000	-3.70030E-001	0.00000E+000	10	...........	1583.05
	389	3.89	4.03029E-001	-1.23009E-003	0.00000E+000	-3.70030E-001	0.00000E+000	10	...........	1583.05
	390	3.9	4.01061E-001	-1.23009E-003	0.00000E+000	-3.70030E-001	0.00000E+000	10	...........	1583.05
	391	3.91	3.99078E-001	-1.23013E-003	0.00000E+000	-3.70030E-001	0.00000E+000	10	...........	1583.05
	392	3.92	3.97097E-001	-1.23012E-003	0.00000E+000	-3.70030E-001	0.00000E+000	10	...........	1583.05
	393	3.93	3.95100E-001	-1.23007E-003	0.00000E+000	-3.70030E-001	0.00000E+000	10	...........	1583.05
	394	3.94	3.93137E-001	-1.23007E-003	0.00000E+000	-3.70030E-001	0.00000E+000	10	...........	1583.05
	395	3.95	3.91142E-001	-1.23009E-003	0.00000E+000	-3.70030E-001	0.00000E+000	10	...........	1583.05
	396	3.96	3.89170E-001	-1.23012E-003	0.00000E+000	-3.70030E-001	0.00000E+000	10	...........	1583.05
	397	3.97	3.87186E-001	-1.23004E-003	0.00000E+000	-3.70030E-001	0.00000E+000	10	...........	1583.05
	398	3.98	3.85214E-001	-1.23010E-003	0.00000E+000	-3.70030E-001	0.00000E+000	10	...........	1583.05
	399	3.99	3.83216E-001	-1.23008E-003	0.00000E+000	-3.70030E-001	0.00000E+000	10	...........	1583.05
	400	4	3.81226E-001	-1.23008E-003	0.00000E+000	-3.70030E-001	0.00000E+000	10	...........	1583.05
	401	4.01	3.79266E-001	-1.23010E-003	0.00000E+000	-3.70030E-001	0.00000E+000	10	...........	1583.05
	402	4.02	3.77272E-001	-1.23013E-003	0.00000E+000	-3.70030E-001	0.00000E+000	10	...........	1583.05
	403	4.03	3.75286E-001	-1.23013E-003	0.00000E+000	-3.70030E-001	0.00000E+000	10	...........	1583.05
	404	4.04	3.73314E-001	-1.23014E-003	0.00000E+000	-3.70030E-001	0.00000E+000	10	...........	1583.05
	405	4.05	3.71334E-001	-1.23013E-003	0.00000E+000	-3.70030E-001	0.00000E+000	10	...........	1583.05
	406	4.06	3.69362E-001	-1.23011E-003	0.00000E+000	-3.70030E-001	0.00000E+000	10	...........	1583.05
	407	4.07	3.67367E-001	-1.23012E-003	0.00000E+000	-3.70030E-001	0.00000E+000	10	...........	1583.05
	408	4.08	3.65416E-001	-1.23014E-003	0.00000E+000	-3.70030E-001	0.00000E+000	10	...........	1583.05
	409	4.09	3.63427E-001	-1.23010E-003	0.00000E+000	-3.70030E-001	0.00000E+000	10	...........	1583.05
	410	4.1	3.61451E-001	-1.23009E-003	0.00000E+000	-3.70030E-001	0.00000E+000	10	...........	1583.05
	411	4.11	3.59499E-001	-1.23011E-003	0.00000E+000	-3.70030E-001	0.00000E+000	10	...........	1583.05
	412	4.12	3.57467E-001	-1.23006E-003	0.00000E+000	-3.70030E-001	0.00000E+000	10	...........	1583.05
	413	4.13	3.55494E-001	-1.23010E-003	0.00000E+000	-3.70030E-001	0.00000E+000	10	...........	1583.05
	414	4.14	3.53505E-001	-1.23016E-003	0.00000E+000	-3.70030E-001	0.00000E+000	10	...........	1583.05
	415	4.15	3.51521E-001	-1.23012E-003	0.00000E+000	-3.70030E-001	0.00000E+000	10	...........	1583.05
	416	4.16	3.49562E-001	-1.23017E-003	0.00000E+000	-3.70030E-001	0.00000E+000	10	...........	1583.05
	417	4.17	3.47576E-001	-1.23009E-003	0.00000E+000	-3.70030E-001	0.00000E+000	10	...........	1583.05
	418	4.18	3.45593E-001	-1.23015E-003	0.00000E+000	-3.70030E-001	0.00000E+000	10	...........	1583.05
	419	4.19	3.43638E-001	-1.23012E-003	0.00000E+000	-3.70030E-001	0.00000E+000	10	...........	1583.05
	420	4.2	3.41648E-001	-1.23011E-003	0.00000E+000	-3.70030E-001	0.00000E+000	10	...........	1583.05
	421	4.21	3.39688E-001	-1.23009E-003	0.00000E+000	-3.70030E-001	0.00000E+000	10	...........	1583.05
	422	4.22	3.37720E-001	-1.23004E-003	0.00000E+000	-3.70030E-001	0.00000E+000	10	...........	1583.05
	423	4.23	3.35738E-001	-1.23003E-003	0.00000E+000	-3.70030E-001	0.00000E+000	10	...........	1583.05
	424	4.24	3.33778E-001	-1.23005E-003	0.00000E+000	-3.70030E-001	0.00000E+000	10	...........	1583.05
	425	4.25	3.31757E-001	-1.23016E-003	0.00000E+000	-3.70030E-001	0.00000E+000	10	...........	1583.05
	426	4.26	3.29759E-001	-1.23012E-003	0.00000E+000	-3.70030E-001	0.00000E+000	10	...........	1583.05
	427	4.27	3.27805E-001	-1.23005E-003	0.00000E+000	-3.70030E-001	0.00000E+000	10	...........	1583.05
	428	4.28	3.25829E-001	-1.23003E-003	0.00000E+000	-3.70030E-001	0.00000E+000	10	...........	1583.05
	429	4.29	3.23875E-001	-1.23005E-003	0.00000E+000	-3.70030E-001	0.00000E+000	10	...........	1583.05
	430	4.3	3.21883E-001	-1.23004E-003	0.00000E+000	-3.70030E-001	0.00000E+000	10	...........	1583.05
	431	4.31	3.19888E-001	-1.23009E-003	0.00000E+000	-3.70030E-001	0.00000E+000	10	...........	1583.05
	432	4.32	3.17910E-001	-1.23008E-003	0.00000E+000	-3.70030E-001	0.00000E+000	10	...........	1583.05
	433	4.33	3.15921E-001	-1.23011E-003	0.00000E+000	-3.70030E-001	0.00000E+000	10	...........	1583.05
	434	4.34	3.13941E-001	-1.23012E-003	0.00000E+000	-3.70030E-001	0.00000E+000	10	...........	1583.05
	435	4.35	3.11970E-001	-1.23010E-003	0.00000E+000	-3.70030E-001	0.00000E+000	10	...........	1583.05
	436	4.36	3.09996E-001	-1.23004E-003	0.00000E+000	-3.70030E-001	0.00000E+000	10	...........	1583.05
	437	4.37	3.08027E-001	-1.23012E-003	0.00000E+000	-3.70030E-001	0.00000E+000	10	...........	1583.05
	438	4.38	3.06002E-001	-1.23009E-003	0.00000E+000	-3.70030E-001	0.00000E+000	10	...........	1583.05
	439	4.39	3.04031E-001	-1.23013E-003	0.00000E+000	-3.70030E-001	0.00000E+000	10	...........	1583.05
	440	4.4	3.02062E-001	-1.23012E-003	0.00000E+000	-3.70030E-001	0.00000E+000	10	...........	1583.05
	441	4.41	3.00080E-001	-1.23009E-003	0.00000E+000	-3.70030E-001	0.00000E+000	10	...........	1583.05
	442	4.42	2.98095E-001	-1.23010E-003	0.00000E+000	-3.70030E-001	0.00000E+000	10	...........	1583.05
	443	4.43	2.96122E-001	-1.23010E-003	0.00000E+000	-3.70030E-001	0.00000E+000	10	...........	1583.05
	444	4.44	2.94114E-001	-1.23011E-003	0.00000E+000	-3.70030E-001	0.00000E+000	10	...........	1583.05
	445	4.45	2.92141E-001	-1.23012E-003	0.00000E+000	-3.70030E-001	0.00000E+000	10	...........	1583.05
	446	4.46	2.90175E-001	-1.23009E-003	0.00000E+000	-3.70030E-001	0.00000E+000	10	...........	1583.05
	447	4.47	2.88193E-001	-1.23006E-003	0.00000E+000	-3.70030E-001	0.00000E+000	10	...........	1583.05
	448	4.48	2.86195E-001	-1.23010E-003	0.00000E+000	-3.70030E-001	0.00000E+000	10	...........	1583.05
	449	4.49	2.84216E-001	-1.23009E-003	0.00000E+000	-3.70030E-001	0.00000E+000	10	...........	1583.05
	450	4.5	2.82260E-001	-1.23006E-003	0.00000E+000	-3.70030E-001	0.00000E+000	10	...........	1583.05
	451	4.51	2.80251E-001	-1.23003E-003	0.00000E+000	-3.70030E-001	0.00000E+000	10	...........	1583.05
	452	4.52	2.78267E-001	-1.23009E-003	0.00000E+000	-3.70030E-001	0.00000E+000	10	...........	1583.05
	453	4.53	2.76283E-001	-1.23007E-003	0.00000E+000	-3.70030E-001	0.00000E+000	10	...........	1583.05
	454	4.54	2.74301E-001	-1.23007E-003	0.00000E+000	-3.70030E-001	0.00000E+000	10	...........	1583.05
	455	4.55	2.72333E-001	-1.23006E-003	0.00000E+000	-3.70030E-001	0.00000E+000	10	...........	1583.05
	456	4.56	2.70343E-001	-1.23004E-003	0.00000E+000	-3.70030E-001	0.00000E+000	10	...........	1583.05
	457	4.57	2.68328E-001	-1.23008E-003	0.00000E+000	-3.70030E-001	0.00000E+000	10	...........	1583.05
	458	4.58	2.66365E-001	-1.23014E-003	0.00000E+000	-3.70030E-001	0.00000E+000	10	...........	1583.05
	459	4.59	2.64362E-001	-1.23011E-003	0.00000E+000	-3.70030E-001	0.00000E+000	10	...........	1583.05
	460	4.6	2.62400E-001	-1.23005E-003	0.00000E+000	-3.70030E-001	0.00000E+000	10	...........	1583.05
	461	4.61	2.60423E-001	-1.23012E-003	0.00000E+000	-3.70030E-001	0.00000E+000	10	...........	1583.05
	462	4.62	2.58439E-001	-1.23008E-003	0.00000E+000	-3.70030E-001	0.00000E+000	10	...........	1583.05
	463	4.63	2.56467E-001	-1.23008E-003	0.00000E+000	-3.70030E-001	0.00000E+000	10	...........	1583.05
	464	4.64	2.54445E-001	-1.23007E-003	0.00000E+000	-3.70030E-001	0.00000E+000	10	...........	1583.05
	465	4.65	2.52477E-001	-1.23012E-003	0.00000E+000	-3.70030E-001	0.00000E+000	10	...........	1583.05
	466	4.66	2.50511E-001	-1.23009E-003	0.00000E+000	-3.70030E-001	0.00000E+000	10	...........	1583.05
	467	4.67	2.48525E-001	-1.23006E-003	0.00000E+000	-3.70030E-001	0.00000E+000	10	...........	1583.05
	468	4.68	2.46547E-001	-1.23004E-003	0.00000E+000	-3.70030E-001	0.00000E+000	10	...........	1583.05
	469	4.69	2.44588E-001	-1.23007E-003	0.00000E+000	-3.70030E-001	0.00000E+000	10	...........	1583.05
	470	4.7	2.42594E-001	-1.23007E-003	0.00000E+000	-3.70030E-001	0.00000E+000	10	...........	1583.05
	471	4.71	2.40650E-001	-1.23007E-003	0.00000E+000	-3.70030E-001	0.00000E+000	10	...........	1583.05
	472	4.72	2.38675E-001	-1.23006E-003	0.00000E+000	-3.70030E-001	0.00000E+000	10	...........	1583.05
	473	4.73	2.36698E-001	-1.23006E-003	0.00000E+000	-3.70030E-001	0.00000E+000	10	...........	1583.05
	474	4.74	2.34722E-001	-1.23009E-003	0.00000E+000	-3.70030E-001	0.00000E+000	10	...........	1583.05
	475	4.75	2.32749E-001	-1.23008E-003	0.00000E+000	-3.70030E-001	0.00000E+000	10	...........	1583.05
	476	4.76	2.30780E-001	-1.23011E-003	0.00000E+000	-3.70030E-001	0.00000E+000	10	...........	1583.05
	477	4.77	2.28807E-001	-1.23010E-003	0.00000E+000	-3.70030E-001	0.00000E+000	10	...........	1583.05
	478	4.78	2.26844E-001	-1.23007E-003	0.00000E+000	-3.70030E-001	0.00000E+000	10	...........	1583.05
	479	4.79	2.24873E-001	-1.23005E-003	0.00000E+000	-3.70030E-001	0.00000E+000	10	...........	1583.05
	480	4.8	2.22909E-001	-1.23009E-003	0.00000E+000	-3.70030E-001	0.00000E+000	10	...........	1583.05
	481	4.81	2.20945E-001	-1.23006E-003	0.00000E+000	-3.70030E-001	0.00000E+000	10	...........	1583.05
	482	4.82	2.18984E-001	-1.23006E-003	0.00000E+000	-3.70030E-001	0.00000E+000	10	...........	1583.05
	483	4.83	2.17026E-001	-1.23010E-003	0.00000E+000	-3.70030E-001	0.00000E+000	10	...........	1583.05
	484	4.84	2.15070E-001	-1.23013E-003	0.00000E+000	-3.70030E-001	0.00000E+000	10	...........	1583.05
	485	4.85	2.13112E-001	-1.23013E-003	0.00000E+000	-3.70030E-001	0.00000E+000	10	...........	1583.05
	486	4.86	2.11160E-001	-1.23008E-003	0.00000E+000	-3.70030E-001	0.00000E+000	10	...........	1583.05
	487	4.87	2.09208E-001	-1.23003E-003	0.00000E+000	-3.70030E-001	0.00000E+000	10	...........	1583.05
	488	4.88	2.07263E-001	-1.23008E-003	0.00000E+000	-3.70030E-001	0.00000E+000	10	...........	1583.05
	489	4.89	2.05320E-001	-1.23008E-003	0.00000E+000	-3.70030E-001	0.00000E+000	10	...........	1583.05
	490	4.9	2.03381E-001	-1.23008E-003	0.00000E+000	-3.70030E-001	0.00000E+000	10	...........	1583.05
	491	4.91	2.01439E-001	-1.23009E-003	0.00000E+000	-3.70030E-001	0.00000E+000	10	...........	1583.05
	492	4.92	1.99503E-001	-1.23015E-003	0.00000E+000	-3.70030E-001	0.00000E+000	10	...........	1583.05
	493	4.93	1.97569E-001	-1.23016E-003	0.00000E+000	-3.70030E-001	0.00000E+000	10	...........	1583.05
	494	4.94	1.95642E-001	-1.23009E-003	0.00000E+000	-3.70030E-001	0.00000E+000	10	...........	1583.05
	495	4.95	1.93711E-001	-1.23007E-003	0.00000E+000	-3.70030E-001	0.00000E+000	10	...........	1583.05
	496	4.96	1.91786E-001	-1.23009E-003	0.00000E+000	-3.70030E-001	0.00000E+000	10	...........	1583.05
	497	4.97	1.89869E-001	-1.23011E-003	0.00000E+000	-3.70030E-001	0.00000E+000	10	...........	1583.05
	498	4.98	1.87951E-001	-1.23004E-003	0.00000E+000	-3.70030E-001	0.00000E+000	10	...........	1583.05
	499	4.99	1.86041E-001	-1.23007E-003	0.00000E+000	-3.70030E-001	0.00000E+000	10	...........	1583.05
	500	5	1.84136E-001	-1.23006E-003	0.00000E+000	-3.70030E-001	0.00000E+000	10	...........	1583.05
	501	5.01	1.82233E-001	-1.23007E-003	0.00000E+000	-3.70030E-001	0.00000E+000	10	...........	1583.05
	502	5.02	1.80333E-001	-1.23009E-003	0.00000E+000	-3.70030E-001	0.00000E+000	10	...........	1583.05
	503	5.03	1.78438E-001	-1.23006E-003	0.00000E+000	-3.70030E-001	0.00000E+000	10	...........	1583.05
	504	5.04	1.76552E-001	-1.23003E-003	0.00000E+000	-3.70030E-001	0.00000E+000	10	...........	1583.05
	505	5.05	1.74667E-001	-1.23005E-003	0.00000E+000	-3.70030E-001	0.00000E+000	10	...........	1583.05
	506	5.06	1.72789E-001	-1.23005E-003	0.00000E+000	-3.70030E-001	0.00000E+000	10	...........	1583.05
	507	5.07	1.70911E-001	-1.23002E-003	0.00000E+000	-3.70030E-001	0.00000E+000	10	...........	1583.05
	508	5.08	1.69038E-001	-1.23004E-003	0.00000E+000	-3.70030E-001	0.00000E+000	10	...........	1583.05
	509	5.09	1.67172E-001	-1.23007E-003	0.00000E+000	-3.70030E-001	0.00000E+000	10	...........	1583.05
	510	5.1	1.65314E-001	-1.23005E-003	0.00000E+000	-3.70030E-001	0.00000E+000	10	...........	1583.05
	511	5.11	1.63455E-001	-1.23005E-003	0.00000E+000	-3.70030E-001	0.00000E+000	10	...........	1583.05
	512	5.12	1.61606E-001	-1.23011E-003	0.00000E+000	-3.70030E-001	0.00000E+000	10	...........	1583.05
	513	5.13	1.59756E-001	-1.23009E-003	0.00000E+000	-3.70030E-001	0.00000E+000	10	...........	1583.05
	514	5.14	1.57920E-001	-1.23009E-003	0.00000E+000	-3.70030E-001	0.00000E+000	10	...........	1583.05
	515	5.15	1.56081E-001	-1.23006E-003	0.00000E+000	-3.70030E-001	0.00000E+000	10	...........	1583.05
	516	5.16	1.54252E-001	-1.23004E-003	0.00000E+000	-3.70030E-001	0.00000E+000	10	...........	1583.05
	517	5.17	1.52431E-001	-1.23008E-003	0.00000E+000	-3.70030E-001	0.00000E+000	10	...........	1583.05
	518	5.18	1.50605E-001	-1.23007E-003	0.00000E+000	-3.70030E-001	0.00000E+000	10	...........	1583.05
	519	5.19	1.48797E-001	-1.23007E-003	0.00000E+000	-3.70030E-001	0.00000E+000	10	...........	1583.05
	520	5.2	1.46988E-001	-1.23006E-003	0.00000E+000	-3.70030E-001	0.00000E+000	10	...........	1583.05
	521	5.21	1.45188E-001	-1.23008E-003	0.00000E+000	-3.70030E-001	0.00000E+000	10	...........	1583.05
	522	5.22	1.43392E-001	-1.23006E-003	0.00000E+000	-3.70030E-001	0.00000E+000	10	...........	1583.05
	523	5.23	1.41600E-001	-1.23007E-003	0.00000E+000	-3.70030E-001	0.00000E+000	10	...........	1583.05
	524	5.24	1.39814E-001	-1.23007E-003	0.00000E+000	-3.70030E-001	0.00000E+000	10	...........	1583.05
	525	5.25	1.38034E-001	-1.23011E-003	0.00000E+000	-3.70030E-001	0.00000E+000	10	...........	1583.05
	526	5.26	1.36264E-001	-1.23012E-003	0.00000E+000	-3.70030E-001	0.00000E+000	10	...........	1583.05
	527	5.27	1.34495E-001	-1.23010E-003	0.00000E+000	-3.70030E-001	0.00000E+000	10	...........	1583.05
	528	5.28	1.32730E-001	-1.23009E-003	0.00000E+000	-3.70030E-001	0.00000E+000	10	...........	1583.05
	529	5.29	1.30976E-001	-1.23007E-003	0.00000E+000	-3.70030E-001	0.00000E+000	10	...........	1583.05
	530	5.3	1.29228E-001	-1.23008E-003	0.00000E+000	-3.70030E-001	0.00000E+000	10	...........	1583.05
	531	5.31	1.27485E-001	-1.23006E-003	0.00000E+000	-3.70030E-001	0.00000E+000	10	...........	1583.05
	532	5.32	1.25749E-001	-1.23010E-003	0.00000E+000	-3.70030E-001	0.00000E+000	10	...........	1583.05
	533	5.33	1.24014E-001	-1.23002E-003	0.00000E+000	-3.70030E-001	0.00000E+000	10	...........	1583.05
	534	5.34	1.22291E-001	-1.23007E-003	0.00000E+000	-3.70030E-001	0.00000E+000	10	...........	1583.05
	535	5.35	1.20572E-001	-1.23010E-003	0.00000E+000	-3.70030E-001	0.00000E+000	10	...........	1583.05
	536	5.36	1.18858E-001	-1.23010E-003	0.00000E+000	-3.70030E-001	0.00000E+000	10	...........	1583.05
	537	5.37	1.17151E-001	-1.23011E-003	0.00000E+000	-3.70030E-001	0.00000E+000	10	...........	1583.05
	538	5.38	1.15450E-001	-1.23007E-003	0.00000E+000	-3.70030E-001	0.00000E+000	10	...........	1583.05
	539	5.39	1.13753E-001	-1.23007E-003	0.00000E+000	-3.70030E-001	0.00000E+000	10	...........	1583.05
	540	5.4	1.12065E-001	-1.23011E-003	0.00000E+000	-3.70030E-001	0.00000E+000	10	...........	1583.05
	541	5.41	1.10382E-001	-1.23013E-003	0.00000E+000	-3.70030E-001	0.00000E+000	10	...........	1583.05
	542	5.42	1.08705E-001	-1.23017E-003	0.00000E+000	-3.70030E-001	0.00000E+000	10	...........	1583.05
	543	5.43	1.07032E-001	-1.23015E-003	0.00000E+000	-3.70030E-001	0.00000E+000	10	...........	1583.05
	544	5.44	1.05370E-001	-1.23012E-003	0.00000E+000	-3.70030E-001	0.00000E+000	10	...........	1583.05
	545	5.45	1.03712E-001	-1.23013E-003	0.00000E+000	-3.70030E-001	0.00000E+000	10	...........	1583.05
	546	5.46	1.02056E-001	-1.23012E-003	0.00000E+000	-3.70030E-001	0.00000E+000	10	...........	1583.05
	547	5.47	1.00412E-001	-1.23014E-003	0.00000E+000	-3.70030E-001	0.00000E+000	10	...........	1583.05
	548	5.48	9.87677E-002	-1.23016E-003	0.00000E+000	-3.70030E-001	0.00000E+000	10	...........	1583.05
	549	5.49	9.71326E-002	-1.23010E-003	0.00000E+000	-3.70030E-001	0.00000E+000	10	...........	1583.05
	550	5.5	9.55032E-002	-1.23012E-003	0.00000E+000	-3.70030E-001	0.00000E+000	10	...........	1583.05
	551	5.51	9.38805E-002	-1.23011E-003	0.00000E+000	-3.70030E-001	0.00000E+000	10	...........	1583.05
	552	5.52	9.22639E-002	-1.23012E-003	0.00000E+000	-3.70030E-001	0.00000E+000	10	...........	1583.05
	553	5.53	9.06529E-002	-1.23012E-003	0.00000E+000	-3.70030E-001	0.00000E+000	10	...........	1583.05
	554	5.54	8.90482E-002	-1.23006E-003	0.00000E+000	-3.70030E-001	0.00000E+000	10	...........	1583.05
	555	5.55	8.74520E-002	-1.23011E-003	0.00000E+000	-3.70030E-001	0.00000E+000	10	...........	1583.05
	556	5.56	8.58586E-002	-1.23010E-003	0.00000E+000	-3.70030E-001	0.00000E+000	10	...........	1583.05
	557	5.57	8.42699E-002	-1.23009E-003	0.00000E+000	-3.70030E-001	0.00000E+000	10	...........	1583.05
	558	5.58	8.26877E-002	-1.23008E-003	0.00000E+000	-3.70030E-001	0.00000E+000	10	...........	1583.05
	559	5.59	8.11143E-002	-1.23009E-003	0.00000E+000	-3.70030E-001	0.00000E+000	10	...........	1583.05
	560	5.6	7.95473E-002	-1.23009E-003	0.00000E+000	-3.70030E-001	0.00000E+000	10	...........	1583.05
	561	5.61	7.79825E-002	-1.23007E-003	0.00000E+000	-3.70030E-001	0.00000E+000	10	...........	1583.05
	562	5.62	7.64271E-002	-1.23007E-003	0.00000E+000	-3.70030E-001	0.00000E+000	10	...........	1583.05
	563	5.63	7.48728E-002	-1.23012E-003	0.00000E+000	-3.70030E-001	0.00000E+000	10	...........	1583.05
	564	5.64	7.33260E-002	-1.23018E-003	0.00000E+000	-3.70030E-001	0.00000E+000	10	...........	1583.05
	565	5.65	7.17843E-002	-1.23019E-003	0.00000E+000	-3.70030E-001	0.00000E+000	10	...........	1583.05
	566	5.66	7.02468E-002	-1.23016E-003	0.00000E+000	-3.70030E-001	0.00000E+000	10	...........	1583.05
	567	5.67	6.87151E-002	-1.23023E-003	0.00000E+000	-3.70030E-001	0.00000E+000	10	...........	1583.05
	568	5.68	6.71911E-002	-1.23017E-003	0.00000E+000	-3.70030E-001	0.00000E+000	10	...........	1583.05
	569	5.69	6.56725E-002	-1.23019E-003	0.00000E+000	-3.70030E-001	0.00000E+000	10	...........	1583.05
	570	5.7	6.41617E-002	-1.23015E-003	0.00000E+000	-3.70030E-001	0.00000E+000	10	...........	1583.05
	571	5.71	6.26577E-002	-1.23014E-003	0.00000E+000	-3.70030E-001	0.00000E+000	10	...........	1583.05
	572	5.72	6.11500E-002	-1.23011E-003	0.00000E+000	-3.70030E-001	0.00000E+000	10	...........	1583.05
	573	5.73	5.96591E-002	-1.23011E-003	0.00000E+000	-3.70030E-001	0.00000E+000	10	...........	1583.05
	574	5.74	5.81624E-002	-1.23015E-003	0.00000E+000	-3.70030E-001	0.00000E+000	10	...........	1583.05
	575	5.75	5.66800E-002	-1.23019E-003	0.00000E+000	-3.70030E-001	0.00000E+000	10	...........	1583.05
	576	5.76	5.51971E-002	-1.23013E-003	0.00000E+000	-3.70030E-001	0.00000E+000	10	...........	1583.05
	577	5.77	5.37227E-002	-1.23010E-003	0.00000E+000	-3.70030E-001	0.00000E+000	10	...........	1583.05
	578	5.78	5.22526E-002	-1.23012E-003	0.00000E+000	-3.70030E-001	0.00000E+000	10	...........	1583.05
	579	5.79	5.07869E-002	-1.23009E-003	0.00000E+000	-3.70030E-001	0.00000E+000	10	...........	1583.05
	580	5.8	4.93283E-002	-1.23007E-003	0.00000E+000	-3.70030E-001	0.00000E+000	10	...........	1583.05
	581	5.81	4.78754E-002	-1.23012E-003	0.00000E+000	-3.70030E-001	0.00000E+000	10	...........	1583.05
	582	5.82	4.64285E-002	-1.23010E-003	0.00000E+000	-3.70030E-001	0.00000E+000	10	...........	1583.05
	583	5.83	4.49849E-002	-1.23006E-003	0.00000E+000	-3.70030E-001	0.00000E+000	10	...........	1583.05
	584	5.84	4.35497E-002	-1.23004E-003	0.00000E+000	-3.70030E-001	0.00000E+000	10	...........	1583.05
	585	5.85	4.21147E-002	-1.23009E-003	0.00000E+000	-3.70030E-001	0.00000E+000	10	...........	1583.25
	586	5.86	4.06852E-002	-1.23008E-003	0.00000E+000	-3.70030E-001	0.00000E+000	10	...........	1583.25
	587	5.87	3.92602E-002	-1.23013E-003	0.00000E+000	-3.70030E-001	0.00000E+000	10	...........	1583.25
	588	5.88	3.78418E-002	-1.23011E-003	0.00000E+000	-3.70030E-001	0.00000E+000	10	...........	1583.25
	589	5.89	3.64320E-002	-1.23013E-003	0.00000E+000	-3.70030E-001	0.00000E+000	10	...........	1583.25
	590	5.9	3.50215E-002	-1.23013E-003	0.00000E+000	-3.70030E-001	0.00000E+000	10	...........	1583.25
	591	5.91	3.36206E-002	-1.23011E-003	0.00000E+000	-3.70030E-001	0.00000E+000	10	...........	1583.25
	592	5.92	3.22216E-002	-1.23011E-003	0.00000E+000	-3.70030E-001	0.00000E+000	10	...........	1583.25
	593	5.93	3.08291E-002	-1.23012E-003	0.00000E+000	-3.70030E-001	0.00000E+000	10	...........	1583.25
	594	5.94	2.94411E-002	-1.23013E-003	0.00000E+000	-3.70030E-001	0.00000E+000	10	...........	1583.25
	595	5.95	2.80541E-002	-1.23016E-003	0.00000E+000	-3.70030E-001	0.00000E+000	10	...........	1583.25
	596	5.96	2.66765E-002	-1.23015E-003	0.00000E+000	-3.70030E-001	0.00000E+000	10	...........	1583.25
	597	5.97	2.52988E-002	-1.23016E-003	0.00000E+000	-3.70030E-001	0.00000E+000	10	...........	1583.25
	598	5.98	2.39299E-002	-1.23017E-003	0.00000E+000	-3.70030E-001	0.00000E+000	10	...........	1583.25
	599	5.99	2.25707E-002	-1.23015E-003	0.00000E+000	-3.70030E-001	0.00000E+000	10	...........	1583.25
	600	6	2.12092E-002	-1.23017E-003	0.00000E+000	-3.70030E-001	0.00000E+000	10	...........	1583.25
	601	6.01	1.98502E-002	-1.23012E-003	0.00000E+000	-3.70030E-001	0.00000E+000	10	...........	1583.25
	602	6.02	1.85004E-002	-1.23015E-003	0.00000E+000	-3.70030E-001	0.00000E+000	10	...........	1583.25
	603	6.03	1.71517E-002	-1.23010E-003	0.00000E+000	-3.70030E-001	0.00000E+000	10	...........	1583.25
	604	6.04	1.58125E-002	-1.23009E-003	0.00000E+000	-3.70030E-001	0.00000E+000	10	...........	1583.25
	605	6.05	1.44740E-002	-1.23007E-003	0.00000E+000	-3.70030E-001	0.00000E+000	10	...........	1583.25
	606	6.06	1.31412E-002	-1.23014E-003	0.00000E+000	-3.70030E-001	0.00000E+000	10	...........	1583.25
	607	6.07	1.18113E-002	-1.23013E-003	0.00000E+000	-3.70030E-001	0.00000E+000	10	...........	1583.25
	608	6.08	1.04847E-002	-1.23012E-003	0.00000E+000	-3.70030E-001	0.00000E+000	10	...........	1583.25
	609	6.09	9.16676E-003	-1.23014E-003	0.00000E+000	-3.70030E-001	0.00000E+000	10	...........	1583.25
	610	6.1	7.84908E-003	-1.23017E-003	0.00000E+000	-3.70030E-001	0.00000E+000	10	...........	1583.25
	611	6.11	6.53501E-003	-1.23016E-003	0.00000E+000	-3.70030E-001	0.00000E+000	10	...........	1583.25
	612	6.12	5.22809E-003	-1.23014E-003	0.00000E+000	-3.70030E-001	0.00000E+000	10	...........	1583.25
	613	6.13	3.92398E-003	-1.23020E-003	0.00000E+000	-3.70030E-001	0.00000E+000	10	...........	1583.25
	614	6.14	2.62548E-003	-1.23016E-003	0.00000E+000	-3.70030E-001	0.00000E+000	10	...........	1583.25
	615	6.15	1.32887E-003	-1.23016E-003	0.00000E+000	-3.70030E-001	0.00000E+000	10	...........	1583.25
	616	6.16	3.89125E-005	-1.23014E-003	0.00000E+000	-3.70030E-001	0.00000E+000	10	...........	1583.25
	617	6.17	-1.24858E-003	-1.23008E-003	0.00000E+000	-3.70030E-001	0.00000E+000	10	...........	1583.25
