EXPLAIN
TAG	CHRONOP
TITLE	LABEL	Chronopotentiometry Scan	Test Identifier
DATE	LABEL	23/1/2025	Date
TIME	LABEL	14:29:46	Time
NOTES	NOTES	1	Notes...
	
PSTAT	PSTAT	IFC1010-42004	Potentiostat
IPRESTEP	QUANT	0.00000E+000	Pre-step Current(A)
TPRESTEP	QUANT	0.00000E+000	Pre-step Delay Time (s)
ISTEP1	QUANT	1.23000E-003	Step 1 Current (A)
TSTEP1	QUANT	5.00000E+003	Step 1 Time (s)
ISTEP2	QUANT	-1.23000E-003	Step 2 Current (A)
TSTEP2	QUANT	5.00000E+003	Step 2 Time (s)
SAMPLETIME	QUANT	1.00000E-002	Sample Period (s)
DECIMATE	TOGGLE	F	Decimate
VLIMITLOWER	QUANT	0.00000E+000	Lower Limit V (V)
VLIMITUPPER	QUANT	8.00000E-001	Upper Limit V (V)
EQDELAY	QUANT	1.00000E+000	Equil. Time (s)
SAMPLINGMODE	SELECTOR	1	Sampling Mode
AREA	QUANT	2.00000E+000	Sample Area (cm^2)
ELECTRODETYPE	SELECTOR	0	Electrode Type
STRIPPING	TOGGLE	F	Used for Stripping
SEQUENCER	TOGGLE	TRUE	Run as Sequence
PSTATMODEL	IQUANT	64	Pstat Model
PSTATSECTION	LABEL	IFC1010-42004	Pstat Section
PSTATSERIALNO	LABEL	42004	Pstat Serial Number
CTRLMODE	IQUANT	0	Control Mode
ELECTROMETER	IQUANT	0	RE=0 or CS=1
IESTAB	IQUANT	0	I/E Stability
CASPEED	IQUANT	4	Control Amp Speed
CONVENTION	IQUANT	1	Current Convention
ICHRANGE	IQUANT	2	Ich Range
ICHRANGEMODE	TOGGLE	T	Ich Auto Range
ICHOFFSETENABLE	TOGGLE	F	Ich Offset Enable
ICHOFFSET	QUANT	0	Ich Offset (V)
ICHFILTER	IQUANT	3	Ich Filter
VCHRANGE	IQUANT	3	Vch Range
VCHRANGEMODE	TOGGLE	T	Vch Auto Range
VCHOFFSETENABLE	TOGGLE	F	Vch Offset Enable
VCHOFFSET	QUANT	0	Vch Offset (V)
VCHFILTER	IQUANT	3	Vch Filter
IERANGELOWERLIMIT	IQUANT	4	I/E Range Lower Limit
IERANGEMODE	TOGGLE	F	I/E AutoRange
IERANGE	IQUANT	11	I/E Range
ACHSELECT	IQUANT	0	Ach Select
ACHRANGE	IQUANT	2	Ach Range
ACHOFFSETENABLE	TOGGLE	F	Ach Offset Enable
ACHOFFSET	QUANT	0	Ach Offset (V)
ACHFILTER	IQUANT	1	Ach Filter
SENSECABLEID	IQUANT	14	Sense Cable ID
PWRCABLEID	IQUANT	14	Power Cable ID
DCCALDATE	LABEL	1/22/2025	DC Calibration Date
ACCALDATE	LABEL	11/15/2024	AC Calibration Date
FRAMEWORKVERSION	LABEL	7.10.4	Framework Version
INSTRUMENTVERSION	LABEL	4.91	Instrument Version
COMMVERSION	LABEL	3.10	Communications Version
CPUPLDVERSION	LABEL	2.54	CPU PLD Version
CTRLPLDVERSION	LABEL	0.00	CTRL PLD Version
PSTATPLDVERSION	LABEL	0.00	PSTAT PLD Version
CURVE	TABLE	595
	Pt	T	Vf	Im	Vu	Sig	Ach	IERange	Over	Temp
	#	s	V vs. Ref.	A	V	V	V	#	bits	deg C
	0	0	2.42262E-001	-7.76998E-008	0.00000E+000	0.00000E+000	0.00000E+000	10	...........	1583.34
	1	0.01	2.58201E-001	1.22957E-003	0.00000E+000	3.70030E-001	0.00000E+000	10	...........	1583.34
	2	0.02	2.60984E-001	1.22963E-003	0.00000E+000	3.70030E-001	0.00000E+000	10	...........	1583.34
	3	0.03	2.63430E-001	1.22966E-003	0.00000E+000	3.70030E-001	0.00000E+000	10	...........	1583.34
	4	0.04	2.65744E-001	1.22962E-003	0.00000E+000	3.70030E-001	0.00000E+000	10	...........	1583.34
	5	0.05	2.68011E-001	1.22967E-003	0.00000E+000	3.70030E-001	0.00000E+000	10	...........	1583.34
	6	0.06	2.70281E-001	1.22966E-003	0.00000E+000	3.70030E-001	0.00000E+000	10	...........	1583.34
	7	0.07	2.72487E-001	1.22963E-003	0.00000E+000	3.70030E-001	0.00000E+000	10	...........	1583.34
	8	0.08	2.74694E-001	1.22962E-003	0.00000E+000	3.70030E-001	0.00000E+000	10	...........	1583.34
	9	0.09	2.76889E-001	1.22963E-003	0.00000E+000	3.70030E-001	0.00000E+000	10	...........	1583.34
	10	0.1	2.79071E-001	1.22964E-003	0.00000E+000	3.70030E-001	0.00000E+000	10	...........	1583.34
	11	0.11	2.81261E-001	1.22964E-003	0.00000E+000	3.70030E-001	0.00000E+000	10	...........	1583.34
	12	0.12	2.83482E-001	1.22970E-003	0.00000E+000	3.70030E-001	0.00000E+000	10	...........	1583.34
	13	0.13	2.85665E-001	1.22964E-003	0.00000E+000	3.70030E-001	0.00000E+000	10	...........	1583.34
	14	0.14	2.87847E-001	1.22966E-003	0.00000E+000	3.70030E-001	0.00000E+000	10	...........	1583.34
	15	0.15	2.90038E-001	1.22968E-003	0.00000E+000	3.70030E-001	0.00000E+000	10	...........	1583.34
	16	0.16	2.92216E-001	1.22967E-003	0.00000E+000	3.70030E-001	0.00000E+000	10	...........	1583.34
	17	0.17	2.94424E-001	1.22957E-003	0.00000E+000	3.70030E-001	0.00000E+000	10	...........	1583.34
	18	0.18	2.96618E-001	1.22965E-003	0.00000E+000	3.70030E-001	0.00000E+000	10	...........	1583.34
	19	0.19	2.98796E-001	1.22968E-003	0.00000E+000	3.70030E-001	0.00000E+000	10	...........	1583.34
	20	0.2	3.01002E-001	1.22968E-003	0.00000E+000	3.70030E-001	0.00000E+000	10	...........	1583.34
	21	0.21	3.03194E-001	1.22976E-003	0.00000E+000	3.70030E-001	0.00000E+000	10	...........	1583.34
	22	0.22	3.05391E-001	1.22965E-003	0.00000E+000	3.70030E-001	0.00000E+000	10	...........	1583.34
	23	0.23	3.07622E-001	1.22973E-003	0.00000E+000	3.70030E-001	0.00000E+000	10	...........	1583.34
	24	0.24	3.09818E-001	1.22971E-003	0.00000E+000	3.70030E-001	0.00000E+000	10	...........	1583.34
	25	0.25	3.12011E-001	1.22964E-003	0.00000E+000	3.70030E-001	0.00000E+000	10	...........	1583.34
	26	0.26	3.14212E-001	1.22962E-003	0.00000E+000	3.70030E-001	0.00000E+000	10	...........	1583.34
	27	0.27	3.16390E-001	1.22958E-003	0.00000E+000	3.70030E-001	0.00000E+000	10	...........	1583.34
	28	0.28	3.18584E-001	1.22960E-003	0.00000E+000	3.70030E-001	0.00000E+000	10	...........	1583.34
	29	0.29	3.20831E-001	1.22958E-003	0.00000E+000	3.70030E-001	0.00000E+000	10	...........	1583.34
	30	0.3	3.23023E-001	1.22963E-003	0.00000E+000	3.70030E-001	0.00000E+000	10	...........	1583.34
	31	0.31	3.25240E-001	1.22960E-003	0.00000E+000	3.70030E-001	0.00000E+000	10	...........	1583.34
	32	0.32	3.27473E-001	1.22963E-003	0.00000E+000	3.70030E-001	0.00000E+000	10	...........	1583.34
	33	0.33	3.29683E-001	1.22968E-003	0.00000E+000	3.70030E-001	0.00000E+000	10	...........	1583.34
	34	0.34	3.31898E-001	1.22966E-003	0.00000E+000	3.70030E-001	0.00000E+000	10	...........	1583.34
	35	0.35	3.34138E-001	1.22970E-003	0.00000E+000	3.70030E-001	0.00000E+000	10	...........	1583.34
	36	0.36	3.36378E-001	1.22969E-003	0.00000E+000	3.70030E-001	0.00000E+000	10	...........	1583.34
	37	0.37	3.38604E-001	1.22968E-003	0.00000E+000	3.70030E-001	0.00000E+000	10	...........	1583.34
	38	0.38	3.40820E-001	1.22968E-003	0.00000E+000	3.70030E-001	0.00000E+000	10	...........	1583.34
	39	0.39	3.43040E-001	1.22962E-003	0.00000E+000	3.70030E-001	0.00000E+000	10	...........	1583.34
	40	0.4	3.45260E-001	1.22965E-003	0.00000E+000	3.70030E-001	0.00000E+000	10	...........	1583.34
	41	0.41	3.47527E-001	1.22971E-003	0.00000E+000	3.70030E-001	0.00000E+000	10	...........	1583.34
	42	0.42	3.49757E-001	1.22965E-003	0.00000E+000	3.70030E-001	0.00000E+000	10	...........	1583.34
	43	0.43	3.51995E-001	1.22964E-003	0.00000E+000	3.70030E-001	0.00000E+000	10	...........	1583.34
	44	0.44	3.54220E-001	1.22966E-003	0.00000E+000	3.70030E-001	0.00000E+000	10	...........	1583.34
	45	0.45	3.56468E-001	1.22969E-003	0.00000E+000	3.70030E-001	0.00000E+000	10	...........	1583.34
	46	0.46	3.58720E-001	1.22965E-003	0.00000E+000	3.70030E-001	0.00000E+000	10	...........	1583.34
	47	0.47	3.60986E-001	1.22964E-003	0.00000E+000	3.70030E-001	0.00000E+000	10	...........	1583.34
	48	0.48	3.63241E-001	1.22968E-003	0.00000E+000	3.70030E-001	0.00000E+000	10	...........	1583.34
	49	0.49	3.65495E-001	1.22967E-003	0.00000E+000	3.70030E-001	0.00000E+000	10	...........	1583.34
	50	0.5	3.67748E-001	1.22965E-003	0.00000E+000	3.70030E-001	0.00000E+000	10	...........	1583.34
	51	0.51	3.70021E-001	1.22971E-003	0.00000E+000	3.70030E-001	0.00000E+000	10	...........	1583.34
	52	0.52	3.72290E-001	1.22964E-003	0.00000E+000	3.70030E-001	0.00000E+000	10	...........	1583.34
	53	0.53	3.74542E-001	1.22966E-003	0.00000E+000	3.70030E-001	0.00000E+000	10	...........	1583.34
	54	0.54	3.76815E-001	1.22968E-003	0.00000E+000	3.70030E-001	0.00000E+000	10	...........	1583.34
	55	0.55	3.79071E-001	1.22969E-003	0.00000E+000	3.70030E-001	0.00000E+000	10	...........	1583.34
	56	0.56	3.81348E-001	1.22968E-003	0.00000E+000	3.70030E-001	0.00000E+000	10	...........	1583.73
	57	0.57	3.83597E-001	1.22964E-003	0.00000E+000	3.70030E-001	0.00000E+000	10	...........	1583.73
	58	0.58	3.85906E-001	1.22966E-003	0.00000E+000	3.70030E-001	0.00000E+000	10	...........	1583.73
	59	0.59	3.88199E-001	1.22962E-003	0.00000E+000	3.70030E-001	0.00000E+000	10	...........	1583.73
	60	0.6	3.90455E-001	1.22961E-003	0.00000E+000	3.70030E-001	0.00000E+000	10	...........	1583.73
	61	0.61	3.92726E-001	1.22967E-003	0.00000E+000	3.70030E-001	0.00000E+000	10	...........	1583.73
	62	0.62	3.95003E-001	1.22963E-003	0.00000E+000	3.70030E-001	0.00000E+000	10	...........	1583.73
	63	0.63	3.97325E-001	1.22966E-003	0.00000E+000	3.70030E-001	0.00000E+000	10	...........	1583.73
	64	0.64	3.99603E-001	1.22968E-003	0.00000E+000	3.70030E-001	0.00000E+000	10	...........	1583.73
	65	0.65	4.01897E-001	1.22966E-003	0.00000E+000	3.70030E-001	0.00000E+000	10	...........	1583.73
	66	0.66	4.04183E-001	1.22966E-003	0.00000E+000	3.70030E-001	0.00000E+000	10	...........	1583.73
	67	0.67	4.06472E-001	1.22966E-003	0.00000E+000	3.70030E-001	0.00000E+000	10	...........	1583.73
	68	0.68	4.08786E-001	1.22965E-003	0.00000E+000	3.70030E-001	0.00000E+000	10	...........	1583.73
	69	0.69	4.11106E-001	1.22968E-003	0.00000E+000	3.70030E-001	0.00000E+000	10	...........	1583.73
	70	0.7	4.13397E-001	1.22968E-003	0.00000E+000	3.70030E-001	0.00000E+000	10	...........	1583.73
	71	0.71	4.15692E-001	1.22967E-003	0.00000E+000	3.70030E-001	0.00000E+000	10	...........	1583.73
	72	0.72	4.17997E-001	1.22969E-003	0.00000E+000	3.70030E-001	0.00000E+000	10	...........	1583.73
	73	0.73	4.20300E-001	1.22966E-003	0.00000E+000	3.70030E-001	0.00000E+000	10	...........	1583.73
	74	0.74	4.22604E-001	1.22964E-003	0.00000E+000	3.70030E-001	0.00000E+000	10	...........	1583.73
	75	0.75	4.24930E-001	1.22963E-003	0.00000E+000	3.70030E-001	0.00000E+000	10	...........	1583.73
	76	0.76	4.27241E-001	1.22965E-003	0.00000E+000	3.70030E-001	0.00000E+000	10	...........	1583.73
	77	0.77	4.29547E-001	1.22964E-003	0.00000E+000	3.70030E-001	0.00000E+000	10	...........	1583.73
	78	0.78	4.31852E-001	1.22966E-003	0.00000E+000	3.70030E-001	0.00000E+000	10	...........	1583.73
	79	0.79	4.34178E-001	1.22965E-003	0.00000E+000	3.70030E-001	0.00000E+000	10	...........	1583.73
	80	0.8	4.36535E-001	1.22965E-003	0.00000E+000	3.70030E-001	0.00000E+000	10	...........	1583.73
	81	0.81	4.38865E-001	1.22966E-003	0.00000E+000	3.70030E-001	0.00000E+000	10	...........	1583.73
	82	0.82	4.41196E-001	1.22969E-003	0.00000E+000	3.70030E-001	0.00000E+000	10	...........	1583.73
	83	0.83	4.43527E-001	1.22968E-003	0.00000E+000	3.70030E-001	0.00000E+000	10	...........	1583.73
	84	0.84	4.45841E-001	1.22968E-003	0.00000E+000	3.70030E-001	0.00000E+000	10	...........	1583.73
	85	0.85	4.48192E-001	1.22966E-003	0.00000E+000	3.70030E-001	0.00000E+000	10	...........	1583.73
	86	0.86	4.50522E-001	1.22964E-003	0.00000E+000	3.70030E-001	0.00000E+000	10	...........	1583.73
	87	0.87	4.52849E-001	1.22964E-003	0.00000E+000	3.70030E-001	0.00000E+000	10	...........	1583.73
	88	0.88	4.55180E-001	1.22964E-003	0.00000E+000	3.70030E-001	0.00000E+000	10	...........	1583.73
	89	0.89	4.57513E-001	1.22964E-003	0.00000E+000	3.70030E-001	0.00000E+000	10	...........	1583.73
	90	0.9	4.59864E-001	1.22960E-003	0.00000E+000	3.70030E-001	0.00000E+000	10	...........	1583.73
	91	0.91	4.62240E-001	1.22961E-003	0.00000E+000	3.70030E-001	0.00000E+000	10	...........	1583.73
	92	0.92	4.64572E-001	1.22963E-003	0.00000E+000	3.70030E-001	0.00000E+000	10	...........	1583.73
	93	0.93	4.66914E-001	1.22963E-003	0.00000E+000	3.70030E-001	0.00000E+000	10	...........	1583.73
	94	0.94	4.69266E-001	1.22964E-003	0.00000E+000	3.70030E-001	0.00000E+000	10	...........	1583.73
	95	0.95	4.71604E-001	1.22961E-003	0.00000E+000	3.70030E-001	0.00000E+000	10	...........	1583.73
	96	0.96	4.73981E-001	1.22965E-003	0.00000E+000	3.70030E-001	0.00000E+000	10	...........	1583.73
	97	0.97	4.76328E-001	1.22966E-003	0.00000E+000	3.70030E-001	0.00000E+000	10	...........	1583.73
	98	0.98	4.78674E-001	1.22963E-003	0.00000E+000	3.70030E-001	0.00000E+000	10	...........	1583.73
	99	0.99	4.81048E-001	1.22959E-003	0.00000E+000	3.70030E-001	0.00000E+000	10	...........	1583.73
	100	1	4.83421E-001	1.22962E-003	0.00000E+000	3.70030E-001	0.00000E+000	10	...........	1583.73
	101	1.01	4.85761E-001	1.22960E-003	0.00000E+000	3.70030E-001	0.00000E+000	10	...........	1583.73
	102	1.02	4.88142E-001	1.22962E-003	0.00000E+000	3.70030E-001	0.00000E+000	10	...........	1583.73
	103	1.03	4.90503E-001	1.22963E-003	0.00000E+000	3.70030E-001	0.00000E+000	10	...........	1583.73
	104	1.04	4.92881E-001	1.22959E-003	0.00000E+000	3.70030E-001	0.00000E+000	10	...........	1583.73
	105	1.05	4.95239E-001	1.22964E-003	0.00000E+000	3.70030E-001	0.00000E+000	10	...........	1583.73
	106	1.06	4.97615E-001	1.22963E-003	0.00000E+000	3.70030E-001	0.00000E+000	10	...........	1583.73
	107	1.07	5.00016E-001	1.22961E-003	0.00000E+000	3.70030E-001	0.00000E+000	10	...........	1583.73
	108	1.08	5.02358E-001	1.22962E-003	0.00000E+000	3.70030E-001	0.00000E+000	10	...........	1583.73
	109	1.09	5.04741E-001	1.22966E-003	0.00000E+000	3.70030E-001	0.00000E+000	10	...........	1583.73
	110	1.1	5.07107E-001	1.22958E-003	0.00000E+000	3.70030E-001	0.00000E+000	10	...........	1583.73
	111	1.11	5.09485E-001	1.22958E-003	0.00000E+000	3.70030E-001	0.00000E+000	10	...........	1583.73
	112	1.12	5.11874E-001	1.22962E-003	0.00000E+000	3.70030E-001	0.00000E+000	10	...........	1583.73
	113	1.13	5.14272E-001	1.22961E-003	0.00000E+000	3.70030E-001	0.00000E+000	10	...........	1583.73
	114	1.14	5.16643E-001	1.22964E-003	0.00000E+000	3.70030E-001	0.00000E+000	10	...........	1583.73
	115	1.15	5.19029E-001	1.22958E-003	0.00000E+000	3.70030E-001	0.00000E+000	10	...........	1583.73
	116	1.16	5.21400E-001	1.22956E-003	0.00000E+000	3.70030E-001	0.00000E+000	10	...........	1583.73
	117	1.17	5.23797E-001	1.22960E-003	0.00000E+000	3.70030E-001	0.00000E+000	10	...........	1583.73
	118	1.18	5.26218E-001	1.22965E-003	0.00000E+000	3.70030E-001	0.00000E+000	10	...........	1583.73
	119	1.19	5.28618E-001	1.22967E-003	0.00000E+000	3.70030E-001	0.00000E+000	10	...........	1583.73
	120	1.2	5.30987E-001	1.22966E-003	0.00000E+000	3.70030E-001	0.00000E+000	10	...........	1583.73
	121	1.21	5.33352E-001	1.22956E-003	0.00000E+000	3.70030E-001	0.00000E+000	10	...........	1583.73
	122	1.22	5.35726E-001	1.22958E-003	0.00000E+000	3.70030E-001	0.00000E+000	10	...........	1583.73
	123	1.23	5.38134E-001	1.22954E-003	0.00000E+000	3.70030E-001	0.00000E+000	10	...........	1583.73
	124	1.24	5.40525E-001	1.22955E-003	0.00000E+000	3.70030E-001	0.00000E+000	10	...........	1583.73
	125	1.25	5.42904E-001	1.22954E-003	0.00000E+000	3.70030E-001	0.00000E+000	10	...........	1583.73
	126	1.26	5.45294E-001	1.22961E-003	0.00000E+000	3.70030E-001	0.00000E+000	10	...........	1583.73
	127	1.27	5.47665E-001	1.22960E-003	0.00000E+000	3.70030E-001	0.00000E+000	10	...........	1583.73
	128	1.28	5.50062E-001	1.22962E-003	0.00000E+000	3.70030E-001	0.00000E+000	10	...........	1583.73
	129	1.29	5.52472E-001	1.22964E-003	0.00000E+000	3.70030E-001	0.00000E+000	10	...........	1583.73
	130	1.3	5.54866E-001	1.22963E-003	0.00000E+000	3.70030E-001	0.00000E+000	10	...........	1583.73
	131	1.31	5.57262E-001	1.22969E-003	0.00000E+000	3.70030E-001	0.00000E+000	10	...........	1583.73
	132	1.32	5.59653E-001	1.22967E-003	0.00000E+000	3.70030E-001	0.00000E+000	10	...........	1583.73
	133	1.33	5.62044E-001	1.22969E-003	0.00000E+000	3.70030E-001	0.00000E+000	10	...........	1583.73
	134	1.34	5.64457E-001	1.22972E-003	0.00000E+000	3.70030E-001	0.00000E+000	10	...........	1583.73
	135	1.35	5.66848E-001	1.22962E-003	0.00000E+000	3.70030E-001	0.00000E+000	10	...........	1583.73
	136	1.36	5.69251E-001	1.22971E-003	0.00000E+000	3.70030E-001	0.00000E+000	10	...........	1583.73
	137	1.37	5.71653E-001	1.22968E-003	0.00000E+000	3.70030E-001	0.00000E+000	10	...........	1583.73
	138	1.38	5.74017E-001	1.22963E-003	0.00000E+000	3.70030E-001	0.00000E+000	10	...........	1583.73
	139	1.39	5.76451E-001	1.22969E-003	0.00000E+000	3.70030E-001	0.00000E+000	10	...........	1583.73
	140	1.4	5.78828E-001	1.22965E-003	0.00000E+000	3.70030E-001	0.00000E+000	10	...........	1583.73
	141	1.41	5.81227E-001	1.22971E-003	0.00000E+000	3.70030E-001	0.00000E+000	10	...........	1583.73
	142	1.42	5.83616E-001	1.22966E-003	0.00000E+000	3.70030E-001	0.00000E+000	10	...........	1583.73
	143	1.43	5.85982E-001	1.22966E-003	0.00000E+000	3.70030E-001	0.00000E+000	10	...........	1583.73
	144	1.44	5.88370E-001	1.22961E-003	0.00000E+000	3.70030E-001	0.00000E+000	10	...........	1583.73
	145	1.45	5.90791E-001	1.22969E-003	0.00000E+000	3.70030E-001	0.00000E+000	10	...........	1583.73
	146	1.46	5.93169E-001	1.22965E-003	0.00000E+000	3.70030E-001	0.00000E+000	10	...........	1583.73
	147	1.47	5.95559E-001	1.22964E-003	0.00000E+000	3.70030E-001	0.00000E+000	10	...........	1583.73
	148	1.48	5.97932E-001	1.22965E-003	0.00000E+000	3.70030E-001	0.00000E+000	10	...........	1583.73
	149	1.49	6.00299E-001	1.22959E-003	0.00000E+000	3.70030E-001	0.00000E+000	10	...........	1583.73
	150	1.5	6.02723E-001	1.22967E-003	0.00000E+000	3.70030E-001	0.00000E+000	10	...........	1583.73
	151	1.51	6.05069E-001	1.22964E-003	0.00000E+000	3.70030E-001	0.00000E+000	10	...........	1583.73
	152	1.52	6.07452E-001	1.22961E-003	0.00000E+000	3.70030E-001	0.00000E+000	10	...........	1583.73
	153	1.53	6.09829E-001	1.22963E-003	0.00000E+000	3.70030E-001	0.00000E+000	10	...........	1583.73
	154	1.54	6.12190E-001	1.22961E-003	0.00000E+000	3.70030E-001	0.00000E+000	10	...........	1583.73
	155	1.55	6.14569E-001	1.22960E-003	0.00000E+000	3.70030E-001	0.00000E+000	10	...........	1583.73
	156	1.56	6.16970E-001	1.22962E-003	0.00000E+000	3.70030E-001	0.00000E+000	10	...........	1583.34
	157	1.57	6.19354E-001	1.22965E-003	0.00000E+000	3.70030E-001	0.00000E+000	10	...........	1583.34
	158	1.58	6.21723E-001	1.22967E-003	0.00000E+000	3.70030E-001	0.00000E+000	10	...........	1583.34
	159	1.59	6.24082E-001	1.22963E-003	0.00000E+000	3.70030E-001	0.00000E+000	10	...........	1583.34
	160	1.6	6.26447E-001	1.22966E-003	0.00000E+000	3.70030E-001	0.00000E+000	10	...........	1583.34
	161	1.61	6.28819E-001	1.22966E-003	0.00000E+000	3.70030E-001	0.00000E+000	10	...........	1583.34
	162	1.62	6.31163E-001	1.22969E-003	0.00000E+000	3.70030E-001	0.00000E+000	10	...........	1583.34
	163	1.63	6.33527E-001	1.22970E-003	0.00000E+000	3.70030E-001	0.00000E+000	10	...........	1583.34
	164	1.64	6.35883E-001	1.22967E-003	0.00000E+000	3.70030E-001	0.00000E+000	10	...........	1583.34
	165	1.65	6.38231E-001	1.22967E-003	0.00000E+000	3.70030E-001	0.00000E+000	10	...........	1583.34
	166	1.66	6.40613E-001	1.22963E-003	0.00000E+000	3.70030E-001	0.00000E+000	10	...........	1583.34
	167	1.67	6.42941E-001	1.22962E-003	0.00000E+000	3.70030E-001	0.00000E+000	10	...........	1583.34
	168	1.68	6.45276E-001	1.22967E-003	0.00000E+000	3.70030E-001	0.00000E+000	10	...........	1583.34
	169	1.69	6.47611E-001	1.22960E-003	0.00000E+000	3.70030E-001	0.00000E+000	10	...........	1583.34
	170	1.7	6.49955E-001	1.22966E-003	0.00000E+000	3.70030E-001	0.00000E+000	10	...........	1583.34
	171	1.71	6.52278E-001	1.22964E-003	0.00000E+000	3.70030E-001	0.00000E+000	10	...........	1583.34
	172	1.72	6.54626E-001	1.22965E-003	0.00000E+000	3.70030E-001	0.00000E+000	10	...........	1583.34
	173	1.73	6.56942E-001	1.22965E-003	0.00000E+000	3.70030E-001	0.00000E+000	10	...........	1583.34
	174	1.74	6.59253E-001	1.22971E-003	0.00000E+000	3.70030E-001	0.00000E+000	10	...........	1583.34
	175	1.75	6.61573E-001	1.22965E-003	0.00000E+000	3.70030E-001	0.00000E+000	10	...........	1583.34
	176	1.76	6.63894E-001	1.22969E-003	0.00000E+000	3.70030E-001	0.00000E+000	10	...........	1583.34
	177	1.77	6.66217E-001	1.22969E-003	0.00000E+000	3.70030E-001	0.00000E+000	10	...........	1583.34
	178	1.78	6.68521E-001	1.22964E-003	0.00000E+000	3.70030E-001	0.00000E+000	10	...........	1583.34
	179	1.79	6.70813E-001	1.22959E-003	0.00000E+000	3.70030E-001	0.00000E+000	10	...........	1583.34
	180	1.8	6.73100E-001	1.22961E-003	0.00000E+000	3.70030E-001	0.00000E+000	10	...........	1583.34
	181	1.81	6.75378E-001	1.22962E-003	0.00000E+000	3.70030E-001	0.00000E+000	10	...........	1583.34
	182	1.82	6.77680E-001	1.22961E-003	0.00000E+000	3.70030E-001	0.00000E+000	10	...........	1583.34
	183	1.83	6.79959E-001	1.22966E-003	0.00000E+000	3.70030E-001	0.00000E+000	10	...........	1583.34
	184	1.84	6.82246E-001	1.22970E-003	0.00000E+000	3.70030E-001	0.00000E+000	10	...........	1583.34
	185	1.85	6.84517E-001	1.22970E-003	0.00000E+000	3.70030E-001	0.00000E+000	10	...........	1583.34
	186	1.86	6.86772E-001	1.22965E-003	0.00000E+000	3.70030E-001	0.00000E+000	10	...........	1583.34
	187	1.87	6.89011E-001	1.22964E-003	0.00000E+000	3.70030E-001	0.00000E+000	10	...........	1583.34
	188	1.88	6.91249E-001	1.22964E-003	0.00000E+000	3.70030E-001	0.00000E+000	10	...........	1583.34
	189	1.89	6.93545E-001	1.22968E-003	0.00000E+000	3.70030E-001	0.00000E+000	10	...........	1583.34
	190	1.9	6.95762E-001	1.22967E-003	0.00000E+000	3.70030E-001	0.00000E+000	10	...........	1583.34
	191	1.91	6.98000E-001	1.22968E-003	0.00000E+000	3.70030E-001	0.00000E+000	10	...........	1583.34
	192	1.92	7.00231E-001	1.22967E-003	0.00000E+000	3.70030E-001	0.00000E+000	10	...........	1583.34
	193	1.93	7.02434E-001	1.22967E-003	0.00000E+000	3.70030E-001	0.00000E+000	10	...........	1583.34
	194	1.94	7.04665E-001	1.22966E-003	0.00000E+000	3.70030E-001	0.00000E+000	10	...........	1583.34
	195	1.95	7.06856E-001	1.22958E-003	0.00000E+000	3.70030E-001	0.00000E+000	10	...........	1583.34
	196	1.96	7.09050E-001	1.22960E-003	0.00000E+000	3.70030E-001	0.00000E+000	10	...........	1583.34
	197	1.97	7.11255E-001	1.22957E-003	0.00000E+000	3.70030E-001	0.00000E+000	10	...........	1583.34
	198	1.98	7.13458E-001	1.22966E-003	0.00000E+000	3.70030E-001	0.00000E+000	10	...........	1583.34
	199	1.99	7.15639E-001	1.22969E-003	0.00000E+000	3.70030E-001	0.00000E+000	10	...........	1583.34
	200	2	7.17791E-001	1.22957E-003	0.00000E+000	3.70030E-001	0.00000E+000	10	...........	1583.34
	201	2.01	7.19959E-001	1.22961E-003	0.00000E+000	3.70030E-001	0.00000E+000	10	...........	1583.34
	202	2.02	7.22122E-001	1.22956E-003	0.00000E+000	3.70030E-001	0.00000E+000	10	...........	1583.34
	203	2.03	7.24277E-001	1.22960E-003	0.00000E+000	3.70030E-001	0.00000E+000	10	...........	1583.34
	204	2.04	7.26400E-001	1.22964E-003	0.00000E+000	3.70030E-001	0.00000E+000	10	...........	1583.34
	205	2.05	7.28526E-001	1.22964E-003	0.00000E+000	3.70030E-001	0.00000E+000	10	...........	1583.34
	206	2.06	7.30675E-001	1.22962E-003	0.00000E+000	3.70030E-001	0.00000E+000	10	...........	1583.34
	207	2.07	7.32773E-001	1.22963E-003	0.00000E+000	3.70030E-001	0.00000E+000	10	...........	1583.34
	208	2.08	7.34889E-001	1.22963E-003	0.00000E+000	3.70030E-001	0.00000E+000	10	...........	1583.34
	209	2.09	7.36985E-001	1.22965E-003	0.00000E+000	3.70030E-001	0.00000E+000	10	...........	1583.34
	210	2.1	7.39066E-001	1.22961E-003	0.00000E+000	3.70030E-001	0.00000E+000	10	...........	1583.34
	211	2.11	7.41166E-001	1.22964E-003	0.00000E+000	3.70030E-001	0.00000E+000	10	...........	1583.34
	212	2.12	7.43265E-001	1.22971E-003	0.00000E+000	3.70030E-001	0.00000E+000	10	...........	1583.34
	213	2.13	7.45328E-001	1.22969E-003	0.00000E+000	3.70030E-001	0.00000E+000	10	...........	1583.34
	214	2.14	7.47399E-001	1.22969E-003	0.00000E+000	3.70030E-001	0.00000E+000	10	...........	1583.34
	215	2.15	7.49436E-001	1.22968E-003	0.00000E+000	3.70030E-001	0.00000E+000	10	...........	1583.34
	216	2.16	7.51457E-001	1.22964E-003	0.00000E+000	3.70030E-001	0.00000E+000	10	...........	1583.34
	217	2.17	7.53481E-001	1.22960E-003	0.00000E+000	3.70030E-001	0.00000E+000	10	...........	1583.34
	218	2.18	7.55509E-001	1.22965E-003	0.00000E+000	3.70030E-001	0.00000E+000	10	...........	1583.34
	219	2.19	7.57515E-001	1.22965E-003	0.00000E+000	3.70030E-001	0.00000E+000	10	...........	1583.34
	220	2.2	7.59504E-001	1.22960E-003	0.00000E+000	3.70030E-001	0.00000E+000	10	...........	1583.34
	221	2.21	7.61493E-001	1.22962E-003	0.00000E+000	3.70030E-001	0.00000E+000	10	...........	1583.34
	222	2.22	7.63497E-001	1.22961E-003	0.00000E+000	3.70030E-001	0.00000E+000	10	...........	1583.34
	223	2.23	7.65474E-001	1.22967E-003	0.00000E+000	3.70030E-001	0.00000E+000	10	...........	1583.34
	224	2.24	7.67417E-001	1.22959E-003	0.00000E+000	3.70030E-001	0.00000E+000	10	...........	1583.34
	225	2.25	7.69378E-001	1.22961E-003	0.00000E+000	3.70030E-001	0.00000E+000	10	...........	1583.34
	226	2.26	7.71342E-001	1.22956E-003	0.00000E+000	3.70030E-001	0.00000E+000	10	...........	1583.34
	227	2.27	7.73276E-001	1.22963E-003	0.00000E+000	3.70030E-001	0.00000E+000	10	...........	1583.34
	228	2.28	7.75205E-001	1.22956E-003	0.00000E+000	3.70030E-001	0.00000E+000	10	...........	1583.34
	229	2.29	7.77112E-001	1.22961E-003	0.00000E+000	3.70030E-001	0.00000E+000	10	...........	1583.34
	230	2.3	7.79016E-001	1.22960E-003	0.00000E+000	3.70030E-001	0.00000E+000	10	...........	1583.34
	231	2.31	7.80895E-001	1.22967E-003	0.00000E+000	3.70030E-001	0.00000E+000	10	...........	1583.34
	232	2.32	7.82805E-001	1.22964E-003	0.00000E+000	3.70030E-001	0.00000E+000	10	...........	1583.34
	233	2.33	7.84665E-001	1.22960E-003	0.00000E+000	3.70030E-001	0.00000E+000	10	...........	1583.34
	234	2.34	7.86515E-001	1.22961E-003	0.00000E+000	3.70030E-001	0.00000E+000	10	...........	1583.34
	235	2.35	7.88374E-001	1.22963E-003	0.00000E+000	3.70030E-001	0.00000E+000	10	...........	1583.34
	236	2.36	7.90200E-001	1.22967E-003	0.00000E+000	3.70030E-001	0.00000E+000	10	...........	1583.34
	237	2.37	7.92055E-001	1.22969E-003	0.00000E+000	3.70030E-001	0.00000E+000	10	...........	1583.34
	238	2.38	7.93876E-001	1.22965E-003	0.00000E+000	3.70030E-001	0.00000E+000	10	...........	1583.34
	239	2.39	7.95692E-001	1.22964E-003	0.00000E+000	3.70030E-001	0.00000E+000	10	...........	1583.34
	240	2.4	7.97484E-001	1.22964E-003	0.00000E+000	3.70030E-001	0.00000E+000	10	...........	1583.34
	241	2.41	7.99267E-001	1.22964E-003	0.00000E+000	3.70030E-001	0.00000E+000	10	...........	1583.34
	242	2.42	8.01046E-001	1.22965E-003	0.00000E+000	3.70030E-001	0.00000E+000	10	...........	1583.34
	243	2.43	8.02824E-001	1.22967E-003	0.00000E+000	3.70030E-001	0.00000E+000	10	...........	1583.34
	244	2.44	8.04577E-001	1.22963E-003	0.00000E+000	3.70030E-001	0.00000E+000	10	...........	1583.34
	245	2.45	7.73233E-001	-1.22975E-003	0.00000E+000	-3.70030E-001	0.00000E+000	10	...........	1583.34
	246	2.46	7.67493E-001	-1.22991E-003	0.00000E+000	-3.70030E-001	0.00000E+000	10	...........	1583.34
	247	2.47	7.62740E-001	-1.22995E-003	0.00000E+000	-3.70030E-001	0.00000E+000	10	...........	1583.34
	248	2.48	7.58430E-001	-1.22996E-003	0.00000E+000	-3.70030E-001	0.00000E+000	10	...........	1583.34
	249	2.49	7.54388E-001	-1.22997E-003	0.00000E+000	-3.70030E-001	0.00000E+000	10	...........	1583.34
	250	2.5	7.50538E-001	-1.22994E-003	0.00000E+000	-3.70030E-001	0.00000E+000	10	...........	1583.34
	251	2.51	7.46841E-001	-1.22999E-003	0.00000E+000	-3.70030E-001	0.00000E+000	10	...........	1583.34
	252	2.52	7.43210E-001	-1.23001E-003	0.00000E+000	-3.70030E-001	0.00000E+000	10	...........	1583.34
	253	2.53	7.39659E-001	-1.23000E-003	0.00000E+000	-3.70030E-001	0.00000E+000	10	...........	1583.34
	254	2.54	7.36225E-001	-1.22994E-003	0.00000E+000	-3.70030E-001	0.00000E+000	10	...........	1583.34
	255	2.55	7.32805E-001	-1.23001E-003	0.00000E+000	-3.70030E-001	0.00000E+000	10	...........	1583.34
	256	2.56	7.29396E-001	-1.23001E-003	0.00000E+000	-3.70030E-001	0.00000E+000	10	...........	1583.25
	257	2.57	7.26059E-001	-1.23006E-003	0.00000E+000	-3.70030E-001	0.00000E+000	10	...........	1583.25
	258	2.58	7.22766E-001	-1.23006E-003	0.00000E+000	-3.70030E-001	0.00000E+000	10	...........	1583.25
	259	2.59	7.19493E-001	-1.23006E-003	0.00000E+000	-3.70030E-001	0.00000E+000	10	...........	1583.25
	260	2.6	7.16193E-001	-1.23006E-003	0.00000E+000	-3.70030E-001	0.00000E+000	10	...........	1583.25
	261	2.61	7.12980E-001	-1.23004E-003	0.00000E+000	-3.70030E-001	0.00000E+000	10	...........	1583.25
	262	2.62	7.09768E-001	-1.23007E-003	0.00000E+000	-3.70030E-001	0.00000E+000	10	...........	1583.25
	263	2.63	7.06611E-001	-1.23005E-003	0.00000E+000	-3.70030E-001	0.00000E+000	10	...........	1583.25
	264	2.64	7.03405E-001	-1.23004E-003	0.00000E+000	-3.70030E-001	0.00000E+000	10	...........	1583.25
	265	2.65	7.00270E-001	-1.23003E-003	0.00000E+000	-3.70030E-001	0.00000E+000	10	...........	1583.25
	266	2.66	6.97135E-001	-1.22997E-003	0.00000E+000	-3.70030E-001	0.00000E+000	10	...........	1583.25
	267	2.67	6.94004E-001	-1.23001E-003	0.00000E+000	-3.70030E-001	0.00000E+000	10	...........	1583.25
	268	2.68	6.90851E-001	-1.23007E-003	0.00000E+000	-3.70030E-001	0.00000E+000	10	...........	1583.25
	269	2.69	6.87737E-001	-1.23006E-003	0.00000E+000	-3.70030E-001	0.00000E+000	10	...........	1583.25
	270	2.7	6.84630E-001	-1.23008E-003	0.00000E+000	-3.70030E-001	0.00000E+000	10	...........	1583.25
	271	2.71	6.81515E-001	-1.23011E-003	0.00000E+000	-3.70030E-001	0.00000E+000	10	...........	1583.25
	272	2.72	6.78405E-001	-1.23012E-003	0.00000E+000	-3.70030E-001	0.00000E+000	10	...........	1583.25
	273	2.73	6.75347E-001	-1.23010E-003	0.00000E+000	-3.70030E-001	0.00000E+000	10	...........	1583.25
	274	2.74	6.72285E-001	-1.23014E-003	0.00000E+000	-3.70030E-001	0.00000E+000	10	...........	1583.25
	275	2.75	6.69236E-001	-1.23011E-003	0.00000E+000	-3.70030E-001	0.00000E+000	10	...........	1583.25
	276	2.76	6.66180E-001	-1.23009E-003	0.00000E+000	-3.70030E-001	0.00000E+000	10	...........	1583.25
	277	2.77	6.63105E-001	-1.23008E-003	0.00000E+000	-3.70030E-001	0.00000E+000	10	...........	1583.25
	278	2.78	6.60063E-001	-1.23007E-003	0.00000E+000	-3.70030E-001	0.00000E+000	10	...........	1583.25
	279	2.79	6.57032E-001	-1.23011E-003	0.00000E+000	-3.70030E-001	0.00000E+000	10	...........	1583.25
	280	2.8	6.54017E-001	-1.23012E-003	0.00000E+000	-3.70030E-001	0.00000E+000	10	...........	1583.25
	281	2.81	6.50978E-001	-1.23009E-003	0.00000E+000	-3.70030E-001	0.00000E+000	10	...........	1583.25
	282	2.82	6.47962E-001	-1.23010E-003	0.00000E+000	-3.70030E-001	0.00000E+000	10	...........	1583.25
	283	2.83	6.44965E-001	-1.23013E-003	0.00000E+000	-3.70030E-001	0.00000E+000	10	...........	1583.25
	284	2.84	6.41974E-001	-1.23010E-003	0.00000E+000	-3.70030E-001	0.00000E+000	10	...........	1583.25
	285	2.85	6.38949E-001	-1.23009E-003	0.00000E+000	-3.70030E-001	0.00000E+000	10	...........	1583.25
	286	2.86	6.35956E-001	-1.23011E-003	0.00000E+000	-3.70030E-001	0.00000E+000	10	...........	1583.25
	287	2.87	6.32993E-001	-1.23008E-003	0.00000E+000	-3.70030E-001	0.00000E+000	10	...........	1583.25
	288	2.88	6.30012E-001	-1.23014E-003	0.00000E+000	-3.70030E-001	0.00000E+000	10	...........	1583.25
	289	2.89	6.27019E-001	-1.23014E-003	0.00000E+000	-3.70030E-001	0.00000E+000	10	...........	1583.25
	290	2.9	6.24062E-001	-1.23015E-003	0.00000E+000	-3.70030E-001	0.00000E+000	10	...........	1583.25
	291	2.91	6.21128E-001	-1.23002E-003	0.00000E+000	-3.70030E-001	0.00000E+000	10	...........	1583.25
	292	2.92	6.18194E-001	-1.23009E-003	0.00000E+000	-3.70030E-001	0.00000E+000	10	...........	1583.25
	293	2.93	6.15240E-001	-1.23009E-003	0.00000E+000	-3.70030E-001	0.00000E+000	10	...........	1583.25
	294	2.94	6.12299E-001	-1.23008E-003	0.00000E+000	-3.70030E-001	0.00000E+000	10	...........	1583.25
	295	2.95	6.09369E-001	-1.23009E-003	0.00000E+000	-3.70030E-001	0.00000E+000	10	...........	1583.25
	296	2.96	6.06454E-001	-1.23014E-003	0.00000E+000	-3.70030E-001	0.00000E+000	10	...........	1583.25
	297	2.97	6.03548E-001	-1.23011E-003	0.00000E+000	-3.70030E-001	0.00000E+000	10	...........	1583.25
	298	2.98	6.00619E-001	-1.23013E-003	0.00000E+000	-3.70030E-001	0.00000E+000	10	...........	1583.25
	299	2.99	5.97718E-001	-1.23017E-003	0.00000E+000	-3.70030E-001	0.00000E+000	10	...........	1583.25
	300	3	5.94822E-001	-1.23013E-003	0.00000E+000	-3.70030E-001	0.00000E+000	10	...........	1583.25
	301	3.01	5.91945E-001	-1.23014E-003	0.00000E+000	-3.70030E-001	0.00000E+000	10	...........	1583.25
	302	3.02	5.89050E-001	-1.23012E-003	0.00000E+000	-3.70030E-001	0.00000E+000	10	...........	1583.25
	303	3.03	5.86181E-001	-1.23014E-003	0.00000E+000	-3.70030E-001	0.00000E+000	10	...........	1583.25
	304	3.04	5.83314E-001	-1.23016E-003	0.00000E+000	-3.70030E-001	0.00000E+000	10	...........	1583.25
	305	3.05	5.80467E-001	-1.23015E-003	0.00000E+000	-3.70030E-001	0.00000E+000	10	...........	1583.25
	306	3.06	5.77615E-001	-1.23009E-003	0.00000E+000	-3.70030E-001	0.00000E+000	10	...........	1583.25
	307	3.07	5.74757E-001	-1.23017E-003	0.00000E+000	-3.70030E-001	0.00000E+000	10	...........	1583.25
	308	3.08	5.71927E-001	-1.23011E-003	0.00000E+000	-3.70030E-001	0.00000E+000	10	...........	1583.25
	309	3.09	5.69092E-001	-1.23011E-003	0.00000E+000	-3.70030E-001	0.00000E+000	10	...........	1583.25
	310	3.1	5.66276E-001	-1.23010E-003	0.00000E+000	-3.70030E-001	0.00000E+000	10	...........	1583.25
	311	3.11	5.63446E-001	-1.23013E-003	0.00000E+000	-3.70030E-001	0.00000E+000	10	...........	1583.25
	312	3.12	5.60644E-001	-1.23012E-003	0.00000E+000	-3.70030E-001	0.00000E+000	10	...........	1583.25
	313	3.13	5.57844E-001	-1.23012E-003	0.00000E+000	-3.70030E-001	0.00000E+000	10	...........	1583.25
	314	3.14	5.55040E-001	-1.23017E-003	0.00000E+000	-3.70030E-001	0.00000E+000	10	...........	1583.25
	315	3.15	5.52267E-001	-1.23012E-003	0.00000E+000	-3.70030E-001	0.00000E+000	10	...........	1583.25
	316	3.16	5.49456E-001	-1.23013E-003	0.00000E+000	-3.70030E-001	0.00000E+000	10	...........	1583.25
	317	3.17	5.46714E-001	-1.23012E-003	0.00000E+000	-3.70030E-001	0.00000E+000	10	...........	1583.25
	318	3.18	5.43952E-001	-1.23011E-003	0.00000E+000	-3.70030E-001	0.00000E+000	10	...........	1583.25
	319	3.19	5.41199E-001	-1.23008E-003	0.00000E+000	-3.70030E-001	0.00000E+000	10	...........	1583.25
	320	3.2	5.38460E-001	-1.23009E-003	0.00000E+000	-3.70030E-001	0.00000E+000	10	...........	1583.25
	321	3.21	5.35690E-001	-1.23011E-003	0.00000E+000	-3.70030E-001	0.00000E+000	10	...........	1583.25
	322	3.22	5.32956E-001	-1.23009E-003	0.00000E+000	-3.70030E-001	0.00000E+000	10	...........	1583.25
	323	3.23	5.30244E-001	-1.23006E-003	0.00000E+000	-3.70030E-001	0.00000E+000	10	...........	1583.25
	324	3.24	5.27521E-001	-1.23008E-003	0.00000E+000	-3.70030E-001	0.00000E+000	10	...........	1583.25
	325	3.25	5.24808E-001	-1.23009E-003	0.00000E+000	-3.70030E-001	0.00000E+000	10	...........	1583.25
	326	3.26	5.22117E-001	-1.23006E-003	0.00000E+000	-3.70030E-001	0.00000E+000	10	...........	1583.25
	327	3.27	5.19416E-001	-1.23011E-003	0.00000E+000	-3.70030E-001	0.00000E+000	10	...........	1583.25
	328	3.28	5.16730E-001	-1.23010E-003	0.00000E+000	-3.70030E-001	0.00000E+000	10	...........	1583.25
	329	3.29	5.14046E-001	-1.23011E-003	0.00000E+000	-3.70030E-001	0.00000E+000	10	...........	1583.25
	330	3.3	5.11355E-001	-1.23014E-003	0.00000E+000	-3.70030E-001	0.00000E+000	10	...........	1583.25
	331	3.31	5.08690E-001	-1.23009E-003	0.00000E+000	-3.70030E-001	0.00000E+000	10	...........	1583.25
	332	3.32	5.06042E-001	-1.23011E-003	0.00000E+000	-3.70030E-001	0.00000E+000	10	...........	1583.25
	333	3.33	5.03373E-001	-1.23007E-003	0.00000E+000	-3.70030E-001	0.00000E+000	10	...........	1583.25
	334	3.34	5.00738E-001	-1.23017E-003	0.00000E+000	-3.70030E-001	0.00000E+000	10	...........	1583.25
	335	3.35	4.98094E-001	-1.23011E-003	0.00000E+000	-3.70030E-001	0.00000E+000	10	...........	1583.25
	336	3.36	4.95475E-001	-1.23006E-003	0.00000E+000	-3.70030E-001	0.00000E+000	10	...........	1583.25
	337	3.37	4.92855E-001	-1.23011E-003	0.00000E+000	-3.70030E-001	0.00000E+000	10	...........	1583.25
	338	3.38	4.90243E-001	-1.23012E-003	0.00000E+000	-3.70030E-001	0.00000E+000	10	...........	1583.25
	339	3.39	4.87621E-001	-1.23009E-003	0.00000E+000	-3.70030E-001	0.00000E+000	10	...........	1583.25
	340	3.4	4.84988E-001	-1.23014E-003	0.00000E+000	-3.70030E-001	0.00000E+000	10	...........	1583.25
	341	3.41	4.82410E-001	-1.23008E-003	0.00000E+000	-3.70030E-001	0.00000E+000	10	...........	1583.25
	342	3.42	4.79832E-001	-1.23004E-003	0.00000E+000	-3.70030E-001	0.00000E+000	10	...........	1583.25
	343	3.43	4.77265E-001	-1.23008E-003	0.00000E+000	-3.70030E-001	0.00000E+000	10	...........	1583.25
	344	3.44	4.74704E-001	-1.23005E-003	0.00000E+000	-3.70030E-001	0.00000E+000	10	...........	1583.25
	345	3.45	4.72107E-001	-1.23011E-003	0.00000E+000	-3.70030E-001	0.00000E+000	10	...........	1583.25
	346	3.46	4.69559E-001	-1.23014E-003	0.00000E+000	-3.70030E-001	0.00000E+000	10	...........	1583.25
	347	3.47	4.66986E-001	-1.23011E-003	0.00000E+000	-3.70030E-001	0.00000E+000	10	...........	1583.25
	348	3.48	4.64450E-001	-1.23011E-003	0.00000E+000	-3.70030E-001	0.00000E+000	10	...........	1583.25
	349	3.49	4.61922E-001	-1.23007E-003	0.00000E+000	-3.70030E-001	0.00000E+000	10	...........	1583.25
	350	3.5	4.59371E-001	-1.23010E-003	0.00000E+000	-3.70030E-001	0.00000E+000	10	...........	1583.25
	351	3.51	4.56841E-001	-1.23009E-003	0.00000E+000	-3.70030E-001	0.00000E+000	10	...........	1583.25
	352	3.52	4.54321E-001	-1.23011E-003	0.00000E+000	-3.70030E-001	0.00000E+000	10	...........	1583.25
	353	3.53	4.51813E-001	-1.23013E-003	0.00000E+000	-3.70030E-001	0.00000E+000	10	...........	1583.25
	354	3.54	4.49316E-001	-1.23012E-003	0.00000E+000	-3.70030E-001	0.00000E+000	10	...........	1583.25
	355	3.55	4.46819E-001	-1.23006E-003	0.00000E+000	-3.70030E-001	0.00000E+000	10	...........	1583.25
	356	3.56	4.44324E-001	-1.23013E-003	0.00000E+000	-3.70030E-001	0.00000E+000	10	...........	1583.25
	357	3.57	4.41857E-001	-1.23011E-003	0.00000E+000	-3.70030E-001	0.00000E+000	10	...........	1583.25
	358	3.58	4.39365E-001	-1.23010E-003	0.00000E+000	-3.70030E-001	0.00000E+000	10	...........	1583.25
	359	3.59	4.36899E-001	-1.23019E-003	0.00000E+000	-3.70030E-001	0.00000E+000	10	...........	1583.25
	360	3.6	4.34399E-001	-1.23014E-003	0.00000E+000	-3.70030E-001	0.00000E+000	10	...........	1583.25
	361	3.61	4.31948E-001	-1.23013E-003	0.00000E+000	-3.70030E-001	0.00000E+000	10	...........	1583.25
	362	3.62	4.29505E-001	-1.23011E-003	0.00000E+000	-3.70030E-001	0.00000E+000	10	...........	1583.25
	363	3.63	4.27061E-001	-1.23013E-003	0.00000E+000	-3.70030E-001	0.00000E+000	10	...........	1583.25
	364	3.64	4.24617E-001	-1.23016E-003	0.00000E+000	-3.70030E-001	0.00000E+000	10	...........	1583.25
	365	3.65	4.22162E-001	-1.23014E-003	0.00000E+000	-3.70030E-001	0.00000E+000	10	...........	1583.25
	366	3.66	4.19758E-001	-1.23010E-003	0.00000E+000	-3.70030E-001	0.00000E+000	10	...........	1583.25
	367	3.67	4.17326E-001	-1.23014E-003	0.00000E+000	-3.70030E-001	0.00000E+000	10	...........	1583.25
	368	3.68	4.14926E-001	-1.23014E-003	0.00000E+000	-3.70030E-001	0.00000E+000	10	...........	1583.25
	369	3.69	4.12525E-001	-1.23008E-003	0.00000E+000	-3.70030E-001	0.00000E+000	10	...........	1583.25
	370	3.7	4.10128E-001	-1.23011E-003	0.00000E+000	-3.70030E-001	0.00000E+000	10	...........	1583.25
	371	3.71	4.07712E-001	-1.23016E-003	0.00000E+000	-3.70030E-001	0.00000E+000	10	...........	1583.25
	372	3.72	4.05294E-001	-1.23017E-003	0.00000E+000	-3.70030E-001	0.00000E+000	10	...........	1583.25
	373	3.73	4.02917E-001	-1.23013E-003	0.00000E+000	-3.70030E-001	0.00000E+000	10	...........	1583.25
	374	3.74	4.00544E-001	-1.23014E-003	0.00000E+000	-3.70030E-001	0.00000E+000	10	...........	1583.25
	375	3.75	3.98174E-001	-1.23015E-003	0.00000E+000	-3.70030E-001	0.00000E+000	10	...........	1583.25
	376	3.76	3.95780E-001	-1.23014E-003	0.00000E+000	-3.70030E-001	0.00000E+000	10	...........	1583.25
	377	3.77	3.93424E-001	-1.23021E-003	0.00000E+000	-3.70030E-001	0.00000E+000	10	...........	1583.25
	378	3.78	3.91094E-001	-1.23009E-003	0.00000E+000	-3.70030E-001	0.00000E+000	10	...........	1583.25
	379	3.79	3.88738E-001	-1.23011E-003	0.00000E+000	-3.70030E-001	0.00000E+000	10	...........	1583.25
	380	3.8	3.86414E-001	-1.23009E-003	0.00000E+000	-3.70030E-001	0.00000E+000	10	...........	1583.25
	381	3.81	3.84037E-001	-1.23007E-003	0.00000E+000	-3.70030E-001	0.00000E+000	10	...........	1583.25
	382	3.82	3.81690E-001	-1.23009E-003	0.00000E+000	-3.70030E-001	0.00000E+000	10	...........	1583.25
	383	3.83	3.79376E-001	-1.23016E-003	0.00000E+000	-3.70030E-001	0.00000E+000	10	...........	1583.25
	384	3.84	3.77047E-001	-1.23017E-003	0.00000E+000	-3.70030E-001	0.00000E+000	10	...........	1583.25
	385	3.85	3.74752E-001	-1.23008E-003	0.00000E+000	-3.70030E-001	0.00000E+000	10	...........	1583.25
	386	3.86	3.72451E-001	-1.23009E-003	0.00000E+000	-3.70030E-001	0.00000E+000	10	...........	1583.25
	387	3.87	3.70119E-001	-1.23009E-003	0.00000E+000	-3.70030E-001	0.00000E+000	10	...........	1583.25
	388	3.88	3.67827E-001	-1.23012E-003	0.00000E+000	-3.70030E-001	0.00000E+000	10	...........	1583.25
	389	3.89	3.65552E-001	-1.23016E-003	0.00000E+000	-3.70030E-001	0.00000E+000	10	...........	1583.25
	390	3.9	3.63247E-001	-1.23006E-003	0.00000E+000	-3.70030E-001	0.00000E+000	10	...........	1583.25
	391	3.91	3.60982E-001	-1.23014E-003	0.00000E+000	-3.70030E-001	0.00000E+000	10	...........	1583.25
	392	3.92	3.58692E-001	-1.23011E-003	0.00000E+000	-3.70030E-001	0.00000E+000	10	...........	1583.25
	393	3.93	3.56380E-001	-1.23015E-003	0.00000E+000	-3.70030E-001	0.00000E+000	10	...........	1583.25
	394	3.94	3.54119E-001	-1.23014E-003	0.00000E+000	-3.70030E-001	0.00000E+000	10	...........	1583.25
	395	3.95	3.51857E-001	-1.23015E-003	0.00000E+000	-3.70030E-001	0.00000E+000	10	...........	1583.25
	396	3.96	3.49618E-001	-1.23012E-003	0.00000E+000	-3.70030E-001	0.00000E+000	10	...........	1583.25
	397	3.97	3.47373E-001	-1.23008E-003	0.00000E+000	-3.70030E-001	0.00000E+000	10	...........	1583.25
	398	3.98	3.45103E-001	-1.23010E-003	0.00000E+000	-3.70030E-001	0.00000E+000	10	...........	1583.25
	399	3.99	3.42874E-001	-1.23009E-003	0.00000E+000	-3.70030E-001	0.00000E+000	10	...........	1583.25
	400	4	3.40641E-001	-1.23005E-003	0.00000E+000	-3.70030E-001	0.00000E+000	10	...........	1583.25
	401	4.01	3.38435E-001	-1.23012E-003	0.00000E+000	-3.70030E-001	0.00000E+000	10	...........	1583.25
	402	4.02	3.36205E-001	-1.23013E-003	0.00000E+000	-3.70030E-001	0.00000E+000	10	...........	1583.25
	403	4.03	3.33979E-001	-1.23018E-003	0.00000E+000	-3.70030E-001	0.00000E+000	10	...........	1583.25
	404	4.04	3.31736E-001	-1.23017E-003	0.00000E+000	-3.70030E-001	0.00000E+000	10	...........	1583.25
	405	4.05	3.29528E-001	-1.23018E-003	0.00000E+000	-3.70030E-001	0.00000E+000	10	...........	1583.25
	406	4.06	3.27337E-001	-1.23014E-003	0.00000E+000	-3.70030E-001	0.00000E+000	10	...........	1583.25
	407	4.07	3.25141E-001	-1.23015E-003	0.00000E+000	-3.70030E-001	0.00000E+000	10	...........	1583.25
	408	4.08	3.22957E-001	-1.23012E-003	0.00000E+000	-3.70030E-001	0.00000E+000	10	...........	1583.25
	409	4.09	3.20776E-001	-1.23014E-003	0.00000E+000	-3.70030E-001	0.00000E+000	10	...........	1583.25
	410	4.1	3.18550E-001	-1.23020E-003	0.00000E+000	-3.70030E-001	0.00000E+000	10	...........	1583.25
	411	4.11	3.16384E-001	-1.23015E-003	0.00000E+000	-3.70030E-001	0.00000E+000	10	...........	1583.25
	412	4.12	3.14217E-001	-1.23015E-003	0.00000E+000	-3.70030E-001	0.00000E+000	10	...........	1583.25
	413	4.13	3.12050E-001	-1.23015E-003	0.00000E+000	-3.70030E-001	0.00000E+000	10	...........	1583.25
	414	4.14	3.09893E-001	-1.23015E-003	0.00000E+000	-3.70030E-001	0.00000E+000	10	...........	1583.25
	415	4.15	3.07727E-001	-1.23016E-003	0.00000E+000	-3.70030E-001	0.00000E+000	10	...........	1583.25
	416	4.16	3.05547E-001	-1.23014E-003	0.00000E+000	-3.70030E-001	0.00000E+000	10	...........	1583.25
	417	4.17	3.03398E-001	-1.23015E-003	0.00000E+000	-3.70030E-001	0.00000E+000	10	...........	1583.25
	418	4.18	3.01257E-001	-1.23011E-003	0.00000E+000	-3.70030E-001	0.00000E+000	10	...........	1583.25
	419	4.19	2.99129E-001	-1.23014E-003	0.00000E+000	-3.70030E-001	0.00000E+000	10	...........	1583.25
	420	4.2	2.96998E-001	-1.23013E-003	0.00000E+000	-3.70030E-001	0.00000E+000	10	...........	1583.25
	421	4.21	2.94875E-001	-1.23012E-003	0.00000E+000	-3.70030E-001	0.00000E+000	10	...........	1583.25
	422	4.22	2.92723E-001	-1.23009E-003	0.00000E+000	-3.70030E-001	0.00000E+000	10	...........	1583.25
	423	4.23	2.90619E-001	-1.23012E-003	0.00000E+000	-3.70030E-001	0.00000E+000	10	...........	1583.25
	424	4.24	2.88493E-001	-1.23013E-003	0.00000E+000	-3.70030E-001	0.00000E+000	10	...........	1583.25
	425	4.25	2.86382E-001	-1.23010E-003	0.00000E+000	-3.70030E-001	0.00000E+000	10	...........	1583.25
	426	4.26	2.84299E-001	-1.23011E-003	0.00000E+000	-3.70030E-001	0.00000E+000	10	...........	1583.25
	427	4.27	2.82195E-001	-1.23015E-003	0.00000E+000	-3.70030E-001	0.00000E+000	10	...........	1583.25
	428	4.28	2.80072E-001	-1.23010E-003	0.00000E+000	-3.70030E-001	0.00000E+000	10	...........	1583.25
	429	4.29	2.77987E-001	-1.23015E-003	0.00000E+000	-3.70030E-001	0.00000E+000	10	...........	1583.25
	430	4.3	2.75920E-001	-1.23010E-003	0.00000E+000	-3.70030E-001	0.00000E+000	10	...........	1583.25
	431	4.31	2.73825E-001	-1.23014E-003	0.00000E+000	-3.70030E-001	0.00000E+000	10	...........	1583.25
	432	4.32	2.71758E-001	-1.23014E-003	0.00000E+000	-3.70030E-001	0.00000E+000	10	...........	1583.25
	433	4.33	2.69678E-001	-1.23016E-003	0.00000E+000	-3.70030E-001	0.00000E+000	10	...........	1583.25
	434	4.34	2.67609E-001	-1.23012E-003	0.00000E+000	-3.70030E-001	0.00000E+000	10	...........	1583.25
	435	4.35	2.65540E-001	-1.23009E-003	0.00000E+000	-3.70030E-001	0.00000E+000	10	...........	1583.25
	436	4.36	2.63491E-001	-1.23016E-003	0.00000E+000	-3.70030E-001	0.00000E+000	10	...........	1583.25
	437	4.37	2.61432E-001	-1.23014E-003	0.00000E+000	-3.70030E-001	0.00000E+000	10	...........	1583.25
	438	4.38	2.59389E-001	-1.23017E-003	0.00000E+000	-3.70030E-001	0.00000E+000	10	...........	1583.25
	439	4.39	2.57360E-001	-1.23011E-003	0.00000E+000	-3.70030E-001	0.00000E+000	10	...........	1583.25
	440	4.4	2.55287E-001	-1.23012E-003	0.00000E+000	-3.70030E-001	0.00000E+000	10	...........	1583.25
	441	4.41	2.53260E-001	-1.23012E-003	0.00000E+000	-3.70030E-001	0.00000E+000	10	...........	1583.25
	442	4.42	2.51233E-001	-1.23015E-003	0.00000E+000	-3.70030E-001	0.00000E+000	10	...........	1583.25
	443	4.43	2.49212E-001	-1.23014E-003	0.00000E+000	-3.70030E-001	0.00000E+000	10	...........	1583.25
	444	4.44	2.47190E-001	-1.23012E-003	0.00000E+000	-3.70030E-001	0.00000E+000	10	...........	1583.25
	445	4.45	2.45190E-001	-1.23007E-003	0.00000E+000	-3.70030E-001	0.00000E+000	10	...........	1583.25
	446	4.46	2.43168E-001	-1.23006E-003	0.00000E+000	-3.70030E-001	0.00000E+000	10	...........	1583.25
	447	4.47	2.41196E-001	-1.23007E-003	0.00000E+000	-3.70030E-001	0.00000E+000	10	...........	1583.25
	448	4.48	2.39193E-001	-1.23010E-003	0.00000E+000	-3.70030E-001	0.00000E+000	10	...........	1583.25
	449	4.49	2.37198E-001	-1.23007E-003	0.00000E+000	-3.70030E-001	0.00000E+000	10	...........	1583.25
	450	4.5	2.35205E-001	-1.23010E-003	0.00000E+000	-3.70030E-001	0.00000E+000	10	...........	1583.25
	451	4.51	2.33222E-001	-1.23011E-003	0.00000E+000	-3.70030E-001	0.00000E+000	10	...........	1583.25
	452	4.52	2.31240E-001	-1.23011E-003	0.00000E+000	-3.70030E-001	0.00000E+000	10	...........	1583.25
	453	4.53	2.29266E-001	-1.23009E-003	0.00000E+000	-3.70030E-001	0.00000E+000	10	...........	1583.25
	454	4.54	2.27290E-001	-1.23012E-003	0.00000E+000	-3.70030E-001	0.00000E+000	10	...........	1583.25
	455	4.55	2.25321E-001	-1.23013E-003	0.00000E+000	-3.70030E-001	0.00000E+000	10	...........	1583.25
	456	4.56	2.23362E-001	-1.23015E-003	0.00000E+000	-3.70030E-001	0.00000E+000	10	...........	1583.44
	457	4.57	2.21402E-001	-1.23015E-003	0.00000E+000	-3.70030E-001	0.00000E+000	10	...........	1583.44
	458	4.58	2.19453E-001	-1.23013E-003	0.00000E+000	-3.70030E-001	0.00000E+000	10	...........	1583.44
	459	4.59	2.17504E-001	-1.23012E-003	0.00000E+000	-3.70030E-001	0.00000E+000	10	...........	1583.44
	460	4.6	2.15564E-001	-1.23010E-003	0.00000E+000	-3.70030E-001	0.00000E+000	10	...........	1583.44
	461	4.61	2.13627E-001	-1.23016E-003	0.00000E+000	-3.70030E-001	0.00000E+000	10	...........	1583.44
	462	4.62	2.11691E-001	-1.23010E-003	0.00000E+000	-3.70030E-001	0.00000E+000	10	...........	1583.44
	463	4.63	2.09768E-001	-1.23009E-003	0.00000E+000	-3.70030E-001	0.00000E+000	10	...........	1583.44
	464	4.64	2.07845E-001	-1.23007E-003	0.00000E+000	-3.70030E-001	0.00000E+000	10	...........	1583.44
	465	4.65	2.05928E-001	-1.23007E-003	0.00000E+000	-3.70030E-001	0.00000E+000	10	...........	1583.44
	466	4.66	2.04014E-001	-1.23011E-003	0.00000E+000	-3.70030E-001	0.00000E+000	10	...........	1583.44
	467	4.67	2.02101E-001	-1.23013E-003	0.00000E+000	-3.70030E-001	0.00000E+000	10	...........	1583.44
	468	4.68	2.00196E-001	-1.23006E-003	0.00000E+000	-3.70030E-001	0.00000E+000	10	...........	1583.44
	469	4.69	1.98298E-001	-1.23011E-003	0.00000E+000	-3.70030E-001	0.00000E+000	10	...........	1583.44
	470	4.7	1.96407E-001	-1.23007E-003	0.00000E+000	-3.70030E-001	0.00000E+000	10	...........	1583.44
	471	4.71	1.94515E-001	-1.23008E-003	0.00000E+000	-3.70030E-001	0.00000E+000	10	...........	1583.44
	472	4.72	1.92632E-001	-1.23011E-003	0.00000E+000	-3.70030E-001	0.00000E+000	10	...........	1583.44
	473	4.73	1.90753E-001	-1.23009E-003	0.00000E+000	-3.70030E-001	0.00000E+000	10	...........	1583.44
	474	4.74	1.88874E-001	-1.23007E-003	0.00000E+000	-3.70030E-001	0.00000E+000	10	...........	1583.44
	475	4.75	1.87007E-001	-1.23011E-003	0.00000E+000	-3.70030E-001	0.00000E+000	10	...........	1583.44
	476	4.76	1.85136E-001	-1.23008E-003	0.00000E+000	-3.70030E-001	0.00000E+000	10	...........	1583.44
	477	4.77	1.83278E-001	-1.23009E-003	0.00000E+000	-3.70030E-001	0.00000E+000	10	...........	1583.44
	478	4.78	1.81418E-001	-1.23012E-003	0.00000E+000	-3.70030E-001	0.00000E+000	10	...........	1583.44
	479	4.79	1.79567E-001	-1.23007E-003	0.00000E+000	-3.70030E-001	0.00000E+000	10	...........	1583.44
	480	4.8	1.77721E-001	-1.23007E-003	0.00000E+000	-3.70030E-001	0.00000E+000	10	...........	1583.44
	481	4.81	1.75883E-001	-1.23004E-003	0.00000E+000	-3.70030E-001	0.00000E+000	10	...........	1583.44
	482	4.82	1.74047E-001	-1.23010E-003	0.00000E+000	-3.70030E-001	0.00000E+000	10	...........	1583.44
	483	4.83	1.72213E-001	-1.23014E-003	0.00000E+000	-3.70030E-001	0.00000E+000	10	...........	1583.44
	484	4.84	1.70387E-001	-1.23012E-003	0.00000E+000	-3.70030E-001	0.00000E+000	10	...........	1583.44
	485	4.85	1.68567E-001	-1.23010E-003	0.00000E+000	-3.70030E-001	0.00000E+000	10	...........	1583.44
	486	4.86	1.66748E-001	-1.23008E-003	0.00000E+000	-3.70030E-001	0.00000E+000	10	...........	1583.44
	487	4.87	1.64937E-001	-1.23004E-003	0.00000E+000	-3.70030E-001	0.00000E+000	10	...........	1583.44
	488	4.88	1.63133E-001	-1.23008E-003	0.00000E+000	-3.70030E-001	0.00000E+000	10	...........	1583.44
	489	4.89	1.61327E-001	-1.23012E-003	0.00000E+000	-3.70030E-001	0.00000E+000	10	...........	1583.44
	490	4.9	1.59532E-001	-1.23012E-003	0.00000E+000	-3.70030E-001	0.00000E+000	10	...........	1583.44
	491	4.91	1.57735E-001	-1.23014E-003	0.00000E+000	-3.70030E-001	0.00000E+000	10	...........	1583.44
	492	4.92	1.55941E-001	-1.23015E-003	0.00000E+000	-3.70030E-001	0.00000E+000	10	...........	1583.44
	493	4.93	1.54159E-001	-1.23013E-003	0.00000E+000	-3.70030E-001	0.00000E+000	10	...........	1583.44
	494	4.94	1.52378E-001	-1.23016E-003	0.00000E+000	-3.70030E-001	0.00000E+000	10	...........	1583.44
	495	4.95	1.50606E-001	-1.23006E-003	0.00000E+000	-3.70030E-001	0.00000E+000	10	...........	1583.44
	496	4.96	1.48840E-001	-1.23011E-003	0.00000E+000	-3.70030E-001	0.00000E+000	10	...........	1583.44
	497	4.97	1.47073E-001	-1.23010E-003	0.00000E+000	-3.70030E-001	0.00000E+000	10	...........	1583.44
	498	4.98	1.45315E-001	-1.23011E-003	0.00000E+000	-3.70030E-001	0.00000E+000	10	...........	1583.44
	499	4.99	1.43565E-001	-1.23017E-003	0.00000E+000	-3.70030E-001	0.00000E+000	10	...........	1583.44
	500	5	1.41810E-001	-1.23015E-003	0.00000E+000	-3.70030E-001	0.00000E+000	10	...........	1583.44
	501	5.01	1.40067E-001	-1.23012E-003	0.00000E+000	-3.70030E-001	0.00000E+000	10	...........	1583.44
	502	5.02	1.38325E-001	-1.23012E-003	0.00000E+000	-3.70030E-001	0.00000E+000	10	...........	1583.44
	503	5.03	1.36593E-001	-1.23009E-003	0.00000E+000	-3.70030E-001	0.00000E+000	10	...........	1583.44
	504	5.04	1.34863E-001	-1.23003E-003	0.00000E+000	-3.70030E-001	0.00000E+000	10	...........	1583.44
	505	5.05	1.33138E-001	-1.23012E-003	0.00000E+000	-3.70030E-001	0.00000E+000	10	...........	1583.44
	506	5.06	1.31416E-001	-1.23014E-003	0.00000E+000	-3.70030E-001	0.00000E+000	10	...........	1583.44
	507	5.07	1.29698E-001	-1.23017E-003	0.00000E+000	-3.70030E-001	0.00000E+000	10	...........	1583.44
	508	5.08	1.27987E-001	-1.23016E-003	0.00000E+000	-3.70030E-001	0.00000E+000	10	...........	1583.44
	509	5.09	1.26276E-001	-1.23016E-003	0.00000E+000	-3.70030E-001	0.00000E+000	10	...........	1583.44
	510	5.1	1.24573E-001	-1.23016E-003	0.00000E+000	-3.70030E-001	0.00000E+000	10	...........	1583.44
	511	5.11	1.22878E-001	-1.23014E-003	0.00000E+000	-3.70030E-001	0.00000E+000	10	...........	1583.44
	512	5.12	1.21184E-001	-1.23014E-003	0.00000E+000	-3.70030E-001	0.00000E+000	10	...........	1583.44
	513	5.13	1.19501E-001	-1.23015E-003	0.00000E+000	-3.70030E-001	0.00000E+000	10	...........	1583.44
	514	5.14	1.17820E-001	-1.23015E-003	0.00000E+000	-3.70030E-001	0.00000E+000	10	...........	1583.44
	515	5.15	1.16140E-001	-1.23015E-003	0.00000E+000	-3.70030E-001	0.00000E+000	10	...........	1583.44
	516	5.16	1.14468E-001	-1.23016E-003	0.00000E+000	-3.70030E-001	0.00000E+000	10	...........	1583.44
	517	5.17	1.12802E-001	-1.23017E-003	0.00000E+000	-3.70030E-001	0.00000E+000	10	...........	1583.44
	518	5.18	1.11143E-001	-1.23009E-003	0.00000E+000	-3.70030E-001	0.00000E+000	10	...........	1583.44
	519	5.19	1.09481E-001	-1.23018E-003	0.00000E+000	-3.70030E-001	0.00000E+000	10	...........	1583.44
	520	5.2	1.07828E-001	-1.23018E-003	0.00000E+000	-3.70030E-001	0.00000E+000	10	...........	1583.44
	521	5.21	1.06180E-001	-1.23019E-003	0.00000E+000	-3.70030E-001	0.00000E+000	10	...........	1583.44
	522	5.22	1.04536E-001	-1.23020E-003	0.00000E+000	-3.70030E-001	0.00000E+000	10	...........	1583.44
	523	5.23	1.02900E-001	-1.23013E-003	0.00000E+000	-3.70030E-001	0.00000E+000	10	...........	1583.44
	524	5.24	1.01267E-001	-1.23015E-003	0.00000E+000	-3.70030E-001	0.00000E+000	10	...........	1583.44
	525	5.25	9.96364E-002	-1.23014E-003	0.00000E+000	-3.70030E-001	0.00000E+000	10	...........	1583.44
	526	5.26	9.80154E-002	-1.23013E-003	0.00000E+000	-3.70030E-001	0.00000E+000	10	...........	1583.44
	527	5.27	9.63970E-002	-1.23016E-003	0.00000E+000	-3.70030E-001	0.00000E+000	10	...........	1583.44
	528	5.28	9.47813E-002	-1.23015E-003	0.00000E+000	-3.70030E-001	0.00000E+000	10	...........	1583.44
	529	5.29	9.31725E-002	-1.23018E-003	0.00000E+000	-3.70030E-001	0.00000E+000	10	...........	1583.44
	530	5.3	9.15672E-002	-1.23016E-003	0.00000E+000	-3.70030E-001	0.00000E+000	10	...........	1583.44
	531	5.31	8.99686E-002	-1.23017E-003	0.00000E+000	-3.70030E-001	0.00000E+000	10	...........	1583.44
	532	5.32	8.83758E-002	-1.23014E-003	0.00000E+000	-3.70030E-001	0.00000E+000	10	...........	1583.44
	533	5.33	8.67854E-002	-1.23016E-003	0.00000E+000	-3.70030E-001	0.00000E+000	10	...........	1583.44
	534	5.34	8.52003E-002	-1.23012E-003	0.00000E+000	-3.70030E-001	0.00000E+000	10	...........	1583.44
	535	5.35	8.36215E-002	-1.23017E-003	0.00000E+000	-3.70030E-001	0.00000E+000	10	...........	1583.44
	536	5.36	8.20502E-002	-1.23013E-003	0.00000E+000	-3.70030E-001	0.00000E+000	10	...........	1583.44
	537	5.37	8.04770E-002	-1.23017E-003	0.00000E+000	-3.70030E-001	0.00000E+000	10	...........	1583.44
	538	5.38	7.89109E-002	-1.23017E-003	0.00000E+000	-3.70030E-001	0.00000E+000	10	...........	1583.44
	539	5.39	7.73539E-002	-1.23014E-003	0.00000E+000	-3.70030E-001	0.00000E+000	10	...........	1583.44
	540	5.4	7.57992E-002	-1.23011E-003	0.00000E+000	-3.70030E-001	0.00000E+000	10	...........	1583.44
	541	5.41	7.42467E-002	-1.23014E-003	0.00000E+000	-3.70030E-001	0.00000E+000	10	...........	1583.44
	542	5.42	7.26975E-002	-1.23016E-003	0.00000E+000	-3.70030E-001	0.00000E+000	10	...........	1583.44
	543	5.43	7.11582E-002	-1.23013E-003	0.00000E+000	-3.70030E-001	0.00000E+000	10	...........	1583.44
	544	5.44	6.96236E-002	-1.23008E-003	0.00000E+000	-3.70030E-001	0.00000E+000	10	...........	1583.44
	545	5.45	6.80931E-002	-1.23009E-003	0.00000E+000	-3.70030E-001	0.00000E+000	10	...........	1583.44
	546	5.46	6.65713E-002	-1.23013E-003	0.00000E+000	-3.70030E-001	0.00000E+000	10	...........	1583.44
	547	5.47	6.50406E-002	-1.23021E-003	0.00000E+000	-3.70030E-001	0.00000E+000	10	...........	1583.44
	548	5.48	6.35265E-002	-1.23015E-003	0.00000E+000	-3.70030E-001	0.00000E+000	10	...........	1583.44
	549	5.49	6.20149E-002	-1.23015E-003	0.00000E+000	-3.70030E-001	0.00000E+000	10	...........	1583.44
	550	5.5	6.05056E-002	-1.23009E-003	0.00000E+000	-3.70030E-001	0.00000E+000	10	...........	1583.44
	551	5.51	5.90070E-002	-1.23012E-003	0.00000E+000	-3.70030E-001	0.00000E+000	10	...........	1583.44
	552	5.52	5.75092E-002	-1.23014E-003	0.00000E+000	-3.70030E-001	0.00000E+000	10	...........	1583.44
	553	5.53	5.60125E-002	-1.23012E-003	0.00000E+000	-3.70030E-001	0.00000E+000	10	...........	1583.44
	554	5.54	5.45237E-002	-1.23016E-003	0.00000E+000	-3.70030E-001	0.00000E+000	10	...........	1583.44
	555	5.55	5.30403E-002	-1.23016E-003	0.00000E+000	-3.70030E-001	0.00000E+000	10	...........	1583.44
	556	5.56	5.15612E-002	-1.23016E-003	0.00000E+000	-3.70030E-001	0.00000E+000	10	...........	1583.44
	557	5.57	5.00885E-002	-1.23009E-003	0.00000E+000	-3.70030E-001	0.00000E+000	10	...........	1583.44
	558	5.58	4.86200E-002	-1.23007E-003	0.00000E+000	-3.70030E-001	0.00000E+000	10	...........	1583.44
	559	5.59	4.71593E-002	-1.23011E-003	0.00000E+000	-3.70030E-001	0.00000E+000	10	...........	1583.44
	560	5.6	4.56956E-002	-1.23013E-003	0.00000E+000	-3.70030E-001	0.00000E+000	10	...........	1583.44
	561	5.61	4.42450E-002	-1.23009E-003	0.00000E+000	-3.70030E-001	0.00000E+000	10	...........	1583.44
	562	5.62	4.27967E-002	-1.23012E-003	0.00000E+000	-3.70030E-001	0.00000E+000	10	...........	1583.44
	563	5.63	4.13507E-002	-1.23006E-003	0.00000E+000	-3.70030E-001	0.00000E+000	10	...........	1583.44
	564	5.64	3.99116E-002	-1.23013E-003	0.00000E+000	-3.70030E-001	0.00000E+000	10	...........	1583.44
	565	5.65	3.84731E-002	-1.23011E-003	0.00000E+000	-3.70030E-001	0.00000E+000	10	...........	1583.44
	566	5.66	3.70450E-002	-1.23011E-003	0.00000E+000	-3.70030E-001	0.00000E+000	10	...........	1583.44
	567	5.67	3.56164E-002	-1.23009E-003	0.00000E+000	-3.70030E-001	0.00000E+000	10	...........	1583.44
	568	5.68	3.41934E-002	-1.23012E-003	0.00000E+000	-3.70030E-001	0.00000E+000	10	...........	1583.44
	569	5.69	3.27794E-002	-1.23011E-003	0.00000E+000	-3.70030E-001	0.00000E+000	10	...........	1583.44
	570	5.7	3.13701E-002	-1.23010E-003	0.00000E+000	-3.70030E-001	0.00000E+000	10	...........	1583.44
	571	5.71	2.99639E-002	-1.23009E-003	0.00000E+000	-3.70030E-001	0.00000E+000	10	...........	1583.44
	572	5.72	2.85637E-002	-1.23010E-003	0.00000E+000	-3.70030E-001	0.00000E+000	10	...........	1583.44
	573	5.73	2.71616E-002	-1.23012E-003	0.00000E+000	-3.70030E-001	0.00000E+000	10	...........	1583.44
	574	5.74	2.57700E-002	-1.23014E-003	0.00000E+000	-3.70030E-001	0.00000E+000	10	...........	1583.44
	575	5.75	2.43808E-002	-1.23019E-003	0.00000E+000	-3.70030E-001	0.00000E+000	10	...........	1583.44
	576	5.76	2.29999E-002	-1.23016E-003	0.00000E+000	-3.70030E-001	0.00000E+000	10	...........	1583.44
	577	5.77	2.16247E-002	-1.23010E-003	0.00000E+000	-3.70030E-001	0.00000E+000	10	...........	1583.44
	578	5.78	2.02523E-002	-1.23007E-003	0.00000E+000	-3.70030E-001	0.00000E+000	10	...........	1583.44
	579	5.79	1.88819E-002	-1.23016E-003	0.00000E+000	-3.70030E-001	0.00000E+000	10	...........	1583.44
	580	5.8	1.75175E-002	-1.23014E-003	0.00000E+000	-3.70030E-001	0.00000E+000	10	...........	1583.44
	581	5.81	1.61587E-002	-1.23011E-003	0.00000E+000	-3.70030E-001	0.00000E+000	10	...........	1583.44
	582	5.82	1.48001E-002	-1.23010E-003	0.00000E+000	-3.70030E-001	0.00000E+000	10	...........	1583.44
	583	5.83	1.34494E-002	-1.23012E-003	0.00000E+000	-3.70030E-001	0.00000E+000	10	...........	1583.44
	584	5.84	1.21011E-002	-1.23021E-003	0.00000E+000	-3.70030E-001	0.00000E+000	10	...........	1583.44
	585	5.85	1.07611E-002	-1.23014E-003	0.00000E+000	-3.70030E-001	0.00000E+000	10	...........	1583.44
	586	5.86	9.42570E-003	-1.23013E-003	0.00000E+000	-3.70030E-001	0.00000E+000	10	...........	1583.44
	587	5.87	8.08831E-003	-1.23009E-003	0.00000E+000	-3.70030E-001	0.00000E+000	10	...........	1583.44
	588	5.88	6.76652E-003	-1.23009E-003	0.00000E+000	-3.70030E-001	0.00000E+000	10	...........	1583.44
	589	5.89	5.44105E-003	-1.23019E-003	0.00000E+000	-3.70030E-001	0.00000E+000	10	...........	1583.44
	590	5.9	4.12174E-003	-1.23020E-003	0.00000E+000	-3.70030E-001	0.00000E+000	10	...........	1583.44
	591	5.91	2.80703E-003	-1.23017E-003	0.00000E+000	-3.70030E-001	0.00000E+000	10	...........	1583.44
	592	5.92	1.49567E-003	-1.23019E-003	0.00000E+000	-3.70030E-001	0.00000E+000	10	...........	1583.44
	593	5.93	1.90591E-004	-1.23017E-003	0.00000E+000	-3.70030E-001	0.00000E+000	10	...........	1583.44
	594	5.94	-1.11014E-003	-1.23017E-003	0.00000E+000	-3.70030E-001	0.00000E+000	10	...........	1583.44
