EXPLAIN
TAG	CHRONOP
TITLE	LABEL	Chronopotentiometry Scan	Test Identifier
DATE	LABEL	22/1/2025	Date
TIME	LABEL	22:21:52	Time
NOTES	NOTES	1	Notes...
	
PSTAT	PSTAT	IFC1010-42004	Potentiostat
IPRESTEP	QUANT	0.00000E+000	Pre-step Current(A)
TPRESTEP	QUANT	0.00000E+000	Pre-step Delay Time (s)
ISTEP1	QUANT	1.23000E-003	Step 1 Current (A)
TSTEP1	QUANT	5.00000E+003	Step 1 Time (s)
ISTEP2	QUANT	-1.23000E-003	Step 2 Current (A)
TSTEP2	QUANT	5.00000E+003	Step 2 Time (s)
SAMPLETIME	QUANT	1.00000E-002	Sample Period (s)
DECIMATE	TOGGLE	F	Decimate
VLIMITLOWER	QUANT	0.00000E+000	Lower Limit V (V)
VLIMITUPPER	QUANT	8.00000E-001	Upper Limit V (V)
EQDELAY	QUANT	1.00000E+000	Equil. Time (s)
SAMPLINGMODE	SELECTOR	1	Sampling Mode
AREA	QUANT	2.00000E+000	Sample Area (cm^2)
ELECTRODETYPE	SELECTOR	0	Electrode Type
STRIPPING	TOGGLE	F	Used for Stripping
SEQUENCER	TOGGLE	TRUE	Run as Sequence
PSTATMODEL	IQUANT	64	Pstat Model
PSTATSECTION	LABEL	IFC1010-42004	Pstat Section
PSTATSERIALNO	LABEL	42004	Pstat Serial Number
CTRLMODE	IQUANT	0	Control Mode
ELECTROMETER	IQUANT	0	RE=0 or CS=1
IESTAB	IQUANT	0	I/E Stability
CASPEED	IQUANT	4	Control Amp Speed
CONVENTION	IQUANT	1	Current Convention
ICHRANGE	IQUANT	2	Ich Range
ICHRANGEMODE	TOGGLE	T	Ich Auto Range
ICHOFFSETENABLE	TOGGLE	F	Ich Offset Enable
ICHOFFSET	QUANT	0	Ich Offset (V)
ICHFILTER	IQUANT	3	Ich Filter
VCHRANGE	IQUANT	3	Vch Range
VCHRANGEMODE	TOGGLE	T	Vch Auto Range
VCHOFFSETENABLE	TOGGLE	F	Vch Offset Enable
VCHOFFSET	QUANT	0	Vch Offset (V)
VCHFILTER	IQUANT	3	Vch Filter
IERANGELOWERLIMIT	IQUANT	4	I/E Range Lower Limit
IERANGEMODE	TOGGLE	F	I/E AutoRange
IERANGE	IQUANT	11	I/E Range
ACHSELECT	IQUANT	0	Ach Select
ACHRANGE	IQUANT	2	Ach Range
ACHOFFSETENABLE	TOGGLE	F	Ach Offset Enable
ACHOFFSET	QUANT	0	Ach Offset (V)
ACHFILTER	IQUANT	1	Ach Filter
SENSECABLEID	IQUANT	14	Sense Cable ID
PWRCABLEID	IQUANT	14	Power Cable ID
DCCALDATE	LABEL	1/22/2025	DC Calibration Date
ACCALDATE	LABEL	11/15/2024	AC Calibration Date
FRAMEWORKVERSION	LABEL	7.10.4	Framework Version
INSTRUMENTVERSION	LABEL	4.91	Instrument Version
COMMVERSION	LABEL	3.10	Communications Version
CPUPLDVERSION	LABEL	2.54	CPU PLD Version
CTRLPLDVERSION	LABEL	0.00	CTRL PLD Version
PSTATPLDVERSION	LABEL	0.00	PSTAT PLD Version
CURVE	TABLE	678
	Pt	T	Vf	Im	Vu	Sig	Ach	IERange	Over	Temp
	#	s	V vs. Ref.	A	V	V	V	#	bits	deg C
	0	0	2.28000E-001	-4.99816E-008	0.00000E+000	0.00000E+000	0.00000E+000	10	...........	1583.05
	1	0.01	2.40521E-001	1.22969E-003	0.00000E+000	3.70030E-001	0.00000E+000	10	...........	1583.05
	2	0.02	2.43072E-001	1.22965E-003	0.00000E+000	3.70030E-001	0.00000E+000	10	...........	1583.05
	3	0.03	2.45357E-001	1.22966E-003	0.00000E+000	3.70030E-001	0.00000E+000	10	...........	1583.05
	4	0.04	2.47551E-001	1.22962E-003	0.00000E+000	3.70030E-001	0.00000E+000	10	...........	1583.05
	5	0.05	2.49704E-001	1.22964E-003	0.00000E+000	3.70030E-001	0.00000E+000	10	...........	1583.05
	6	0.06	2.51830E-001	1.22963E-003	0.00000E+000	3.70030E-001	0.00000E+000	10	...........	1583.05
	7	0.07	2.53946E-001	1.22971E-003	0.00000E+000	3.70030E-001	0.00000E+000	10	...........	1583.05
	8	0.08	2.56048E-001	1.22961E-003	0.00000E+000	3.70030E-001	0.00000E+000	10	...........	1583.05
	9	0.09	2.58143E-001	1.22974E-003	0.00000E+000	3.70030E-001	0.00000E+000	10	...........	1583.05
	10	0.1	2.60239E-001	1.22970E-003	0.00000E+000	3.70030E-001	0.00000E+000	10	...........	1583.05
	11	0.11	2.62322E-001	1.22980E-003	0.00000E+000	3.70030E-001	0.00000E+000	10	...........	1583.05
	12	0.12	2.64406E-001	1.22976E-003	0.00000E+000	3.70030E-001	0.00000E+000	10	...........	1583.05
	13	0.13	2.66487E-001	1.22977E-003	0.00000E+000	3.70030E-001	0.00000E+000	10	...........	1583.05
	14	0.14	2.68556E-001	1.22980E-003	0.00000E+000	3.70030E-001	0.00000E+000	10	...........	1583.05
	15	0.15	2.70648E-001	1.22975E-003	0.00000E+000	3.70030E-001	0.00000E+000	10	...........	1583.05
	16	0.16	2.72725E-001	1.22971E-003	0.00000E+000	3.70030E-001	0.00000E+000	10	...........	1583.05
	17	0.17	2.74766E-001	1.22971E-003	0.00000E+000	3.70030E-001	0.00000E+000	10	...........	1583.05
	18	0.18	2.76815E-001	1.22967E-003	0.00000E+000	3.70030E-001	0.00000E+000	10	...........	1583.05
	19	0.19	2.78927E-001	1.22976E-003	0.00000E+000	3.70030E-001	0.00000E+000	10	...........	1583.05
	20	0.2	2.80994E-001	1.22971E-003	0.00000E+000	3.70030E-001	0.00000E+000	10	...........	1583.05
	21	0.21	2.83089E-001	1.22976E-003	0.00000E+000	3.70030E-001	0.00000E+000	10	...........	1583.05
	22	0.22	2.85159E-001	1.22968E-003	0.00000E+000	3.70030E-001	0.00000E+000	10	...........	1583.05
	23	0.23	2.87210E-001	1.22971E-003	0.00000E+000	3.70030E-001	0.00000E+000	10	...........	1583.05
	24	0.24	2.89297E-001	1.22971E-003	0.00000E+000	3.70030E-001	0.00000E+000	10	...........	1583.05
	25	0.25	2.91354E-001	1.22972E-003	0.00000E+000	3.70030E-001	0.00000E+000	10	...........	1583.05
	26	0.26	2.93411E-001	1.22970E-003	0.00000E+000	3.70030E-001	0.00000E+000	10	...........	1583.05
	27	0.27	2.95490E-001	1.22964E-003	0.00000E+000	3.70030E-001	0.00000E+000	10	...........	1583.05
	28	0.28	2.97551E-001	1.22965E-003	0.00000E+000	3.70030E-001	0.00000E+000	10	...........	1583.05
	29	0.29	2.99601E-001	1.22962E-003	0.00000E+000	3.70030E-001	0.00000E+000	10	...........	1583.05
	30	0.3	3.01683E-001	1.22971E-003	0.00000E+000	3.70030E-001	0.00000E+000	10	...........	1583.05
	31	0.31	3.03747E-001	1.22970E-003	0.00000E+000	3.70030E-001	0.00000E+000	10	...........	1583.05
	32	0.32	3.05799E-001	1.22972E-003	0.00000E+000	3.70030E-001	0.00000E+000	10	...........	1583.05
	33	0.33	3.07903E-001	1.22973E-003	0.00000E+000	3.70030E-001	0.00000E+000	10	...........	1583.05
	34	0.34	3.09950E-001	1.22971E-003	0.00000E+000	3.70030E-001	0.00000E+000	10	...........	1583.05
	35	0.35	3.12033E-001	1.22973E-003	0.00000E+000	3.70030E-001	0.00000E+000	10	...........	1583.05
	36	0.36	3.14103E-001	1.22976E-003	0.00000E+000	3.70030E-001	0.00000E+000	10	...........	1583.05
	37	0.37	3.16146E-001	1.22973E-003	0.00000E+000	3.70030E-001	0.00000E+000	10	...........	1583.05
	38	0.38	3.18210E-001	1.22973E-003	0.00000E+000	3.70030E-001	0.00000E+000	10	...........	1583.05
	39	0.39	3.20295E-001	1.22973E-003	0.00000E+000	3.70030E-001	0.00000E+000	10	...........	1583.05
	40	0.4	3.22345E-001	1.22973E-003	0.00000E+000	3.70030E-001	0.00000E+000	10	...........	1583.05
	41	0.41	3.24405E-001	1.22974E-003	0.00000E+000	3.70030E-001	0.00000E+000	10	...........	1583.05
	42	0.42	3.26470E-001	1.22972E-003	0.00000E+000	3.70030E-001	0.00000E+000	10	...........	1583.05
	43	0.43	3.28533E-001	1.22975E-003	0.00000E+000	3.70030E-001	0.00000E+000	10	...........	1583.05
	44	0.44	3.30581E-001	1.22973E-003	0.00000E+000	3.70030E-001	0.00000E+000	10	...........	1583.05
	45	0.45	3.32648E-001	1.22979E-003	0.00000E+000	3.70030E-001	0.00000E+000	10	...........	1583.05
	46	0.46	3.34741E-001	1.22978E-003	0.00000E+000	3.70030E-001	0.00000E+000	10	...........	1583.05
	47	0.47	3.36801E-001	1.22976E-003	0.00000E+000	3.70030E-001	0.00000E+000	10	...........	1583.05
	48	0.48	3.38837E-001	1.22978E-003	0.00000E+000	3.70030E-001	0.00000E+000	10	...........	1583.05
	49	0.49	3.40909E-001	1.22969E-003	0.00000E+000	3.70030E-001	0.00000E+000	10	...........	1583.05
	50	0.5	3.42959E-001	1.22968E-003	0.00000E+000	3.70030E-001	0.00000E+000	10	...........	1583.05
	51	0.51	3.45005E-001	1.22970E-003	0.00000E+000	3.70030E-001	0.00000E+000	10	...........	1583.05
	52	0.52	3.47081E-001	1.22972E-003	0.00000E+000	3.70030E-001	0.00000E+000	10	...........	1583.05
	53	0.53	3.49139E-001	1.22969E-003	0.00000E+000	3.70030E-001	0.00000E+000	10	...........	1583.05
	54	0.54	3.51174E-001	1.22968E-003	0.00000E+000	3.70030E-001	0.00000E+000	10	...........	1583.05
	55	0.55	3.53245E-001	1.22971E-003	0.00000E+000	3.70030E-001	0.00000E+000	10	...........	1583.05
	56	0.56	3.55293E-001	1.22971E-003	0.00000E+000	3.70030E-001	0.00000E+000	10	...........	1583.05
	57	0.57	3.57352E-001	1.22969E-003	0.00000E+000	3.70030E-001	0.00000E+000	10	...........	1583.05
	58	0.58	3.59454E-001	1.22971E-003	0.00000E+000	3.70030E-001	0.00000E+000	10	...........	1583.05
	59	0.59	3.61485E-001	1.22969E-003	0.00000E+000	3.70030E-001	0.00000E+000	10	...........	1583.05
	60	0.6	3.63557E-001	1.22971E-003	0.00000E+000	3.70030E-001	0.00000E+000	10	...........	1583.05
	61	0.61	3.65618E-001	1.22973E-003	0.00000E+000	3.70030E-001	0.00000E+000	10	...........	1583.05
	62	0.62	3.67660E-001	1.22976E-003	0.00000E+000	3.70030E-001	0.00000E+000	10	...........	1583.05
	63	0.63	3.69721E-001	1.22972E-003	0.00000E+000	3.70030E-001	0.00000E+000	10	...........	1583.05
	64	0.64	3.71793E-001	1.22971E-003	0.00000E+000	3.70030E-001	0.00000E+000	10	...........	1583.05
	65	0.65	3.73838E-001	1.22972E-003	0.00000E+000	3.70030E-001	0.00000E+000	10	...........	1583.05
	66	0.66	3.75895E-001	1.22974E-003	0.00000E+000	3.70030E-001	0.00000E+000	10	...........	1583.05
	67	0.67	3.77965E-001	1.22975E-003	0.00000E+000	3.70030E-001	0.00000E+000	10	...........	1583.05
	68	0.68	3.79991E-001	1.22967E-003	0.00000E+000	3.70030E-001	0.00000E+000	10	...........	1583.05
	69	0.69	3.82021E-001	1.22968E-003	0.00000E+000	3.70030E-001	0.00000E+000	10	...........	1583.05
	70	0.7	3.84080E-001	1.22968E-003	0.00000E+000	3.70030E-001	0.00000E+000	10	...........	1583.05
	71	0.71	3.86168E-001	1.22969E-003	0.00000E+000	3.70030E-001	0.00000E+000	10	...........	1583.05
	72	0.72	3.88213E-001	1.22972E-003	0.00000E+000	3.70030E-001	0.00000E+000	10	...........	1583.05
	73	0.73	3.90269E-001	1.22977E-003	0.00000E+000	3.70030E-001	0.00000E+000	10	...........	1583.05
	74	0.74	3.92321E-001	1.22971E-003	0.00000E+000	3.70030E-001	0.00000E+000	10	...........	1583.05
	75	0.75	3.94383E-001	1.22973E-003	0.00000E+000	3.70030E-001	0.00000E+000	10	...........	1583.05
	76	0.76	3.96399E-001	1.22970E-003	0.00000E+000	3.70030E-001	0.00000E+000	10	...........	1583.05
	77	0.77	3.98489E-001	1.22971E-003	0.00000E+000	3.70030E-001	0.00000E+000	10	...........	1583.05
	78	0.78	4.00530E-001	1.22974E-003	0.00000E+000	3.70030E-001	0.00000E+000	10	...........	1583.05
	79	0.79	4.02574E-001	1.22966E-003	0.00000E+000	3.70030E-001	0.00000E+000	10	...........	1583.05
	80	0.8	4.04619E-001	1.22970E-003	0.00000E+000	3.70030E-001	0.00000E+000	10	...........	1583.05
	81	0.81	4.06675E-001	1.22964E-003	0.00000E+000	3.70030E-001	0.00000E+000	10	...........	1583.05
	82	0.82	4.08730E-001	1.22969E-003	0.00000E+000	3.70030E-001	0.00000E+000	10	...........	1583.05
	83	0.83	4.10804E-001	1.22969E-003	0.00000E+000	3.70030E-001	0.00000E+000	10	...........	1583.05
	84	0.84	4.12843E-001	1.22969E-003	0.00000E+000	3.70030E-001	0.00000E+000	10	...........	1583.05
	85	0.85	4.14888E-001	1.22972E-003	0.00000E+000	3.70030E-001	0.00000E+000	10	...........	1583.05
	86	0.86	4.16955E-001	1.22973E-003	0.00000E+000	3.70030E-001	0.00000E+000	10	...........	1583.05
	87	0.87	4.19002E-001	1.22973E-003	0.00000E+000	3.70030E-001	0.00000E+000	10	...........	1583.05
	88	0.88	4.21034E-001	1.22971E-003	0.00000E+000	3.70030E-001	0.00000E+000	10	...........	1583.05
	89	0.89	4.23087E-001	1.22972E-003	0.00000E+000	3.70030E-001	0.00000E+000	10	...........	1583.05
	90	0.9	4.25132E-001	1.22969E-003	0.00000E+000	3.70030E-001	0.00000E+000	10	...........	1583.05
	91	0.91	4.27179E-001	1.22967E-003	0.00000E+000	3.70030E-001	0.00000E+000	10	...........	1583.05
	92	0.92	4.29224E-001	1.22967E-003	0.00000E+000	3.70030E-001	0.00000E+000	10	...........	1583.05
	93	0.93	4.31270E-001	1.22969E-003	0.00000E+000	3.70030E-001	0.00000E+000	10	...........	1583.05
	94	0.94	4.33328E-001	1.22978E-003	0.00000E+000	3.70030E-001	0.00000E+000	10	...........	1583.53
	95	0.95	4.35405E-001	1.22971E-003	0.00000E+000	3.70030E-001	0.00000E+000	10	...........	1583.53
	96	0.96	4.37449E-001	1.22969E-003	0.00000E+000	3.70030E-001	0.00000E+000	10	...........	1583.53
	97	0.97	4.39484E-001	1.22967E-003	0.00000E+000	3.70030E-001	0.00000E+000	10	...........	1583.53
	98	0.98	4.41523E-001	1.22971E-003	0.00000E+000	3.70030E-001	0.00000E+000	10	...........	1583.53
	99	0.99	4.43582E-001	1.22972E-003	0.00000E+000	3.70030E-001	0.00000E+000	10	...........	1583.53
	100	1	4.45616E-001	1.22971E-003	0.00000E+000	3.70030E-001	0.00000E+000	10	...........	1583.53
	101	1.01	4.47658E-001	1.22971E-003	0.00000E+000	3.70030E-001	0.00000E+000	10	...........	1583.53
	102	1.02	4.49730E-001	1.22981E-003	0.00000E+000	3.70030E-001	0.00000E+000	10	...........	1583.53
	103	1.03	4.51783E-001	1.22975E-003	0.00000E+000	3.70030E-001	0.00000E+000	10	...........	1583.53
	104	1.04	4.53801E-001	1.22973E-003	0.00000E+000	3.70030E-001	0.00000E+000	10	...........	1583.53
	105	1.05	4.55851E-001	1.22968E-003	0.00000E+000	3.70030E-001	0.00000E+000	10	...........	1583.53
	106	1.06	4.57899E-001	1.22969E-003	0.00000E+000	3.70030E-001	0.00000E+000	10	...........	1583.53
	107	1.07	4.59962E-001	1.22975E-003	0.00000E+000	3.70030E-001	0.00000E+000	10	...........	1583.53
	108	1.08	4.62047E-001	1.22973E-003	0.00000E+000	3.70030E-001	0.00000E+000	10	...........	1583.53
	109	1.09	4.64054E-001	1.22978E-003	0.00000E+000	3.70030E-001	0.00000E+000	10	...........	1583.53
	110	1.1	4.66100E-001	1.22973E-003	0.00000E+000	3.70030E-001	0.00000E+000	10	...........	1583.53
	111	1.11	4.68155E-001	1.22969E-003	0.00000E+000	3.70030E-001	0.00000E+000	10	...........	1583.53
	112	1.12	4.70178E-001	1.22975E-003	0.00000E+000	3.70030E-001	0.00000E+000	10	...........	1583.53
	113	1.13	4.72207E-001	1.22965E-003	0.00000E+000	3.70030E-001	0.00000E+000	10	...........	1583.53
	114	1.14	4.74263E-001	1.22969E-003	0.00000E+000	3.70030E-001	0.00000E+000	10	...........	1583.53
	115	1.15	4.76313E-001	1.22966E-003	0.00000E+000	3.70030E-001	0.00000E+000	10	...........	1583.53
	116	1.16	4.78358E-001	1.22976E-003	0.00000E+000	3.70030E-001	0.00000E+000	10	...........	1583.53
	117	1.17	4.80415E-001	1.22977E-003	0.00000E+000	3.70030E-001	0.00000E+000	10	...........	1583.53
	118	1.18	4.82455E-001	1.22975E-003	0.00000E+000	3.70030E-001	0.00000E+000	10	...........	1583.53
	119	1.19	4.84493E-001	1.22974E-003	0.00000E+000	3.70030E-001	0.00000E+000	10	...........	1583.53
	120	1.2	4.86538E-001	1.22969E-003	0.00000E+000	3.70030E-001	0.00000E+000	10	...........	1583.53
	121	1.21	4.88588E-001	1.22968E-003	0.00000E+000	3.70030E-001	0.00000E+000	10	...........	1583.53
	122	1.22	4.90639E-001	1.22966E-003	0.00000E+000	3.70030E-001	0.00000E+000	10	...........	1583.53
	123	1.23	4.92665E-001	1.22967E-003	0.00000E+000	3.70030E-001	0.00000E+000	10	...........	1583.53
	124	1.24	4.94689E-001	1.22973E-003	0.00000E+000	3.70030E-001	0.00000E+000	10	...........	1583.53
	125	1.25	4.96749E-001	1.22966E-003	0.00000E+000	3.70030E-001	0.00000E+000	10	...........	1583.53
	126	1.26	4.98795E-001	1.22966E-003	0.00000E+000	3.70030E-001	0.00000E+000	10	...........	1583.53
	127	1.27	5.00849E-001	1.22968E-003	0.00000E+000	3.70030E-001	0.00000E+000	10	...........	1583.53
	128	1.28	5.02892E-001	1.22970E-003	0.00000E+000	3.70030E-001	0.00000E+000	10	...........	1583.53
	129	1.29	5.04928E-001	1.22972E-003	0.00000E+000	3.70030E-001	0.00000E+000	10	...........	1583.53
	130	1.3	5.06963E-001	1.22970E-003	0.00000E+000	3.70030E-001	0.00000E+000	10	...........	1583.53
	131	1.31	5.09001E-001	1.22966E-003	0.00000E+000	3.70030E-001	0.00000E+000	10	...........	1583.53
	132	1.32	5.11017E-001	1.22973E-003	0.00000E+000	3.70030E-001	0.00000E+000	10	...........	1583.53
	133	1.33	5.13089E-001	1.22974E-003	0.00000E+000	3.70030E-001	0.00000E+000	10	...........	1583.53
	134	1.34	5.15124E-001	1.22969E-003	0.00000E+000	3.70030E-001	0.00000E+000	10	...........	1583.53
	135	1.35	5.17170E-001	1.22972E-003	0.00000E+000	3.70030E-001	0.00000E+000	10	...........	1583.53
	136	1.36	5.19197E-001	1.22977E-003	0.00000E+000	3.70030E-001	0.00000E+000	10	...........	1583.53
	137	1.37	5.21233E-001	1.22972E-003	0.00000E+000	3.70030E-001	0.00000E+000	10	...........	1583.53
	138	1.38	5.23272E-001	1.22969E-003	0.00000E+000	3.70030E-001	0.00000E+000	10	...........	1583.53
	139	1.39	5.25329E-001	1.22968E-003	0.00000E+000	3.70030E-001	0.00000E+000	10	...........	1583.53
	140	1.4	5.27347E-001	1.22967E-003	0.00000E+000	3.70030E-001	0.00000E+000	10	...........	1583.53
	141	1.41	5.29395E-001	1.22970E-003	0.00000E+000	3.70030E-001	0.00000E+000	10	...........	1583.53
	142	1.42	5.31425E-001	1.22966E-003	0.00000E+000	3.70030E-001	0.00000E+000	10	...........	1583.53
	143	1.43	5.33449E-001	1.22967E-003	0.00000E+000	3.70030E-001	0.00000E+000	10	...........	1583.53
	144	1.44	5.35470E-001	1.22969E-003	0.00000E+000	3.70030E-001	0.00000E+000	10	...........	1583.53
	145	1.45	5.37500E-001	1.22966E-003	0.00000E+000	3.70030E-001	0.00000E+000	10	...........	1583.53
	146	1.46	5.39575E-001	1.22973E-003	0.00000E+000	3.70030E-001	0.00000E+000	10	...........	1583.53
	147	1.47	5.41605E-001	1.22972E-003	0.00000E+000	3.70030E-001	0.00000E+000	10	...........	1583.53
	148	1.48	5.43638E-001	1.22974E-003	0.00000E+000	3.70030E-001	0.00000E+000	10	...........	1583.53
	149	1.49	5.45675E-001	1.22972E-003	0.00000E+000	3.70030E-001	0.00000E+000	10	...........	1583.53
	150	1.5	5.47698E-001	1.22971E-003	0.00000E+000	3.70030E-001	0.00000E+000	10	...........	1583.53
	151	1.51	5.49710E-001	1.22971E-003	0.00000E+000	3.70030E-001	0.00000E+000	10	...........	1583.53
	152	1.52	5.51748E-001	1.22971E-003	0.00000E+000	3.70030E-001	0.00000E+000	10	...........	1583.53
	153	1.53	5.53765E-001	1.22970E-003	0.00000E+000	3.70030E-001	0.00000E+000	10	...........	1583.53
	154	1.54	5.55795E-001	1.22973E-003	0.00000E+000	3.70030E-001	0.00000E+000	10	...........	1583.53
	155	1.55	5.57830E-001	1.22973E-003	0.00000E+000	3.70030E-001	0.00000E+000	10	...........	1583.53
	156	1.56	5.59829E-001	1.22973E-003	0.00000E+000	3.70030E-001	0.00000E+000	10	...........	1583.53
	157	1.57	5.61881E-001	1.22971E-003	0.00000E+000	3.70030E-001	0.00000E+000	10	...........	1583.53
	158	1.58	5.63931E-001	1.22971E-003	0.00000E+000	3.70030E-001	0.00000E+000	10	...........	1583.53
	159	1.59	5.65953E-001	1.22971E-003	0.00000E+000	3.70030E-001	0.00000E+000	10	...........	1583.53
	160	1.6	5.67951E-001	1.22965E-003	0.00000E+000	3.70030E-001	0.00000E+000	10	...........	1583.53
	161	1.61	5.69976E-001	1.22967E-003	0.00000E+000	3.70030E-001	0.00000E+000	10	...........	1583.53
	162	1.62	5.71997E-001	1.22969E-003	0.00000E+000	3.70030E-001	0.00000E+000	10	...........	1583.53
	163	1.63	5.74030E-001	1.22971E-003	0.00000E+000	3.70030E-001	0.00000E+000	10	...........	1583.53
	164	1.64	5.76019E-001	1.22971E-003	0.00000E+000	3.70030E-001	0.00000E+000	10	...........	1583.53
	165	1.65	5.78072E-001	1.22970E-003	0.00000E+000	3.70030E-001	0.00000E+000	10	...........	1583.53
	166	1.66	5.80091E-001	1.22968E-003	0.00000E+000	3.70030E-001	0.00000E+000	10	...........	1583.53
	167	1.67	5.82101E-001	1.22972E-003	0.00000E+000	3.70030E-001	0.00000E+000	10	...........	1583.53
	168	1.68	5.84114E-001	1.22972E-003	0.00000E+000	3.70030E-001	0.00000E+000	10	...........	1583.53
	169	1.69	5.86142E-001	1.22973E-003	0.00000E+000	3.70030E-001	0.00000E+000	10	...........	1583.53
	170	1.7	5.88137E-001	1.22970E-003	0.00000E+000	3.70030E-001	0.00000E+000	10	...........	1583.53
	171	1.71	5.90189E-001	1.22974E-003	0.00000E+000	3.70030E-001	0.00000E+000	10	...........	1583.53
	172	1.72	5.92197E-001	1.22972E-003	0.00000E+000	3.70030E-001	0.00000E+000	10	...........	1583.53
	173	1.73	5.94192E-001	1.22968E-003	0.00000E+000	3.70030E-001	0.00000E+000	10	...........	1583.53
	174	1.74	5.96225E-001	1.22970E-003	0.00000E+000	3.70030E-001	0.00000E+000	10	...........	1583.53
	175	1.75	5.98206E-001	1.22973E-003	0.00000E+000	3.70030E-001	0.00000E+000	10	...........	1583.53
	176	1.76	6.00215E-001	1.22976E-003	0.00000E+000	3.70030E-001	0.00000E+000	10	...........	1583.53
	177	1.77	6.02251E-001	1.22972E-003	0.00000E+000	3.70030E-001	0.00000E+000	10	...........	1583.53
	178	1.78	6.04246E-001	1.22971E-003	0.00000E+000	3.70030E-001	0.00000E+000	10	...........	1583.53
	179	1.79	6.06258E-001	1.22971E-003	0.00000E+000	3.70030E-001	0.00000E+000	10	...........	1583.53
	180	1.8	6.08262E-001	1.22974E-003	0.00000E+000	3.70030E-001	0.00000E+000	10	...........	1583.53
	181	1.81	6.10249E-001	1.22974E-003	0.00000E+000	3.70030E-001	0.00000E+000	10	...........	1583.53
	182	1.82	6.12262E-001	1.22973E-003	0.00000E+000	3.70030E-001	0.00000E+000	10	...........	1583.53
	183	1.83	6.14252E-001	1.22975E-003	0.00000E+000	3.70030E-001	0.00000E+000	10	...........	1583.53
	184	1.84	6.16282E-001	1.22973E-003	0.00000E+000	3.70030E-001	0.00000E+000	10	...........	1583.53
	185	1.85	6.18283E-001	1.22974E-003	0.00000E+000	3.70030E-001	0.00000E+000	10	...........	1583.53
	186	1.86	6.20241E-001	1.22966E-003	0.00000E+000	3.70030E-001	0.00000E+000	10	...........	1583.53
	187	1.87	6.22223E-001	1.22970E-003	0.00000E+000	3.70030E-001	0.00000E+000	10	...........	1583.53
	188	1.88	6.24217E-001	1.22974E-003	0.00000E+000	3.70030E-001	0.00000E+000	10	...........	1583.53
	189	1.89	6.26211E-001	1.22971E-003	0.00000E+000	3.70030E-001	0.00000E+000	10	...........	1583.53
	190	1.9	6.28221E-001	1.22974E-003	0.00000E+000	3.70030E-001	0.00000E+000	10	...........	1583.53
	191	1.91	6.30182E-001	1.22974E-003	0.00000E+000	3.70030E-001	0.00000E+000	10	...........	1583.53
	192	1.92	6.32184E-001	1.22969E-003	0.00000E+000	3.70030E-001	0.00000E+000	10	...........	1583.53
	193	1.93	6.34161E-001	1.22972E-003	0.00000E+000	3.70030E-001	0.00000E+000	10	...........	1583.53
	194	1.94	6.36134E-001	1.22973E-003	0.00000E+000	3.70030E-001	0.00000E+000	10	...........	1583.25
	195	1.95	6.38093E-001	1.22975E-003	0.00000E+000	3.70030E-001	0.00000E+000	10	...........	1583.25
	196	1.96	6.40072E-001	1.22975E-003	0.00000E+000	3.70030E-001	0.00000E+000	10	...........	1583.25
	197	1.97	6.42076E-001	1.22976E-003	0.00000E+000	3.70030E-001	0.00000E+000	10	...........	1583.25
	198	1.98	6.44048E-001	1.22978E-003	0.00000E+000	3.70030E-001	0.00000E+000	10	...........	1583.25
	199	1.99	6.46004E-001	1.22968E-003	0.00000E+000	3.70030E-001	0.00000E+000	10	...........	1583.25
	200	2	6.47967E-001	1.22975E-003	0.00000E+000	3.70030E-001	0.00000E+000	10	...........	1583.25
	201	2.01	6.49935E-001	1.22973E-003	0.00000E+000	3.70030E-001	0.00000E+000	10	...........	1583.25
	202	2.02	6.51889E-001	1.22974E-003	0.00000E+000	3.70030E-001	0.00000E+000	10	...........	1583.25
	203	2.03	6.53873E-001	1.22974E-003	0.00000E+000	3.70030E-001	0.00000E+000	10	...........	1583.25
	204	2.04	6.55811E-001	1.22975E-003	0.00000E+000	3.70030E-001	0.00000E+000	10	...........	1583.25
	205	2.05	6.57758E-001	1.22973E-003	0.00000E+000	3.70030E-001	0.00000E+000	10	...........	1583.25
	206	2.06	6.59718E-001	1.22970E-003	0.00000E+000	3.70030E-001	0.00000E+000	10	...........	1583.25
	207	2.07	6.61669E-001	1.22972E-003	0.00000E+000	3.70030E-001	0.00000E+000	10	...........	1583.25
	208	2.08	6.63614E-001	1.22974E-003	0.00000E+000	3.70030E-001	0.00000E+000	10	...........	1583.25
	209	2.09	6.65557E-001	1.22975E-003	0.00000E+000	3.70030E-001	0.00000E+000	10	...........	1583.25
	210	2.1	6.67531E-001	1.22975E-003	0.00000E+000	3.70030E-001	0.00000E+000	10	...........	1583.25
	211	2.11	6.69470E-001	1.22973E-003	0.00000E+000	3.70030E-001	0.00000E+000	10	...........	1583.25
	212	2.12	6.71416E-001	1.22972E-003	0.00000E+000	3.70030E-001	0.00000E+000	10	...........	1583.25
	213	2.13	6.73336E-001	1.22972E-003	0.00000E+000	3.70030E-001	0.00000E+000	10	...........	1583.25
	214	2.14	6.75242E-001	1.22968E-003	0.00000E+000	3.70030E-001	0.00000E+000	10	...........	1583.25
	215	2.15	6.77189E-001	1.22969E-003	0.00000E+000	3.70030E-001	0.00000E+000	10	...........	1583.25
	216	2.16	6.79125E-001	1.22966E-003	0.00000E+000	3.70030E-001	0.00000E+000	10	...........	1583.25
	217	2.17	6.81018E-001	1.22970E-003	0.00000E+000	3.70030E-001	0.00000E+000	10	...........	1583.25
	218	2.18	6.82931E-001	1.22965E-003	0.00000E+000	3.70030E-001	0.00000E+000	10	...........	1583.25
	219	2.19	6.84821E-001	1.22968E-003	0.00000E+000	3.70030E-001	0.00000E+000	10	...........	1583.25
	220	2.2	6.86746E-001	1.22968E-003	0.00000E+000	3.70030E-001	0.00000E+000	10	...........	1583.25
	221	2.21	6.88660E-001	1.22967E-003	0.00000E+000	3.70030E-001	0.00000E+000	10	...........	1583.25
	222	2.22	6.90557E-001	1.22971E-003	0.00000E+000	3.70030E-001	0.00000E+000	10	...........	1583.25
	223	2.23	6.92502E-001	1.22971E-003	0.00000E+000	3.70030E-001	0.00000E+000	10	...........	1583.25
	224	2.24	6.94392E-001	1.22968E-003	0.00000E+000	3.70030E-001	0.00000E+000	10	...........	1583.25
	225	2.25	6.96280E-001	1.22972E-003	0.00000E+000	3.70030E-001	0.00000E+000	10	...........	1583.25
	226	2.26	6.98155E-001	1.22969E-003	0.00000E+000	3.70030E-001	0.00000E+000	10	...........	1583.25
	227	2.27	7.00024E-001	1.22970E-003	0.00000E+000	3.70030E-001	0.00000E+000	10	...........	1583.25
	228	2.28	7.01920E-001	1.22968E-003	0.00000E+000	3.70030E-001	0.00000E+000	10	...........	1583.25
	229	2.29	7.03787E-001	1.22975E-003	0.00000E+000	3.70030E-001	0.00000E+000	10	...........	1583.25
	230	2.3	7.05681E-001	1.22973E-003	0.00000E+000	3.70030E-001	0.00000E+000	10	...........	1583.25
	231	2.31	7.07563E-001	1.22975E-003	0.00000E+000	3.70030E-001	0.00000E+000	10	...........	1583.25
	232	2.32	7.09398E-001	1.22975E-003	0.00000E+000	3.70030E-001	0.00000E+000	10	...........	1583.25
	233	2.33	7.11279E-001	1.22975E-003	0.00000E+000	3.70030E-001	0.00000E+000	10	...........	1583.25
	234	2.34	7.13134E-001	1.22978E-003	0.00000E+000	3.70030E-001	0.00000E+000	10	...........	1583.25
	235	2.35	7.14979E-001	1.22978E-003	0.00000E+000	3.70030E-001	0.00000E+000	10	...........	1583.25
	236	2.36	7.16827E-001	1.22976E-003	0.00000E+000	3.70030E-001	0.00000E+000	10	...........	1583.25
	237	2.37	7.18717E-001	1.22972E-003	0.00000E+000	3.70030E-001	0.00000E+000	10	...........	1583.25
	238	2.38	7.20550E-001	1.22971E-003	0.00000E+000	3.70030E-001	0.00000E+000	10	...........	1583.25
	239	2.39	7.22378E-001	1.22974E-003	0.00000E+000	3.70030E-001	0.00000E+000	10	...........	1583.25
	240	2.4	7.24209E-001	1.22966E-003	0.00000E+000	3.70030E-001	0.00000E+000	10	...........	1583.25
	241	2.41	7.26023E-001	1.22969E-003	0.00000E+000	3.70030E-001	0.00000E+000	10	...........	1583.25
	242	2.42	7.27848E-001	1.22963E-003	0.00000E+000	3.70030E-001	0.00000E+000	10	...........	1583.25
	243	2.43	7.29668E-001	1.22968E-003	0.00000E+000	3.70030E-001	0.00000E+000	10	...........	1583.25
	244	2.44	7.31493E-001	1.22964E-003	0.00000E+000	3.70030E-001	0.00000E+000	10	...........	1583.25
	245	2.45	7.33285E-001	1.22968E-003	0.00000E+000	3.70030E-001	0.00000E+000	10	...........	1583.25
	246	2.46	7.35092E-001	1.22973E-003	0.00000E+000	3.70030E-001	0.00000E+000	10	...........	1583.25
	247	2.47	7.36877E-001	1.22970E-003	0.00000E+000	3.70030E-001	0.00000E+000	10	...........	1583.25
	248	2.48	7.38691E-001	1.22970E-003	0.00000E+000	3.70030E-001	0.00000E+000	10	...........	1583.25
	249	2.49	7.40460E-001	1.22971E-003	0.00000E+000	3.70030E-001	0.00000E+000	10	...........	1583.25
	250	2.5	7.42244E-001	1.22971E-003	0.00000E+000	3.70030E-001	0.00000E+000	10	...........	1583.25
	251	2.51	7.44050E-001	1.22971E-003	0.00000E+000	3.70030E-001	0.00000E+000	10	...........	1583.25
	252	2.52	7.45809E-001	1.22973E-003	0.00000E+000	3.70030E-001	0.00000E+000	10	...........	1583.25
	253	2.53	7.47590E-001	1.22974E-003	0.00000E+000	3.70030E-001	0.00000E+000	10	...........	1583.25
	254	2.54	7.49355E-001	1.22967E-003	0.00000E+000	3.70030E-001	0.00000E+000	10	...........	1583.25
	255	2.55	7.51085E-001	1.22975E-003	0.00000E+000	3.70030E-001	0.00000E+000	10	...........	1583.25
	256	2.56	7.52841E-001	1.22971E-003	0.00000E+000	3.70030E-001	0.00000E+000	10	...........	1583.25
	257	2.57	7.54563E-001	1.22974E-003	0.00000E+000	3.70030E-001	0.00000E+000	10	...........	1583.25
	258	2.58	7.56344E-001	1.22976E-003	0.00000E+000	3.70030E-001	0.00000E+000	10	...........	1583.25
	259	2.59	7.58063E-001	1.22975E-003	0.00000E+000	3.70030E-001	0.00000E+000	10	...........	1583.25
	260	2.6	7.59770E-001	1.22968E-003	0.00000E+000	3.70030E-001	0.00000E+000	10	...........	1583.25
	261	2.61	7.61494E-001	1.22976E-003	0.00000E+000	3.70030E-001	0.00000E+000	10	...........	1583.25
	262	2.62	7.63196E-001	1.22973E-003	0.00000E+000	3.70030E-001	0.00000E+000	10	...........	1583.25
	263	2.63	7.64901E-001	1.22970E-003	0.00000E+000	3.70030E-001	0.00000E+000	10	...........	1583.25
	264	2.64	7.66607E-001	1.22972E-003	0.00000E+000	3.70030E-001	0.00000E+000	10	...........	1583.25
	265	2.65	7.68304E-001	1.22973E-003	0.00000E+000	3.70030E-001	0.00000E+000	10	...........	1583.25
	266	2.66	7.70017E-001	1.22973E-003	0.00000E+000	3.70030E-001	0.00000E+000	10	...........	1583.25
	267	2.67	7.71695E-001	1.22967E-003	0.00000E+000	3.70030E-001	0.00000E+000	10	...........	1583.25
	268	2.68	7.73374E-001	1.22980E-003	0.00000E+000	3.70030E-001	0.00000E+000	10	...........	1583.25
	269	2.69	7.75056E-001	1.22974E-003	0.00000E+000	3.70030E-001	0.00000E+000	10	...........	1583.25
	270	2.7	7.76700E-001	1.22970E-003	0.00000E+000	3.70030E-001	0.00000E+000	10	...........	1583.25
	271	2.71	7.78339E-001	1.22973E-003	0.00000E+000	3.70030E-001	0.00000E+000	10	...........	1583.25
	272	2.72	7.79979E-001	1.22974E-003	0.00000E+000	3.70030E-001	0.00000E+000	10	...........	1583.25
	273	2.73	7.81645E-001	1.22974E-003	0.00000E+000	3.70030E-001	0.00000E+000	10	...........	1583.25
	274	2.74	7.83292E-001	1.22972E-003	0.00000E+000	3.70030E-001	0.00000E+000	10	...........	1583.25
	275	2.75	7.84900E-001	1.22974E-003	0.00000E+000	3.70030E-001	0.00000E+000	10	...........	1583.25
	276	2.76	7.86525E-001	1.22977E-003	0.00000E+000	3.70030E-001	0.00000E+000	10	...........	1583.25
	277	2.77	7.88160E-001	1.22976E-003	0.00000E+000	3.70030E-001	0.00000E+000	10	...........	1583.25
	278	2.78	7.89731E-001	1.22969E-003	0.00000E+000	3.70030E-001	0.00000E+000	10	...........	1583.25
	279	2.79	7.91316E-001	1.22971E-003	0.00000E+000	3.70030E-001	0.00000E+000	10	...........	1583.25
	280	2.8	7.92918E-001	1.22973E-003	0.00000E+000	3.70030E-001	0.00000E+000	10	...........	1583.25
	281	2.81	7.94501E-001	1.22970E-003	0.00000E+000	3.70030E-001	0.00000E+000	10	...........	1583.25
	282	2.82	7.96089E-001	1.22973E-003	0.00000E+000	3.70030E-001	0.00000E+000	10	...........	1583.25
	283	2.83	7.97663E-001	1.22971E-003	0.00000E+000	3.70030E-001	0.00000E+000	10	...........	1583.25
	284	2.84	7.99219E-001	1.22968E-003	0.00000E+000	3.70030E-001	0.00000E+000	10	...........	1583.25
	285	2.85	8.00766E-001	1.22971E-003	0.00000E+000	3.70030E-001	0.00000E+000	10	...........	1583.25
	286	2.86	8.02335E-001	1.22976E-003	0.00000E+000	3.70030E-001	0.00000E+000	10	...........	1583.25
	287	2.87	8.03871E-001	1.22977E-003	0.00000E+000	3.70030E-001	0.00000E+000	10	...........	1583.25
	288	2.88	7.80371E-001	-1.22974E-003	0.00000E+000	-3.70030E-001	0.00000E+000	10	...........	1583.25
	289	2.89	7.75890E-001	-1.22980E-003	0.00000E+000	-3.70030E-001	0.00000E+000	10	...........	1583.25
	290	2.9	7.72105E-001	-1.22981E-003	0.00000E+000	-3.70030E-001	0.00000E+000	10	...........	1583.25
	291	2.91	7.68646E-001	-1.22984E-003	0.00000E+000	-3.70030E-001	0.00000E+000	10	...........	1583.25
	292	2.92	7.65366E-001	-1.22988E-003	0.00000E+000	-3.70030E-001	0.00000E+000	10	...........	1583.25
	293	2.93	7.62219E-001	-1.22988E-003	0.00000E+000	-3.70030E-001	0.00000E+000	10	...........	1583.25
	294	2.94	7.59197E-001	-1.22989E-003	0.00000E+000	-3.70030E-001	0.00000E+000	10	...........	1582.96
	295	2.95	7.56259E-001	-1.22988E-003	0.00000E+000	-3.70030E-001	0.00000E+000	10	...........	1582.96
	296	2.96	7.53358E-001	-1.22993E-003	0.00000E+000	-3.70030E-001	0.00000E+000	10	...........	1582.96
	297	2.97	7.50511E-001	-1.22996E-003	0.00000E+000	-3.70030E-001	0.00000E+000	10	...........	1582.96
	298	2.98	7.47706E-001	-1.22996E-003	0.00000E+000	-3.70030E-001	0.00000E+000	10	...........	1582.96
	299	2.99	7.44955E-001	-1.22999E-003	0.00000E+000	-3.70030E-001	0.00000E+000	10	...........	1582.96
	300	3	7.42210E-001	-1.22995E-003	0.00000E+000	-3.70030E-001	0.00000E+000	10	...........	1582.96
	301	3.01	7.39515E-001	-1.23000E-003	0.00000E+000	-3.70030E-001	0.00000E+000	10	...........	1582.96
	302	3.02	7.36847E-001	-1.23000E-003	0.00000E+000	-3.70030E-001	0.00000E+000	10	...........	1582.96
	303	3.03	7.34199E-001	-1.22998E-003	0.00000E+000	-3.70030E-001	0.00000E+000	10	...........	1582.96
	304	3.04	7.31576E-001	-1.22998E-003	0.00000E+000	-3.70030E-001	0.00000E+000	10	...........	1582.96
	305	3.05	7.28946E-001	-1.22994E-003	0.00000E+000	-3.70030E-001	0.00000E+000	10	...........	1582.96
	306	3.06	7.26340E-001	-1.23005E-003	0.00000E+000	-3.70030E-001	0.00000E+000	10	...........	1582.96
	307	3.07	7.23753E-001	-1.23007E-003	0.00000E+000	-3.70030E-001	0.00000E+000	10	...........	1582.96
	308	3.08	7.21184E-001	-1.23006E-003	0.00000E+000	-3.70030E-001	0.00000E+000	10	...........	1582.96
	309	3.09	7.18627E-001	-1.23009E-003	0.00000E+000	-3.70030E-001	0.00000E+000	10	...........	1582.96
	310	3.1	7.16043E-001	-1.23004E-003	0.00000E+000	-3.70030E-001	0.00000E+000	10	...........	1582.96
	311	3.11	7.13521E-001	-1.23006E-003	0.00000E+000	-3.70030E-001	0.00000E+000	10	...........	1582.96
	312	3.12	7.10993E-001	-1.23006E-003	0.00000E+000	-3.70030E-001	0.00000E+000	10	...........	1582.96
	313	3.13	7.08470E-001	-1.23001E-003	0.00000E+000	-3.70030E-001	0.00000E+000	10	...........	1582.96
	314	3.14	7.05977E-001	-1.23006E-003	0.00000E+000	-3.70030E-001	0.00000E+000	10	...........	1582.96
	315	3.15	7.03453E-001	-1.23004E-003	0.00000E+000	-3.70030E-001	0.00000E+000	10	...........	1582.96
	316	3.16	7.00971E-001	-1.23007E-003	0.00000E+000	-3.70030E-001	0.00000E+000	10	...........	1582.96
	317	3.17	6.98479E-001	-1.23001E-003	0.00000E+000	-3.70030E-001	0.00000E+000	10	...........	1582.96
	318	3.18	6.95984E-001	-1.23007E-003	0.00000E+000	-3.70030E-001	0.00000E+000	10	...........	1582.96
	319	3.19	6.93522E-001	-1.23010E-003	0.00000E+000	-3.70030E-001	0.00000E+000	10	...........	1582.96
	320	3.2	6.91027E-001	-1.23006E-003	0.00000E+000	-3.70030E-001	0.00000E+000	10	...........	1582.96
	321	3.21	6.88551E-001	-1.23000E-003	0.00000E+000	-3.70030E-001	0.00000E+000	10	...........	1582.96
	322	3.22	6.86092E-001	-1.23004E-003	0.00000E+000	-3.70030E-001	0.00000E+000	10	...........	1582.96
	323	3.23	6.83638E-001	-1.23005E-003	0.00000E+000	-3.70030E-001	0.00000E+000	10	...........	1582.96
	324	3.24	6.81183E-001	-1.23005E-003	0.00000E+000	-3.70030E-001	0.00000E+000	10	...........	1582.96
	325	3.25	6.78746E-001	-1.23001E-003	0.00000E+000	-3.70030E-001	0.00000E+000	10	...........	1582.96
	326	3.26	6.76289E-001	-1.23001E-003	0.00000E+000	-3.70030E-001	0.00000E+000	10	...........	1582.96
	327	3.27	6.73871E-001	-1.23001E-003	0.00000E+000	-3.70030E-001	0.00000E+000	10	...........	1582.96
	328	3.28	6.71428E-001	-1.22999E-003	0.00000E+000	-3.70030E-001	0.00000E+000	10	...........	1582.96
	329	3.29	6.68993E-001	-1.23004E-003	0.00000E+000	-3.70030E-001	0.00000E+000	10	...........	1582.96
	330	3.3	6.66581E-001	-1.23002E-003	0.00000E+000	-3.70030E-001	0.00000E+000	10	...........	1582.96
	331	3.31	6.64148E-001	-1.23002E-003	0.00000E+000	-3.70030E-001	0.00000E+000	10	...........	1582.96
	332	3.32	6.61726E-001	-1.23005E-003	0.00000E+000	-3.70030E-001	0.00000E+000	10	...........	1582.96
	333	3.33	6.59328E-001	-1.23002E-003	0.00000E+000	-3.70030E-001	0.00000E+000	10	...........	1582.96
	334	3.34	6.56922E-001	-1.23004E-003	0.00000E+000	-3.70030E-001	0.00000E+000	10	...........	1582.96
	335	3.35	6.54515E-001	-1.23003E-003	0.00000E+000	-3.70030E-001	0.00000E+000	10	...........	1582.96
	336	3.36	6.52090E-001	-1.23004E-003	0.00000E+000	-3.70030E-001	0.00000E+000	10	...........	1582.96
	337	3.37	6.49705E-001	-1.23005E-003	0.00000E+000	-3.70030E-001	0.00000E+000	10	...........	1582.96
	338	3.38	6.47314E-001	-1.23006E-003	0.00000E+000	-3.70030E-001	0.00000E+000	10	...........	1582.96
	339	3.39	6.44928E-001	-1.22998E-003	0.00000E+000	-3.70030E-001	0.00000E+000	10	...........	1582.96
	340	3.4	6.42551E-001	-1.23002E-003	0.00000E+000	-3.70030E-001	0.00000E+000	10	...........	1582.96
	341	3.41	6.40150E-001	-1.23004E-003	0.00000E+000	-3.70030E-001	0.00000E+000	10	...........	1582.96
	342	3.42	6.37754E-001	-1.23004E-003	0.00000E+000	-3.70030E-001	0.00000E+000	10	...........	1582.96
	343	3.43	6.35388E-001	-1.23003E-003	0.00000E+000	-3.70030E-001	0.00000E+000	10	...........	1582.96
	344	3.44	6.33006E-001	-1.23006E-003	0.00000E+000	-3.70030E-001	0.00000E+000	10	...........	1582.96
	345	3.45	6.30644E-001	-1.23004E-003	0.00000E+000	-3.70030E-001	0.00000E+000	10	...........	1582.96
	346	3.46	6.28288E-001	-1.23005E-003	0.00000E+000	-3.70030E-001	0.00000E+000	10	...........	1582.96
	347	3.47	6.25917E-001	-1.23001E-003	0.00000E+000	-3.70030E-001	0.00000E+000	10	...........	1582.96
	348	3.48	6.23544E-001	-1.23006E-003	0.00000E+000	-3.70030E-001	0.00000E+000	10	...........	1582.96
	349	3.49	6.21187E-001	-1.23005E-003	0.00000E+000	-3.70030E-001	0.00000E+000	10	...........	1582.96
	350	3.5	6.18834E-001	-1.23012E-003	0.00000E+000	-3.70030E-001	0.00000E+000	10	...........	1582.96
	351	3.51	6.16470E-001	-1.23009E-003	0.00000E+000	-3.70030E-001	0.00000E+000	10	...........	1582.96
	352	3.52	6.14103E-001	-1.23009E-003	0.00000E+000	-3.70030E-001	0.00000E+000	10	...........	1582.96
	353	3.53	6.11749E-001	-1.23002E-003	0.00000E+000	-3.70030E-001	0.00000E+000	10	...........	1582.96
	354	3.54	6.09425E-001	-1.23004E-003	0.00000E+000	-3.70030E-001	0.00000E+000	10	...........	1582.96
	355	3.55	6.07079E-001	-1.23004E-003	0.00000E+000	-3.70030E-001	0.00000E+000	10	...........	1582.96
	356	3.56	6.04746E-001	-1.23003E-003	0.00000E+000	-3.70030E-001	0.00000E+000	10	...........	1582.96
	357	3.57	6.02437E-001	-1.23009E-003	0.00000E+000	-3.70030E-001	0.00000E+000	10	...........	1582.96
	358	3.58	6.00073E-001	-1.23008E-003	0.00000E+000	-3.70030E-001	0.00000E+000	10	...........	1582.96
	359	3.59	5.97750E-001	-1.23008E-003	0.00000E+000	-3.70030E-001	0.00000E+000	10	...........	1582.96
	360	3.6	5.95431E-001	-1.23006E-003	0.00000E+000	-3.70030E-001	0.00000E+000	10	...........	1582.96
	361	3.61	5.93132E-001	-1.23004E-003	0.00000E+000	-3.70030E-001	0.00000E+000	10	...........	1582.96
	362	3.62	5.90826E-001	-1.23006E-003	0.00000E+000	-3.70030E-001	0.00000E+000	10	...........	1582.96
	363	3.63	5.88478E-001	-1.23006E-003	0.00000E+000	-3.70030E-001	0.00000E+000	10	...........	1582.96
	364	3.64	5.86179E-001	-1.23008E-003	0.00000E+000	-3.70030E-001	0.00000E+000	10	...........	1582.96
	365	3.65	5.83875E-001	-1.23005E-003	0.00000E+000	-3.70030E-001	0.00000E+000	10	...........	1582.96
	366	3.66	5.81562E-001	-1.23004E-003	0.00000E+000	-3.70030E-001	0.00000E+000	10	...........	1582.96
	367	3.67	5.79294E-001	-1.23001E-003	0.00000E+000	-3.70030E-001	0.00000E+000	10	...........	1582.96
	368	3.68	5.76987E-001	-1.23005E-003	0.00000E+000	-3.70030E-001	0.00000E+000	10	...........	1582.96
	369	3.69	5.74673E-001	-1.23006E-003	0.00000E+000	-3.70030E-001	0.00000E+000	10	...........	1582.96
	370	3.7	5.72383E-001	-1.23006E-003	0.00000E+000	-3.70030E-001	0.00000E+000	10	...........	1582.96
	371	3.71	5.70092E-001	-1.23004E-003	0.00000E+000	-3.70030E-001	0.00000E+000	10	...........	1582.96
	372	3.72	5.67805E-001	-1.23008E-003	0.00000E+000	-3.70030E-001	0.00000E+000	10	...........	1582.96
	373	3.73	5.65526E-001	-1.23011E-003	0.00000E+000	-3.70030E-001	0.00000E+000	10	...........	1582.96
	374	3.74	5.63214E-001	-1.23004E-003	0.00000E+000	-3.70030E-001	0.00000E+000	10	...........	1582.96
	375	3.75	5.60945E-001	-1.23010E-003	0.00000E+000	-3.70030E-001	0.00000E+000	10	...........	1582.96
	376	3.76	5.58673E-001	-1.23009E-003	0.00000E+000	-3.70030E-001	0.00000E+000	10	...........	1582.96
	377	3.77	5.56411E-001	-1.23009E-003	0.00000E+000	-3.70030E-001	0.00000E+000	10	...........	1582.96
	378	3.78	5.54145E-001	-1.23004E-003	0.00000E+000	-3.70030E-001	0.00000E+000	10	...........	1582.96
	379	3.79	5.51906E-001	-1.23006E-003	0.00000E+000	-3.70030E-001	0.00000E+000	10	...........	1582.96
	380	3.8	5.49635E-001	-1.23004E-003	0.00000E+000	-3.70030E-001	0.00000E+000	10	...........	1582.96
	381	3.81	5.47374E-001	-1.23006E-003	0.00000E+000	-3.70030E-001	0.00000E+000	10	...........	1582.96
	382	3.82	5.45118E-001	-1.23006E-003	0.00000E+000	-3.70030E-001	0.00000E+000	10	...........	1582.96
	383	3.83	5.42850E-001	-1.23013E-003	0.00000E+000	-3.70030E-001	0.00000E+000	10	...........	1582.96
	384	3.84	5.40611E-001	-1.23006E-003	0.00000E+000	-3.70030E-001	0.00000E+000	10	...........	1582.96
	385	3.85	5.38381E-001	-1.23003E-003	0.00000E+000	-3.70030E-001	0.00000E+000	10	...........	1582.96
	386	3.86	5.36110E-001	-1.23007E-003	0.00000E+000	-3.70030E-001	0.00000E+000	10	...........	1582.96
	387	3.87	5.33874E-001	-1.23010E-003	0.00000E+000	-3.70030E-001	0.00000E+000	10	...........	1582.96
	388	3.88	5.31631E-001	-1.23014E-003	0.00000E+000	-3.70030E-001	0.00000E+000	10	...........	1582.96
	389	3.89	5.29404E-001	-1.23011E-003	0.00000E+000	-3.70030E-001	0.00000E+000	10	...........	1582.96
	390	3.9	5.27180E-001	-1.23007E-003	0.00000E+000	-3.70030E-001	0.00000E+000	10	...........	1582.96
	391	3.91	5.24962E-001	-1.23009E-003	0.00000E+000	-3.70030E-001	0.00000E+000	10	...........	1582.96
	392	3.92	5.22718E-001	-1.23009E-003	0.00000E+000	-3.70030E-001	0.00000E+000	10	...........	1582.96
	393	3.93	5.20479E-001	-1.23009E-003	0.00000E+000	-3.70030E-001	0.00000E+000	10	...........	1582.96
	394	3.94	5.18256E-001	-1.23011E-003	0.00000E+000	-3.70030E-001	0.00000E+000	10	...........	1582.96
	395	3.95	5.16071E-001	-1.23012E-003	0.00000E+000	-3.70030E-001	0.00000E+000	10	...........	1582.96
	396	3.96	5.13853E-001	-1.23009E-003	0.00000E+000	-3.70030E-001	0.00000E+000	10	...........	1582.96
	397	3.97	5.11600E-001	-1.23013E-003	0.00000E+000	-3.70030E-001	0.00000E+000	10	...........	1582.96
	398	3.98	5.09406E-001	-1.23011E-003	0.00000E+000	-3.70030E-001	0.00000E+000	10	...........	1582.96
	399	3.99	5.07202E-001	-1.23013E-003	0.00000E+000	-3.70030E-001	0.00000E+000	10	...........	1582.96
	400	4	5.05009E-001	-1.23011E-003	0.00000E+000	-3.70030E-001	0.00000E+000	10	...........	1582.96
	401	4.01	5.02822E-001	-1.23010E-003	0.00000E+000	-3.70030E-001	0.00000E+000	10	...........	1582.96
	402	4.02	5.00623E-001	-1.23010E-003	0.00000E+000	-3.70030E-001	0.00000E+000	10	...........	1582.96
	403	4.03	4.98410E-001	-1.23009E-003	0.00000E+000	-3.70030E-001	0.00000E+000	10	...........	1582.96
	404	4.04	4.96233E-001	-1.23007E-003	0.00000E+000	-3.70030E-001	0.00000E+000	10	...........	1582.96
	405	4.05	4.94037E-001	-1.23008E-003	0.00000E+000	-3.70030E-001	0.00000E+000	10	...........	1582.96
	406	4.06	4.91862E-001	-1.23006E-003	0.00000E+000	-3.70030E-001	0.00000E+000	10	...........	1582.96
	407	4.07	4.89676E-001	-1.23005E-003	0.00000E+000	-3.70030E-001	0.00000E+000	10	...........	1582.96
	408	4.08	4.87506E-001	-1.23002E-003	0.00000E+000	-3.70030E-001	0.00000E+000	10	...........	1582.96
	409	4.09	4.85292E-001	-1.23008E-003	0.00000E+000	-3.70030E-001	0.00000E+000	10	...........	1582.96
	410	4.1	4.83121E-001	-1.23008E-003	0.00000E+000	-3.70030E-001	0.00000E+000	10	...........	1582.96
	411	4.11	4.80949E-001	-1.23008E-003	0.00000E+000	-3.70030E-001	0.00000E+000	10	...........	1582.96
	412	4.12	4.78777E-001	-1.23008E-003	0.00000E+000	-3.70030E-001	0.00000E+000	10	...........	1582.96
	413	4.13	4.76609E-001	-1.23006E-003	0.00000E+000	-3.70030E-001	0.00000E+000	10	...........	1582.96
	414	4.14	4.74460E-001	-1.23005E-003	0.00000E+000	-3.70030E-001	0.00000E+000	10	...........	1582.96
	415	4.15	4.72279E-001	-1.23004E-003	0.00000E+000	-3.70030E-001	0.00000E+000	10	...........	1582.96
	416	4.16	4.70138E-001	-1.23002E-003	0.00000E+000	-3.70030E-001	0.00000E+000	10	...........	1582.96
	417	4.17	4.67992E-001	-1.23008E-003	0.00000E+000	-3.70030E-001	0.00000E+000	10	...........	1582.96
	418	4.18	4.65830E-001	-1.23004E-003	0.00000E+000	-3.70030E-001	0.00000E+000	10	...........	1582.96
	419	4.19	4.63697E-001	-1.23007E-003	0.00000E+000	-3.70030E-001	0.00000E+000	10	...........	1582.96
	420	4.2	4.61557E-001	-1.23003E-003	0.00000E+000	-3.70030E-001	0.00000E+000	10	...........	1582.96
	421	4.21	4.59391E-001	-1.23000E-003	0.00000E+000	-3.70030E-001	0.00000E+000	10	...........	1582.96
	422	4.22	4.57250E-001	-1.23000E-003	0.00000E+000	-3.70030E-001	0.00000E+000	10	...........	1582.96
	423	4.23	4.55117E-001	-1.22998E-003	0.00000E+000	-3.70030E-001	0.00000E+000	10	...........	1582.96
	424	4.24	4.52977E-001	-1.23002E-003	0.00000E+000	-3.70030E-001	0.00000E+000	10	...........	1582.96
	425	4.25	4.50830E-001	-1.23005E-003	0.00000E+000	-3.70030E-001	0.00000E+000	10	...........	1582.96
	426	4.26	4.48705E-001	-1.23009E-003	0.00000E+000	-3.70030E-001	0.00000E+000	10	...........	1582.96
	427	4.27	4.46559E-001	-1.23009E-003	0.00000E+000	-3.70030E-001	0.00000E+000	10	...........	1582.96
	428	4.28	4.44426E-001	-1.23007E-003	0.00000E+000	-3.70030E-001	0.00000E+000	10	...........	1582.96
	429	4.29	4.42325E-001	-1.23006E-003	0.00000E+000	-3.70030E-001	0.00000E+000	10	...........	1582.96
	430	4.3	4.40190E-001	-1.23005E-003	0.00000E+000	-3.70030E-001	0.00000E+000	10	...........	1582.96
	431	4.31	4.38072E-001	-1.23007E-003	0.00000E+000	-3.70030E-001	0.00000E+000	10	...........	1582.96
	432	4.32	4.35966E-001	-1.23007E-003	0.00000E+000	-3.70030E-001	0.00000E+000	10	...........	1582.96
	433	4.33	4.33816E-001	-1.23002E-003	0.00000E+000	-3.70030E-001	0.00000E+000	10	...........	1582.96
	434	4.34	4.31707E-001	-1.23007E-003	0.00000E+000	-3.70030E-001	0.00000E+000	10	...........	1582.96
	435	4.35	4.29607E-001	-1.23004E-003	0.00000E+000	-3.70030E-001	0.00000E+000	10	...........	1582.96
	436	4.36	4.27499E-001	-1.23005E-003	0.00000E+000	-3.70030E-001	0.00000E+000	10	...........	1582.96
	437	4.37	4.25402E-001	-1.23003E-003	0.00000E+000	-3.70030E-001	0.00000E+000	10	...........	1582.96
	438	4.38	4.23306E-001	-1.23005E-003	0.00000E+000	-3.70030E-001	0.00000E+000	10	...........	1582.96
	439	4.39	4.21176E-001	-1.23004E-003	0.00000E+000	-3.70030E-001	0.00000E+000	10	...........	1582.96
	440	4.4	4.19082E-001	-1.23003E-003	0.00000E+000	-3.70030E-001	0.00000E+000	10	...........	1582.96
	441	4.41	4.17005E-001	-1.23005E-003	0.00000E+000	-3.70030E-001	0.00000E+000	10	...........	1582.96
	442	4.42	4.14905E-001	-1.23006E-003	0.00000E+000	-3.70030E-001	0.00000E+000	10	...........	1582.96
	443	4.43	4.12825E-001	-1.23007E-003	0.00000E+000	-3.70030E-001	0.00000E+000	10	...........	1582.96
	444	4.44	4.10731E-001	-1.23003E-003	0.00000E+000	-3.70030E-001	0.00000E+000	10	...........	1582.96
	445	4.45	4.08619E-001	-1.23003E-003	0.00000E+000	-3.70030E-001	0.00000E+000	10	...........	1582.96
	446	4.46	4.06546E-001	-1.23004E-003	0.00000E+000	-3.70030E-001	0.00000E+000	10	...........	1582.96
	447	4.47	4.04459E-001	-1.23003E-003	0.00000E+000	-3.70030E-001	0.00000E+000	10	...........	1582.96
	448	4.48	4.02386E-001	-1.23004E-003	0.00000E+000	-3.70030E-001	0.00000E+000	10	...........	1582.96
	449	4.49	4.00321E-001	-1.23002E-003	0.00000E+000	-3.70030E-001	0.00000E+000	10	...........	1582.96
	450	4.5	3.98234E-001	-1.23004E-003	0.00000E+000	-3.70030E-001	0.00000E+000	10	...........	1582.96
	451	4.51	3.96138E-001	-1.23007E-003	0.00000E+000	-3.70030E-001	0.00000E+000	10	...........	1582.96
	452	4.52	3.94088E-001	-1.23008E-003	0.00000E+000	-3.70030E-001	0.00000E+000	10	...........	1582.96
	453	4.53	3.92012E-001	-1.23004E-003	0.00000E+000	-3.70030E-001	0.00000E+000	10	...........	1582.96
	454	4.54	3.89937E-001	-1.23008E-003	0.00000E+000	-3.70030E-001	0.00000E+000	10	...........	1582.96
	455	4.55	3.87891E-001	-1.23007E-003	0.00000E+000	-3.70030E-001	0.00000E+000	10	...........	1582.96
	456	4.56	3.85845E-001	-1.23003E-003	0.00000E+000	-3.70030E-001	0.00000E+000	10	...........	1582.96
	457	4.57	3.83741E-001	-1.23005E-003	0.00000E+000	-3.70030E-001	0.00000E+000	10	...........	1582.96
	458	4.58	3.81688E-001	-1.23006E-003	0.00000E+000	-3.70030E-001	0.00000E+000	10	...........	1582.96
	459	4.59	3.79636E-001	-1.23004E-003	0.00000E+000	-3.70030E-001	0.00000E+000	10	...........	1582.96
	460	4.6	3.77588E-001	-1.23002E-003	0.00000E+000	-3.70030E-001	0.00000E+000	10	...........	1582.96
	461	4.61	3.75527E-001	-1.23005E-003	0.00000E+000	-3.70030E-001	0.00000E+000	10	...........	1582.96
	462	4.62	3.73486E-001	-1.23003E-003	0.00000E+000	-3.70030E-001	0.00000E+000	10	...........	1582.96
	463	4.63	3.71449E-001	-1.23005E-003	0.00000E+000	-3.70030E-001	0.00000E+000	10	...........	1582.96
	464	4.64	3.69392E-001	-1.22999E-003	0.00000E+000	-3.70030E-001	0.00000E+000	10	...........	1582.96
	465	4.65	3.67343E-001	-1.23001E-003	0.00000E+000	-3.70030E-001	0.00000E+000	10	...........	1582.96
	466	4.66	3.65311E-001	-1.22998E-003	0.00000E+000	-3.70030E-001	0.00000E+000	10	...........	1582.96
	467	4.67	3.63255E-001	-1.23005E-003	0.00000E+000	-3.70030E-001	0.00000E+000	10	...........	1582.96
	468	4.68	3.61219E-001	-1.23001E-003	0.00000E+000	-3.70030E-001	0.00000E+000	10	...........	1582.96
	469	4.69	3.59191E-001	-1.23001E-003	0.00000E+000	-3.70030E-001	0.00000E+000	10	...........	1582.96
	470	4.7	3.57123E-001	-1.23006E-003	0.00000E+000	-3.70030E-001	0.00000E+000	10	...........	1582.96
	471	4.71	3.55090E-001	-1.23001E-003	0.00000E+000	-3.70030E-001	0.00000E+000	10	...........	1582.96
	472	4.72	3.53075E-001	-1.23001E-003	0.00000E+000	-3.70030E-001	0.00000E+000	10	...........	1582.96
	473	4.73	3.51043E-001	-1.23001E-003	0.00000E+000	-3.70030E-001	0.00000E+000	10	...........	1582.96
	474	4.74	3.49036E-001	-1.23001E-003	0.00000E+000	-3.70030E-001	0.00000E+000	10	...........	1582.96
	475	4.75	3.47006E-001	-1.23001E-003	0.00000E+000	-3.70030E-001	0.00000E+000	10	...........	1582.96
	476	4.76	3.44950E-001	-1.23002E-003	0.00000E+000	-3.70030E-001	0.00000E+000	10	...........	1582.96
	477	4.77	3.42960E-001	-1.23004E-003	0.00000E+000	-3.70030E-001	0.00000E+000	10	...........	1582.96
	478	4.78	3.40923E-001	-1.23001E-003	0.00000E+000	-3.70030E-001	0.00000E+000	10	...........	1582.96
	479	4.79	3.38921E-001	-1.23003E-003	0.00000E+000	-3.70030E-001	0.00000E+000	10	...........	1582.96
	480	4.8	3.36921E-001	-1.23002E-003	0.00000E+000	-3.70030E-001	0.00000E+000	10	...........	1582.96
	481	4.81	3.34900E-001	-1.23003E-003	0.00000E+000	-3.70030E-001	0.00000E+000	10	...........	1582.96
	482	4.82	3.32889E-001	-1.23001E-003	0.00000E+000	-3.70030E-001	0.00000E+000	10	...........	1582.96
	483	4.83	3.30884E-001	-1.23002E-003	0.00000E+000	-3.70030E-001	0.00000E+000	10	...........	1582.96
	484	4.84	3.28878E-001	-1.23005E-003	0.00000E+000	-3.70030E-001	0.00000E+000	10	...........	1582.96
	485	4.85	3.26872E-001	-1.23002E-003	0.00000E+000	-3.70030E-001	0.00000E+000	10	...........	1582.96
	486	4.86	3.24839E-001	-1.23012E-003	0.00000E+000	-3.70030E-001	0.00000E+000	10	...........	1582.96
	487	4.87	3.22865E-001	-1.23008E-003	0.00000E+000	-3.70030E-001	0.00000E+000	10	...........	1582.96
	488	4.88	3.20866E-001	-1.23012E-003	0.00000E+000	-3.70030E-001	0.00000E+000	10	...........	1582.96
	489	4.89	3.18847E-001	-1.23009E-003	0.00000E+000	-3.70030E-001	0.00000E+000	10	...........	1582.96
	490	4.9	3.16856E-001	-1.23004E-003	0.00000E+000	-3.70030E-001	0.00000E+000	10	...........	1582.96
	491	4.91	3.14881E-001	-1.23009E-003	0.00000E+000	-3.70030E-001	0.00000E+000	10	...........	1582.96
	492	4.92	3.12887E-001	-1.23009E-003	0.00000E+000	-3.70030E-001	0.00000E+000	10	...........	1582.96
	493	4.93	3.10891E-001	-1.23006E-003	0.00000E+000	-3.70030E-001	0.00000E+000	10	...........	1582.96
	494	4.94	3.08918E-001	-1.23006E-003	0.00000E+000	-3.70030E-001	0.00000E+000	10	...........	1583.05
	495	4.95	3.06896E-001	-1.23006E-003	0.00000E+000	-3.70030E-001	0.00000E+000	10	...........	1583.05
	496	4.96	3.04922E-001	-1.23004E-003	0.00000E+000	-3.70030E-001	0.00000E+000	10	...........	1583.05
	497	4.97	3.02941E-001	-1.23004E-003	0.00000E+000	-3.70030E-001	0.00000E+000	10	...........	1583.05
	498	4.98	3.00968E-001	-1.23004E-003	0.00000E+000	-3.70030E-001	0.00000E+000	10	...........	1583.05
	499	4.99	2.98977E-001	-1.23008E-003	0.00000E+000	-3.70030E-001	0.00000E+000	10	...........	1583.05
	500	5	2.96999E-001	-1.23010E-003	0.00000E+000	-3.70030E-001	0.00000E+000	10	...........	1583.05
	501	5.01	2.95028E-001	-1.23004E-003	0.00000E+000	-3.70030E-001	0.00000E+000	10	...........	1583.05
	502	5.02	2.93038E-001	-1.23007E-003	0.00000E+000	-3.70030E-001	0.00000E+000	10	...........	1583.05
	503	5.03	2.91071E-001	-1.23006E-003	0.00000E+000	-3.70030E-001	0.00000E+000	10	...........	1583.05
	504	5.04	2.89122E-001	-1.23003E-003	0.00000E+000	-3.70030E-001	0.00000E+000	10	...........	1583.05
	505	5.05	2.87150E-001	-1.23003E-003	0.00000E+000	-3.70030E-001	0.00000E+000	10	...........	1583.05
	506	5.06	2.85182E-001	-1.23006E-003	0.00000E+000	-3.70030E-001	0.00000E+000	10	...........	1583.05
	507	5.07	2.83209E-001	-1.23009E-003	0.00000E+000	-3.70030E-001	0.00000E+000	10	...........	1583.05
	508	5.08	2.81209E-001	-1.23009E-003	0.00000E+000	-3.70030E-001	0.00000E+000	10	...........	1583.05
	509	5.09	2.79256E-001	-1.23007E-003	0.00000E+000	-3.70030E-001	0.00000E+000	10	...........	1583.05
	510	5.1	2.77323E-001	-1.23005E-003	0.00000E+000	-3.70030E-001	0.00000E+000	10	...........	1583.05
	511	5.11	2.75381E-001	-1.23006E-003	0.00000E+000	-3.70030E-001	0.00000E+000	10	...........	1583.05
	512	5.12	2.73410E-001	-1.23004E-003	0.00000E+000	-3.70030E-001	0.00000E+000	10	...........	1583.05
	513	5.13	2.71452E-001	-1.23008E-003	0.00000E+000	-3.70030E-001	0.00000E+000	10	...........	1583.05
	514	5.14	2.69526E-001	-1.23004E-003	0.00000E+000	-3.70030E-001	0.00000E+000	10	...........	1583.05
	515	5.15	2.67556E-001	-1.23005E-003	0.00000E+000	-3.70030E-001	0.00000E+000	10	...........	1583.05
	516	5.16	2.65602E-001	-1.23006E-003	0.00000E+000	-3.70030E-001	0.00000E+000	10	...........	1583.05
	517	5.17	2.63669E-001	-1.23006E-003	0.00000E+000	-3.70030E-001	0.00000E+000	10	...........	1583.05
	518	5.18	2.61716E-001	-1.23004E-003	0.00000E+000	-3.70030E-001	0.00000E+000	10	...........	1583.05
	519	5.19	2.59792E-001	-1.23004E-003	0.00000E+000	-3.70030E-001	0.00000E+000	10	...........	1583.05
	520	5.2	2.57841E-001	-1.23005E-003	0.00000E+000	-3.70030E-001	0.00000E+000	10	...........	1583.05
	521	5.21	2.55894E-001	-1.23011E-003	0.00000E+000	-3.70030E-001	0.00000E+000	10	...........	1583.05
	522	5.22	2.53955E-001	-1.23010E-003	0.00000E+000	-3.70030E-001	0.00000E+000	10	...........	1583.05
	523	5.23	2.52026E-001	-1.23008E-003	0.00000E+000	-3.70030E-001	0.00000E+000	10	...........	1583.05
	524	5.24	2.50096E-001	-1.23008E-003	0.00000E+000	-3.70030E-001	0.00000E+000	10	...........	1583.05
	525	5.25	2.48165E-001	-1.23007E-003	0.00000E+000	-3.70030E-001	0.00000E+000	10	...........	1583.05
	526	5.26	2.46231E-001	-1.23005E-003	0.00000E+000	-3.70030E-001	0.00000E+000	10	...........	1583.05
	527	5.27	2.44324E-001	-1.23008E-003	0.00000E+000	-3.70030E-001	0.00000E+000	10	...........	1583.05
	528	5.28	2.42372E-001	-1.23003E-003	0.00000E+000	-3.70030E-001	0.00000E+000	10	...........	1583.05
	529	5.29	2.40488E-001	-1.23002E-003	0.00000E+000	-3.70030E-001	0.00000E+000	10	...........	1583.05
	530	5.3	2.38574E-001	-1.23008E-003	0.00000E+000	-3.70030E-001	0.00000E+000	10	...........	1583.05
	531	5.31	2.36658E-001	-1.23012E-003	0.00000E+000	-3.70030E-001	0.00000E+000	10	...........	1583.05
	532	5.32	2.34744E-001	-1.23006E-003	0.00000E+000	-3.70030E-001	0.00000E+000	10	...........	1583.05
	533	5.33	2.32835E-001	-1.23009E-003	0.00000E+000	-3.70030E-001	0.00000E+000	10	...........	1583.05
	534	5.34	2.30931E-001	-1.23003E-003	0.00000E+000	-3.70030E-001	0.00000E+000	10	...........	1583.05
	535	5.35	2.29024E-001	-1.23006E-003	0.00000E+000	-3.70030E-001	0.00000E+000	10	...........	1583.05
	536	5.36	2.27117E-001	-1.23007E-003	0.00000E+000	-3.70030E-001	0.00000E+000	10	...........	1583.05
	537	5.37	2.25215E-001	-1.23009E-003	0.00000E+000	-3.70030E-001	0.00000E+000	10	...........	1583.05
	538	5.38	2.23321E-001	-1.23005E-003	0.00000E+000	-3.70030E-001	0.00000E+000	10	...........	1583.05
	539	5.39	2.21428E-001	-1.23006E-003	0.00000E+000	-3.70030E-001	0.00000E+000	10	...........	1583.05
	540	5.4	2.19535E-001	-1.23009E-003	0.00000E+000	-3.70030E-001	0.00000E+000	10	...........	1583.05
	541	5.41	2.17647E-001	-1.23007E-003	0.00000E+000	-3.70030E-001	0.00000E+000	10	...........	1583.05
	542	5.42	2.15758E-001	-1.23009E-003	0.00000E+000	-3.70030E-001	0.00000E+000	10	...........	1583.05
	543	5.43	2.13875E-001	-1.23010E-003	0.00000E+000	-3.70030E-001	0.00000E+000	10	...........	1583.05
	544	5.44	2.11993E-001	-1.23016E-003	0.00000E+000	-3.70030E-001	0.00000E+000	10	...........	1583.05
	545	5.45	2.10116E-001	-1.23012E-003	0.00000E+000	-3.70030E-001	0.00000E+000	10	...........	1583.05
	546	5.46	2.08240E-001	-1.23007E-003	0.00000E+000	-3.70030E-001	0.00000E+000	10	...........	1583.05
	547	5.47	2.06369E-001	-1.23011E-003	0.00000E+000	-3.70030E-001	0.00000E+000	10	...........	1583.05
	548	5.48	2.04500E-001	-1.23009E-003	0.00000E+000	-3.70030E-001	0.00000E+000	10	...........	1583.05
	549	5.49	2.02634E-001	-1.23013E-003	0.00000E+000	-3.70030E-001	0.00000E+000	10	...........	1583.05
	550	5.5	2.00772E-001	-1.23011E-003	0.00000E+000	-3.70030E-001	0.00000E+000	10	...........	1583.05
	551	5.51	1.98908E-001	-1.23007E-003	0.00000E+000	-3.70030E-001	0.00000E+000	10	...........	1583.05
	552	5.52	1.97052E-001	-1.23012E-003	0.00000E+000	-3.70030E-001	0.00000E+000	10	...........	1583.05
	553	5.53	1.95201E-001	-1.23007E-003	0.00000E+000	-3.70030E-001	0.00000E+000	10	...........	1583.05
	554	5.54	1.93349E-001	-1.23009E-003	0.00000E+000	-3.70030E-001	0.00000E+000	10	...........	1583.05
	555	5.55	1.91499E-001	-1.23013E-003	0.00000E+000	-3.70030E-001	0.00000E+000	10	...........	1583.05
	556	5.56	1.89658E-001	-1.23011E-003	0.00000E+000	-3.70030E-001	0.00000E+000	10	...........	1583.05
	557	5.57	1.87815E-001	-1.23006E-003	0.00000E+000	-3.70030E-001	0.00000E+000	10	...........	1583.05
	558	5.58	1.85982E-001	-1.23007E-003	0.00000E+000	-3.70030E-001	0.00000E+000	10	...........	1583.05
	559	5.59	1.84147E-001	-1.23010E-003	0.00000E+000	-3.70030E-001	0.00000E+000	10	...........	1583.05
	560	5.6	1.82319E-001	-1.23011E-003	0.00000E+000	-3.70030E-001	0.00000E+000	10	...........	1583.05
	561	5.61	1.80495E-001	-1.23009E-003	0.00000E+000	-3.70030E-001	0.00000E+000	10	...........	1583.05
	562	5.62	1.78670E-001	-1.23007E-003	0.00000E+000	-3.70030E-001	0.00000E+000	10	...........	1583.05
	563	5.63	1.76853E-001	-1.23006E-003	0.00000E+000	-3.70030E-001	0.00000E+000	10	...........	1583.05
	564	5.64	1.75037E-001	-1.23006E-003	0.00000E+000	-3.70030E-001	0.00000E+000	10	...........	1583.05
	565	5.65	1.73227E-001	-1.23006E-003	0.00000E+000	-3.70030E-001	0.00000E+000	10	...........	1583.05
	566	5.66	1.71422E-001	-1.23007E-003	0.00000E+000	-3.70030E-001	0.00000E+000	10	...........	1583.05
	567	5.67	1.69619E-001	-1.23001E-003	0.00000E+000	-3.70030E-001	0.00000E+000	10	...........	1583.05
	568	5.68	1.67822E-001	-1.23009E-003	0.00000E+000	-3.70030E-001	0.00000E+000	10	...........	1583.05
	569	5.69	1.66027E-001	-1.23009E-003	0.00000E+000	-3.70030E-001	0.00000E+000	10	...........	1583.05
	570	5.7	1.64237E-001	-1.23010E-003	0.00000E+000	-3.70030E-001	0.00000E+000	10	...........	1583.05
	571	5.71	1.62453E-001	-1.23008E-003	0.00000E+000	-3.70030E-001	0.00000E+000	10	...........	1583.05
	572	5.72	1.60671E-001	-1.23004E-003	0.00000E+000	-3.70030E-001	0.00000E+000	10	...........	1583.05
	573	5.73	1.58896E-001	-1.23001E-003	0.00000E+000	-3.70030E-001	0.00000E+000	10	...........	1583.05
	574	5.74	1.57120E-001	-1.23006E-003	0.00000E+000	-3.70030E-001	0.00000E+000	10	...........	1583.05
	575	5.75	1.55351E-001	-1.23010E-003	0.00000E+000	-3.70030E-001	0.00000E+000	10	...........	1583.05
	576	5.76	1.53582E-001	-1.23007E-003	0.00000E+000	-3.70030E-001	0.00000E+000	10	...........	1583.05
	577	5.77	1.51822E-001	-1.23008E-003	0.00000E+000	-3.70030E-001	0.00000E+000	10	...........	1583.05
	578	5.78	1.50065E-001	-1.23009E-003	0.00000E+000	-3.70030E-001	0.00000E+000	10	...........	1583.05
	579	5.79	1.48312E-001	-1.23002E-003	0.00000E+000	-3.70030E-001	0.00000E+000	10	...........	1583.05
	580	5.8	1.46565E-001	-1.23009E-003	0.00000E+000	-3.70030E-001	0.00000E+000	10	...........	1583.05
	581	5.81	1.44823E-001	-1.23004E-003	0.00000E+000	-3.70030E-001	0.00000E+000	10	...........	1583.05
	582	5.82	1.43081E-001	-1.23004E-003	0.00000E+000	-3.70030E-001	0.00000E+000	10	...........	1583.05
	583	5.83	1.41350E-001	-1.23002E-003	0.00000E+000	-3.70030E-001	0.00000E+000	10	...........	1583.05
	584	5.84	1.39624E-001	-1.23001E-003	0.00000E+000	-3.70030E-001	0.00000E+000	10	...........	1583.05
	585	5.85	1.37897E-001	-1.23003E-003	0.00000E+000	-3.70030E-001	0.00000E+000	10	...........	1583.05
	586	5.86	1.36179E-001	-1.23007E-003	0.00000E+000	-3.70030E-001	0.00000E+000	10	...........	1583.05
	587	5.87	1.34461E-001	-1.23006E-003	0.00000E+000	-3.70030E-001	0.00000E+000	10	...........	1583.05
	588	5.88	1.32745E-001	-1.23001E-003	0.00000E+000	-3.70030E-001	0.00000E+000	10	...........	1583.05
	589	5.89	1.31045E-001	-1.23003E-003	0.00000E+000	-3.70030E-001	0.00000E+000	10	...........	1583.05
	590	5.9	1.29342E-001	-1.23006E-003	0.00000E+000	-3.70030E-001	0.00000E+000	10	...........	1583.05
	591	5.91	1.27645E-001	-1.23002E-003	0.00000E+000	-3.70030E-001	0.00000E+000	10	...........	1583.05
	592	5.92	1.25954E-001	-1.23003E-003	0.00000E+000	-3.70030E-001	0.00000E+000	10	...........	1583.05
	593	5.93	1.24264E-001	-1.23004E-003	0.00000E+000	-3.70030E-001	0.00000E+000	10	...........	1583.05
	594	5.94	1.22579E-001	-1.23002E-003	0.00000E+000	-3.70030E-001	0.00000E+000	10	...........	1582.96
	595	5.95	1.20903E-001	-1.23002E-003	0.00000E+000	-3.70030E-001	0.00000E+000	10	...........	1582.96
	596	5.96	1.19229E-001	-1.23007E-003	0.00000E+000	-3.70030E-001	0.00000E+000	10	...........	1582.96
	597	5.97	1.17558E-001	-1.23010E-003	0.00000E+000	-3.70030E-001	0.00000E+000	10	...........	1582.96
	598	5.98	1.15893E-001	-1.23006E-003	0.00000E+000	-3.70030E-001	0.00000E+000	10	...........	1582.96
	599	5.99	1.14237E-001	-1.23005E-003	0.00000E+000	-3.70030E-001	0.00000E+000	10	...........	1582.96
	600	6	1.12583E-001	-1.23004E-003	0.00000E+000	-3.70030E-001	0.00000E+000	10	...........	1582.96
	601	6.01	1.10931E-001	-1.23004E-003	0.00000E+000	-3.70030E-001	0.00000E+000	10	...........	1582.96
	602	6.02	1.09284E-001	-1.23007E-003	0.00000E+000	-3.70030E-001	0.00000E+000	10	...........	1582.96
	603	6.03	1.07650E-001	-1.23007E-003	0.00000E+000	-3.70030E-001	0.00000E+000	10	...........	1582.96
	604	6.04	1.06014E-001	-1.23001E-003	0.00000E+000	-3.70030E-001	0.00000E+000	10	...........	1582.96
	605	6.05	1.04387E-001	-1.23005E-003	0.00000E+000	-3.70030E-001	0.00000E+000	10	...........	1582.96
	606	6.06	1.02762E-001	-1.23001E-003	0.00000E+000	-3.70030E-001	0.00000E+000	10	...........	1582.96
	607	6.07	1.01143E-001	-1.23003E-003	0.00000E+000	-3.70030E-001	0.00000E+000	10	...........	1582.96
	608	6.08	9.95302E-002	-1.23002E-003	0.00000E+000	-3.70030E-001	0.00000E+000	10	...........	1582.96
	609	6.09	9.79220E-002	-1.23002E-003	0.00000E+000	-3.70030E-001	0.00000E+000	10	...........	1582.96
	610	6.1	9.63177E-002	-1.23008E-003	0.00000E+000	-3.70030E-001	0.00000E+000	10	...........	1582.96
	611	6.11	9.47190E-002	-1.23011E-003	0.00000E+000	-3.70030E-001	0.00000E+000	10	...........	1582.96
	612	6.12	9.31205E-002	-1.23011E-003	0.00000E+000	-3.70030E-001	0.00000E+000	10	...........	1582.96
	613	6.13	9.15346E-002	-1.23007E-003	0.00000E+000	-3.70030E-001	0.00000E+000	10	...........	1582.96
	614	6.14	8.99515E-002	-1.23009E-003	0.00000E+000	-3.70030E-001	0.00000E+000	10	...........	1582.96
	615	6.15	8.83735E-002	-1.23007E-003	0.00000E+000	-3.70030E-001	0.00000E+000	10	...........	1582.96
	616	6.16	8.67952E-002	-1.23008E-003	0.00000E+000	-3.70030E-001	0.00000E+000	10	...........	1582.96
	617	6.17	8.52261E-002	-1.23011E-003	0.00000E+000	-3.70030E-001	0.00000E+000	10	...........	1582.96
	618	6.18	8.36629E-002	-1.23011E-003	0.00000E+000	-3.70030E-001	0.00000E+000	10	...........	1582.96
	619	6.19	8.21030E-002	-1.23011E-003	0.00000E+000	-3.70030E-001	0.00000E+000	10	...........	1582.96
	620	6.2	8.05503E-002	-1.23008E-003	0.00000E+000	-3.70030E-001	0.00000E+000	10	...........	1582.96
	621	6.21	7.90000E-002	-1.23012E-003	0.00000E+000	-3.70030E-001	0.00000E+000	10	...........	1582.96
	622	6.22	7.74593E-002	-1.23008E-003	0.00000E+000	-3.70030E-001	0.00000E+000	10	...........	1582.96
	623	6.23	7.59172E-002	-1.23001E-003	0.00000E+000	-3.70030E-001	0.00000E+000	10	...........	1582.96
	624	6.24	7.43867E-002	-1.23007E-003	0.00000E+000	-3.70030E-001	0.00000E+000	10	...........	1582.96
	625	6.25	7.28565E-002	-1.23008E-003	0.00000E+000	-3.70030E-001	0.00000E+000	10	...........	1582.96
	626	6.26	7.13298E-002	-1.23007E-003	0.00000E+000	-3.70030E-001	0.00000E+000	10	...........	1582.96
	627	6.27	6.98095E-002	-1.23009E-003	0.00000E+000	-3.70030E-001	0.00000E+000	10	...........	1582.96
	628	6.28	6.82960E-002	-1.23009E-003	0.00000E+000	-3.70030E-001	0.00000E+000	10	...........	1582.96
	629	6.29	6.67872E-002	-1.23004E-003	0.00000E+000	-3.70030E-001	0.00000E+000	10	...........	1582.96
	630	6.3	6.52800E-002	-1.23007E-003	0.00000E+000	-3.70030E-001	0.00000E+000	10	...........	1582.96
	631	6.31	6.37794E-002	-1.23008E-003	0.00000E+000	-3.70030E-001	0.00000E+000	10	...........	1582.96
	632	6.32	6.22852E-002	-1.23004E-003	0.00000E+000	-3.70030E-001	0.00000E+000	10	...........	1582.96
	633	6.33	6.07952E-002	-1.22999E-003	0.00000E+000	-3.70030E-001	0.00000E+000	10	...........	1582.96
	634	6.34	5.93106E-002	-1.23004E-003	0.00000E+000	-3.70030E-001	0.00000E+000	10	...........	1582.96
	635	6.35	5.78276E-002	-1.23010E-003	0.00000E+000	-3.70030E-001	0.00000E+000	10	...........	1582.96
	636	6.36	5.63520E-002	-1.23007E-003	0.00000E+000	-3.70030E-001	0.00000E+000	10	...........	1582.96
	637	6.37	5.48811E-002	-1.23008E-003	0.00000E+000	-3.70030E-001	0.00000E+000	10	...........	1582.96
	638	6.38	5.34166E-002	-1.23003E-003	0.00000E+000	-3.70030E-001	0.00000E+000	10	...........	1582.96
	639	6.39	5.19539E-002	-1.23007E-003	0.00000E+000	-3.70030E-001	0.00000E+000	10	...........	1582.96
	640	6.4	5.04981E-002	-1.23009E-003	0.00000E+000	-3.70030E-001	0.00000E+000	10	...........	1582.96
	641	6.41	4.90482E-002	-1.23002E-003	0.00000E+000	-3.70030E-001	0.00000E+000	10	...........	1582.96
	642	6.42	4.76019E-002	-1.23002E-003	0.00000E+000	-3.70030E-001	0.00000E+000	10	...........	1582.96
	643	6.43	4.61614E-002	-1.23002E-003	0.00000E+000	-3.70030E-001	0.00000E+000	10	...........	1582.96
	644	6.44	4.47193E-002	-1.23004E-003	0.00000E+000	-3.70030E-001	0.00000E+000	10	...........	1582.96
	645	6.45	4.32881E-002	-1.23006E-003	0.00000E+000	-3.70030E-001	0.00000E+000	10	...........	1582.96
	646	6.46	4.18589E-002	-1.23007E-003	0.00000E+000	-3.70030E-001	0.00000E+000	10	...........	1582.96
	647	6.47	4.04365E-002	-1.23007E-003	0.00000E+000	-3.70030E-001	0.00000E+000	10	...........	1582.96
	648	6.48	3.90170E-002	-1.23007E-003	0.00000E+000	-3.70030E-001	0.00000E+000	10	...........	1582.96
	649	6.49	3.76041E-002	-1.23009E-003	0.00000E+000	-3.70030E-001	0.00000E+000	10	...........	1582.96
	650	6.5	3.61944E-002	-1.23010E-003	0.00000E+000	-3.70030E-001	0.00000E+000	10	...........	1582.96
	651	6.51	3.47901E-002	-1.23008E-003	0.00000E+000	-3.70030E-001	0.00000E+000	10	...........	1582.96
	652	6.52	3.33899E-002	-1.23008E-003	0.00000E+000	-3.70030E-001	0.00000E+000	10	...........	1582.96
	653	6.53	3.20001E-002	-1.23006E-003	0.00000E+000	-3.70030E-001	0.00000E+000	10	...........	1582.96
	654	6.54	3.06065E-002	-1.23006E-003	0.00000E+000	-3.70030E-001	0.00000E+000	10	...........	1582.96
	655	6.55	2.92195E-002	-1.23001E-003	0.00000E+000	-3.70030E-001	0.00000E+000	10	...........	1582.96
	656	6.56	2.78376E-002	-1.23004E-003	0.00000E+000	-3.70030E-001	0.00000E+000	10	...........	1582.96
	657	6.57	2.64623E-002	-1.23004E-003	0.00000E+000	-3.70030E-001	0.00000E+000	10	...........	1582.96
	658	6.58	2.50887E-002	-1.23001E-003	0.00000E+000	-3.70030E-001	0.00000E+000	10	...........	1582.96
	659	6.59	2.37231E-002	-1.23005E-003	0.00000E+000	-3.70030E-001	0.00000E+000	10	...........	1582.96
	660	6.6	2.23624E-002	-1.23002E-003	0.00000E+000	-3.70030E-001	0.00000E+000	10	...........	1582.96
	661	6.61	2.10024E-002	-1.23005E-003	0.00000E+000	-3.70030E-001	0.00000E+000	10	...........	1582.96
	662	6.62	1.96478E-002	-1.23006E-003	0.00000E+000	-3.70030E-001	0.00000E+000	10	...........	1582.96
	663	6.63	1.82986E-002	-1.23002E-003	0.00000E+000	-3.70030E-001	0.00000E+000	10	...........	1582.96
	664	6.64	1.69526E-002	-1.23006E-003	0.00000E+000	-3.70030E-001	0.00000E+000	10	...........	1582.96
	665	6.65	1.56125E-002	-1.23009E-003	0.00000E+000	-3.70030E-001	0.00000E+000	10	...........	1582.96
	666	6.66	1.42750E-002	-1.23002E-003	0.00000E+000	-3.70030E-001	0.00000E+000	10	...........	1582.96
	667	6.67	1.29437E-002	-1.22998E-003	0.00000E+000	-3.70030E-001	0.00000E+000	10	...........	1582.96
	668	6.68	1.16160E-002	-1.23002E-003	0.00000E+000	-3.70030E-001	0.00000E+000	10	...........	1582.96
	669	6.69	1.02921E-002	-1.23003E-003	0.00000E+000	-3.70030E-001	0.00000E+000	10	...........	1582.96
	670	6.7	8.97376E-003	-1.23004E-003	0.00000E+000	-3.70030E-001	0.00000E+000	10	...........	1582.96
	671	6.71	7.65889E-003	-1.23006E-003	0.00000E+000	-3.70030E-001	0.00000E+000	10	...........	1582.96
	672	6.72	6.34999E-003	-1.22999E-003	0.00000E+000	-3.70030E-001	0.00000E+000	10	...........	1582.96
	673	6.73	5.04402E-003	-1.23005E-003	0.00000E+000	-3.70030E-001	0.00000E+000	10	...........	1582.96
	674	6.74	3.74215E-003	-1.23002E-003	0.00000E+000	-3.70030E-001	0.00000E+000	10	...........	1582.96
	675	6.75	2.44250E-003	-1.23001E-003	0.00000E+000	-3.70030E-001	0.00000E+000	10	...........	1582.96
	676	6.76	1.14674E-003	-1.23005E-003	0.00000E+000	-3.70030E-001	0.00000E+000	10	...........	1582.96
	677	6.77	-1.43445E-004	-1.23004E-003	0.00000E+000	-3.70030E-001	0.00000E+000	10	...........	1582.96
