EXPLAIN
TAG	CHRONOP
TITLE	LABEL	Chronopotentiometry Scan	Test Identifier
DATE	LABEL	23/1/2025	Date
TIME	LABEL	16:36:14	Time
NOTES	NOTES	1	Notes...
	
PSTAT	PSTAT	IFC1010-42004	Potentiostat
IPRESTEP	QUANT	0.00000E+000	Pre-step Current(A)
TPRESTEP	QUANT	0.00000E+000	Pre-step Delay Time (s)
ISTEP1	QUANT	1.23000E-003	Step 1 Current (A)
TSTEP1	QUANT	5.00000E+003	Step 1 Time (s)
ISTEP2	QUANT	-1.23000E-003	Step 2 Current (A)
TSTEP2	QUANT	5.00000E+003	Step 2 Time (s)
SAMPLETIME	QUANT	1.00000E-002	Sample Period (s)
DECIMATE	TOGGLE	F	Decimate
VLIMITLOWER	QUANT	0.00000E+000	Lower Limit V (V)
VLIMITUPPER	QUANT	8.00000E-001	Upper Limit V (V)
EQDELAY	QUANT	1.00000E+000	Equil. Time (s)
SAMPLINGMODE	SELECTOR	1	Sampling Mode
AREA	QUANT	2.00000E+000	Sample Area (cm^2)
ELECTRODETYPE	SELECTOR	0	Electrode Type
STRIPPING	TOGGLE	F	Used for Stripping
SEQUENCER	TOGGLE	TRUE	Run as Sequence
PSTATMODEL	IQUANT	64	Pstat Model
PSTATSECTION	LABEL	IFC1010-42004	Pstat Section
PSTATSERIALNO	LABEL	42004	Pstat Serial Number
CTRLMODE	IQUANT	0	Control Mode
ELECTROMETER	IQUANT	0	RE=0 or CS=1
IESTAB	IQUANT	0	I/E Stability
CASPEED	IQUANT	4	Control Amp Speed
CONVENTION	IQUANT	1	Current Convention
ICHRANGE	IQUANT	2	Ich Range
ICHRANGEMODE	TOGGLE	T	Ich Auto Range
ICHOFFSETENABLE	TOGGLE	F	Ich Offset Enable
ICHOFFSET	QUANT	0	Ich Offset (V)
ICHFILTER	IQUANT	3	Ich Filter
VCHRANGE	IQUANT	3	Vch Range
VCHRANGEMODE	TOGGLE	T	Vch Auto Range
VCHOFFSETENABLE	TOGGLE	F	Vch Offset Enable
VCHOFFSET	QUANT	0	Vch Offset (V)
VCHFILTER	IQUANT	3	Vch Filter
IERANGELOWERLIMIT	IQUANT	4	I/E Range Lower Limit
IERANGEMODE	TOGGLE	F	I/E AutoRange
IERANGE	IQUANT	11	I/E Range
ACHSELECT	IQUANT	0	Ach Select
ACHRANGE	IQUANT	2	Ach Range
ACHOFFSETENABLE	TOGGLE	F	Ach Offset Enable
ACHOFFSET	QUANT	0	Ach Offset (V)
ACHFILTER	IQUANT	1	Ach Filter
SENSECABLEID	IQUANT	14	Sense Cable ID
PWRCABLEID	IQUANT	14	Power Cable ID
DCCALDATE	LABEL	1/22/2025	DC Calibration Date
ACCALDATE	LABEL	11/15/2024	AC Calibration Date
FRAMEWORKVERSION	LABEL	7.10.4	Framework Version
INSTRUMENTVERSION	LABEL	4.91	Instrument Version
COMMVERSION	LABEL	3.10	Communications Version
CPUPLDVERSION	LABEL	2.54	CPU PLD Version
CTRLPLDVERSION	LABEL	0.00	CTRL PLD Version
PSTATPLDVERSION	LABEL	0.00	PSTAT PLD Version
CURVE	TABLE	587
	Pt	T	Vf	Im	Vu	Sig	Ach	IERange	Over	Temp
	#	s	V vs. Ref.	A	V	V	V	#	bits	deg C
	0	0	2.44759E-001	-1.24821E-007	0.00000E+000	0.00000E+000	0.00000E+000	10	...........	1583.34
	1	0.01	2.61273E-001	1.22957E-003	0.00000E+000	3.70030E-001	0.00000E+000	10	...........	1583.34
	2	0.02	2.64090E-001	1.22964E-003	0.00000E+000	3.70030E-001	0.00000E+000	10	...........	1583.34
	3	0.03	2.66563E-001	1.22961E-003	0.00000E+000	3.70030E-001	0.00000E+000	10	...........	1583.34
	4	0.04	2.68917E-001	1.22969E-003	0.00000E+000	3.70030E-001	0.00000E+000	10	...........	1583.34
	5	0.05	2.71202E-001	1.22967E-003	0.00000E+000	3.70030E-001	0.00000E+000	10	...........	1583.34
	6	0.06	2.73474E-001	1.22965E-003	0.00000E+000	3.70030E-001	0.00000E+000	10	...........	1583.34
	7	0.07	2.75718E-001	1.22966E-003	0.00000E+000	3.70030E-001	0.00000E+000	10	...........	1583.34
	8	0.08	2.77924E-001	1.22962E-003	0.00000E+000	3.70030E-001	0.00000E+000	10	...........	1583.34
	9	0.09	2.80139E-001	1.22963E-003	0.00000E+000	3.70030E-001	0.00000E+000	10	...........	1583.34
	10	0.1	2.82367E-001	1.22965E-003	0.00000E+000	3.70030E-001	0.00000E+000	10	...........	1583.34
	11	0.11	2.84592E-001	1.22965E-003	0.00000E+000	3.70030E-001	0.00000E+000	10	...........	1583.34
	12	0.12	2.86778E-001	1.22964E-003	0.00000E+000	3.70030E-001	0.00000E+000	10	...........	1583.34
	13	0.13	2.89005E-001	1.22962E-003	0.00000E+000	3.70030E-001	0.00000E+000	10	...........	1583.34
	14	0.14	2.91213E-001	1.22968E-003	0.00000E+000	3.70030E-001	0.00000E+000	10	...........	1583.34
	15	0.15	2.93408E-001	1.22965E-003	0.00000E+000	3.70030E-001	0.00000E+000	10	...........	1583.34
	16	0.16	2.95638E-001	1.22964E-003	0.00000E+000	3.70030E-001	0.00000E+000	10	...........	1583.34
	17	0.17	2.97850E-001	1.22969E-003	0.00000E+000	3.70030E-001	0.00000E+000	10	...........	1583.34
	18	0.18	3.00058E-001	1.22968E-003	0.00000E+000	3.70030E-001	0.00000E+000	10	...........	1583.34
	19	0.19	3.02271E-001	1.22967E-003	0.00000E+000	3.70030E-001	0.00000E+000	10	...........	1583.34
	20	0.2	3.04470E-001	1.22968E-003	0.00000E+000	3.70030E-001	0.00000E+000	10	...........	1583.34
	21	0.21	3.06667E-001	1.22970E-003	0.00000E+000	3.70030E-001	0.00000E+000	10	...........	1583.34
	22	0.22	3.08936E-001	1.22962E-003	0.00000E+000	3.70030E-001	0.00000E+000	10	...........	1583.34
	23	0.23	3.11140E-001	1.22961E-003	0.00000E+000	3.70030E-001	0.00000E+000	10	...........	1583.34
	24	0.24	3.13338E-001	1.22958E-003	0.00000E+000	3.70030E-001	0.00000E+000	10	...........	1583.34
	25	0.25	3.15568E-001	1.22962E-003	0.00000E+000	3.70030E-001	0.00000E+000	10	...........	1583.34
	26	0.26	3.17784E-001	1.22966E-003	0.00000E+000	3.70030E-001	0.00000E+000	10	...........	1583.34
	27	0.27	3.20029E-001	1.22963E-003	0.00000E+000	3.70030E-001	0.00000E+000	10	...........	1583.34
	28	0.28	3.22259E-001	1.22963E-003	0.00000E+000	3.70030E-001	0.00000E+000	10	...........	1583.34
	29	0.29	3.24476E-001	1.22965E-003	0.00000E+000	3.70030E-001	0.00000E+000	10	...........	1583.34
	30	0.3	3.26726E-001	1.22963E-003	0.00000E+000	3.70030E-001	0.00000E+000	10	...........	1583.34
	31	0.31	3.28934E-001	1.22966E-003	0.00000E+000	3.70030E-001	0.00000E+000	10	...........	1583.34
	32	0.32	3.31166E-001	1.22958E-003	0.00000E+000	3.70030E-001	0.00000E+000	10	...........	1583.34
	33	0.33	3.33438E-001	1.22959E-003	0.00000E+000	3.70030E-001	0.00000E+000	10	...........	1583.34
	34	0.34	3.35674E-001	1.22963E-003	0.00000E+000	3.70030E-001	0.00000E+000	10	...........	1583.34
	35	0.35	3.37915E-001	1.22964E-003	0.00000E+000	3.70030E-001	0.00000E+000	10	...........	1583.34
	36	0.36	3.40159E-001	1.22965E-003	0.00000E+000	3.70030E-001	0.00000E+000	10	...........	1583.34
	37	0.37	3.42398E-001	1.22960E-003	0.00000E+000	3.70030E-001	0.00000E+000	10	...........	1583.34
	38	0.38	3.44632E-001	1.22963E-003	0.00000E+000	3.70030E-001	0.00000E+000	10	...........	1583.34
	39	0.39	3.46904E-001	1.22958E-003	0.00000E+000	3.70030E-001	0.00000E+000	10	...........	1583.34
	40	0.4	3.49162E-001	1.22961E-003	0.00000E+000	3.70030E-001	0.00000E+000	10	...........	1583.34
	41	0.41	3.51419E-001	1.22965E-003	0.00000E+000	3.70030E-001	0.00000E+000	10	...........	1583.34
	42	0.42	3.53681E-001	1.22969E-003	0.00000E+000	3.70030E-001	0.00000E+000	10	...........	1583.34
	43	0.43	3.55946E-001	1.22968E-003	0.00000E+000	3.70030E-001	0.00000E+000	10	...........	1583.34
	44	0.44	3.58176E-001	1.22960E-003	0.00000E+000	3.70030E-001	0.00000E+000	10	...........	1583.34
	45	0.45	3.60479E-001	1.22962E-003	0.00000E+000	3.70030E-001	0.00000E+000	10	...........	1583.34
	46	0.46	3.62750E-001	1.22961E-003	0.00000E+000	3.70030E-001	0.00000E+000	10	...........	1583.34
	47	0.47	3.65016E-001	1.22959E-003	0.00000E+000	3.70030E-001	0.00000E+000	10	...........	1583.34
	48	0.48	3.67289E-001	1.22961E-003	0.00000E+000	3.70030E-001	0.00000E+000	10	...........	1583.34
	49	0.49	3.69570E-001	1.22970E-003	0.00000E+000	3.70030E-001	0.00000E+000	10	...........	1583.34
	50	0.5	3.71886E-001	1.22965E-003	0.00000E+000	3.70030E-001	0.00000E+000	10	...........	1583.34
	51	0.51	3.74139E-001	1.22963E-003	0.00000E+000	3.70030E-001	0.00000E+000	10	...........	1583.34
	52	0.52	3.76411E-001	1.22964E-003	0.00000E+000	3.70030E-001	0.00000E+000	10	...........	1583.34
	53	0.53	3.78701E-001	1.22963E-003	0.00000E+000	3.70030E-001	0.00000E+000	10	...........	1583.34
	54	0.54	3.80979E-001	1.22962E-003	0.00000E+000	3.70030E-001	0.00000E+000	10	...........	1583.34
	55	0.55	3.83267E-001	1.22961E-003	0.00000E+000	3.70030E-001	0.00000E+000	10	...........	1583.34
	56	0.56	3.85600E-001	1.22968E-003	0.00000E+000	3.70030E-001	0.00000E+000	10	...........	1583.82
	57	0.57	3.87892E-001	1.22962E-003	0.00000E+000	3.70030E-001	0.00000E+000	10	...........	1583.82
	58	0.58	3.90189E-001	1.22966E-003	0.00000E+000	3.70030E-001	0.00000E+000	10	...........	1583.82
	59	0.59	3.92499E-001	1.22969E-003	0.00000E+000	3.70030E-001	0.00000E+000	10	...........	1583.82
	60	0.6	3.94813E-001	1.22967E-003	0.00000E+000	3.70030E-001	0.00000E+000	10	...........	1583.82
	61	0.61	3.97121E-001	1.22966E-003	0.00000E+000	3.70030E-001	0.00000E+000	10	...........	1583.82
	62	0.62	3.99411E-001	1.22959E-003	0.00000E+000	3.70030E-001	0.00000E+000	10	...........	1583.82
	63	0.63	4.01732E-001	1.22964E-003	0.00000E+000	3.70030E-001	0.00000E+000	10	...........	1583.82
	64	0.64	4.04021E-001	1.22962E-003	0.00000E+000	3.70030E-001	0.00000E+000	10	...........	1583.82
	65	0.65	4.06346E-001	1.22962E-003	0.00000E+000	3.70030E-001	0.00000E+000	10	...........	1583.82
	66	0.66	4.08674E-001	1.22968E-003	0.00000E+000	3.70030E-001	0.00000E+000	10	...........	1583.82
	67	0.67	4.11018E-001	1.22963E-003	0.00000E+000	3.70030E-001	0.00000E+000	10	...........	1583.82
	68	0.68	4.13344E-001	1.22961E-003	0.00000E+000	3.70030E-001	0.00000E+000	10	...........	1583.82
	69	0.69	4.15656E-001	1.22967E-003	0.00000E+000	3.70030E-001	0.00000E+000	10	...........	1583.82
	70	0.7	4.17986E-001	1.22967E-003	0.00000E+000	3.70030E-001	0.00000E+000	10	...........	1583.82
	71	0.71	4.20329E-001	1.22963E-003	0.00000E+000	3.70030E-001	0.00000E+000	10	...........	1583.82
	72	0.72	4.22649E-001	1.22964E-003	0.00000E+000	3.70030E-001	0.00000E+000	10	...........	1583.82
	73	0.73	4.24985E-001	1.22962E-003	0.00000E+000	3.70030E-001	0.00000E+000	10	...........	1583.82
	74	0.74	4.27314E-001	1.22963E-003	0.00000E+000	3.70030E-001	0.00000E+000	10	...........	1583.82
	75	0.75	4.29637E-001	1.22961E-003	0.00000E+000	3.70030E-001	0.00000E+000	10	...........	1583.82
	76	0.76	4.31987E-001	1.22958E-003	0.00000E+000	3.70030E-001	0.00000E+000	10	...........	1583.82
	77	0.77	4.34313E-001	1.22958E-003	0.00000E+000	3.70030E-001	0.00000E+000	10	...........	1583.82
	78	0.78	4.36697E-001	1.22964E-003	0.00000E+000	3.70030E-001	0.00000E+000	10	...........	1583.82
	79	0.79	4.39040E-001	1.22965E-003	0.00000E+000	3.70030E-001	0.00000E+000	10	...........	1583.82
	80	0.8	4.41387E-001	1.22966E-003	0.00000E+000	3.70030E-001	0.00000E+000	10	...........	1583.82
	81	0.81	4.43737E-001	1.22960E-003	0.00000E+000	3.70030E-001	0.00000E+000	10	...........	1583.82
	82	0.82	4.46086E-001	1.22963E-003	0.00000E+000	3.70030E-001	0.00000E+000	10	...........	1583.82
	83	0.83	4.48454E-001	1.22957E-003	0.00000E+000	3.70030E-001	0.00000E+000	10	...........	1583.82
	84	0.84	4.50789E-001	1.22963E-003	0.00000E+000	3.70030E-001	0.00000E+000	10	...........	1583.82
	85	0.85	4.53167E-001	1.22958E-003	0.00000E+000	3.70030E-001	0.00000E+000	10	...........	1583.82
	86	0.86	4.55516E-001	1.22961E-003	0.00000E+000	3.70030E-001	0.00000E+000	10	...........	1583.82
	87	0.87	4.57887E-001	1.22961E-003	0.00000E+000	3.70030E-001	0.00000E+000	10	...........	1583.82
	88	0.88	4.60243E-001	1.22964E-003	0.00000E+000	3.70030E-001	0.00000E+000	10	...........	1583.82
	89	0.89	4.62650E-001	1.22961E-003	0.00000E+000	3.70030E-001	0.00000E+000	10	...........	1583.82
	90	0.9	4.65007E-001	1.22961E-003	0.00000E+000	3.70030E-001	0.00000E+000	10	...........	1583.82
	91	0.91	4.67384E-001	1.22960E-003	0.00000E+000	3.70030E-001	0.00000E+000	10	...........	1583.82
	92	0.92	4.69751E-001	1.22961E-003	0.00000E+000	3.70030E-001	0.00000E+000	10	...........	1583.82
	93	0.93	4.72107E-001	1.22960E-003	0.00000E+000	3.70030E-001	0.00000E+000	10	...........	1583.82
	94	0.94	4.74521E-001	1.22963E-003	0.00000E+000	3.70030E-001	0.00000E+000	10	...........	1583.82
	95	0.95	4.76910E-001	1.22961E-003	0.00000E+000	3.70030E-001	0.00000E+000	10	...........	1583.82
	96	0.96	4.79277E-001	1.22964E-003	0.00000E+000	3.70030E-001	0.00000E+000	10	...........	1583.82
	97	0.97	4.81672E-001	1.22965E-003	0.00000E+000	3.70030E-001	0.00000E+000	10	...........	1583.82
	98	0.98	4.84042E-001	1.22958E-003	0.00000E+000	3.70030E-001	0.00000E+000	10	...........	1583.82
	99	0.99	4.86428E-001	1.22966E-003	0.00000E+000	3.70030E-001	0.00000E+000	10	...........	1583.82
	100	1	4.88852E-001	1.22964E-003	0.00000E+000	3.70030E-001	0.00000E+000	10	...........	1583.82
	101	1.01	4.91235E-001	1.22969E-003	0.00000E+000	3.70030E-001	0.00000E+000	10	...........	1583.82
	102	1.02	4.93631E-001	1.22964E-003	0.00000E+000	3.70030E-001	0.00000E+000	10	...........	1583.82
	103	1.03	4.96012E-001	1.22964E-003	0.00000E+000	3.70030E-001	0.00000E+000	10	...........	1583.82
	104	1.04	4.98402E-001	1.22960E-003	0.00000E+000	3.70030E-001	0.00000E+000	10	...........	1583.82
	105	1.05	5.00809E-001	1.22959E-003	0.00000E+000	3.70030E-001	0.00000E+000	10	...........	1583.82
	106	1.06	5.03191E-001	1.22960E-003	0.00000E+000	3.70030E-001	0.00000E+000	10	...........	1583.82
	107	1.07	5.05592E-001	1.22959E-003	0.00000E+000	3.70030E-001	0.00000E+000	10	...........	1583.82
	108	1.08	5.07987E-001	1.22963E-003	0.00000E+000	3.70030E-001	0.00000E+000	10	...........	1583.82
	109	1.09	5.10403E-001	1.22964E-003	0.00000E+000	3.70030E-001	0.00000E+000	10	...........	1583.82
	110	1.1	5.12832E-001	1.22966E-003	0.00000E+000	3.70030E-001	0.00000E+000	10	...........	1583.82
	111	1.11	5.15244E-001	1.22964E-003	0.00000E+000	3.70030E-001	0.00000E+000	10	...........	1583.82
	112	1.12	5.17623E-001	1.22965E-003	0.00000E+000	3.70030E-001	0.00000E+000	10	...........	1583.82
	113	1.13	5.20049E-001	1.22959E-003	0.00000E+000	3.70030E-001	0.00000E+000	10	...........	1583.82
	114	1.14	5.22444E-001	1.22965E-003	0.00000E+000	3.70030E-001	0.00000E+000	10	...........	1583.82
	115	1.15	5.24868E-001	1.22964E-003	0.00000E+000	3.70030E-001	0.00000E+000	10	...........	1583.82
	116	1.16	5.27275E-001	1.22961E-003	0.00000E+000	3.70030E-001	0.00000E+000	10	...........	1583.82
	117	1.17	5.29701E-001	1.22962E-003	0.00000E+000	3.70030E-001	0.00000E+000	10	...........	1583.82
	118	1.18	5.32086E-001	1.22959E-003	0.00000E+000	3.70030E-001	0.00000E+000	10	...........	1583.82
	119	1.19	5.34502E-001	1.22965E-003	0.00000E+000	3.70030E-001	0.00000E+000	10	...........	1583.82
	120	1.2	5.36918E-001	1.22967E-003	0.00000E+000	3.70030E-001	0.00000E+000	10	...........	1583.82
	121	1.21	5.39369E-001	1.22963E-003	0.00000E+000	3.70030E-001	0.00000E+000	10	...........	1583.82
	122	1.22	5.41766E-001	1.22966E-003	0.00000E+000	3.70030E-001	0.00000E+000	10	...........	1583.82
	123	1.23	5.44172E-001	1.22956E-003	0.00000E+000	3.70030E-001	0.00000E+000	10	...........	1583.82
	124	1.24	5.46599E-001	1.22958E-003	0.00000E+000	3.70030E-001	0.00000E+000	10	...........	1583.82
	125	1.25	5.48999E-001	1.22960E-003	0.00000E+000	3.70030E-001	0.00000E+000	10	...........	1583.82
	126	1.26	5.51436E-001	1.22958E-003	0.00000E+000	3.70030E-001	0.00000E+000	10	...........	1583.82
	127	1.27	5.53854E-001	1.22958E-003	0.00000E+000	3.70030E-001	0.00000E+000	10	...........	1583.82
	128	1.28	5.56267E-001	1.22953E-003	0.00000E+000	3.70030E-001	0.00000E+000	10	...........	1583.82
	129	1.29	5.58684E-001	1.22958E-003	0.00000E+000	3.70030E-001	0.00000E+000	10	...........	1583.82
	130	1.3	5.61090E-001	1.22960E-003	0.00000E+000	3.70030E-001	0.00000E+000	10	...........	1583.82
	131	1.31	5.63526E-001	1.22955E-003	0.00000E+000	3.70030E-001	0.00000E+000	10	...........	1583.82
	132	1.32	5.65953E-001	1.22961E-003	0.00000E+000	3.70030E-001	0.00000E+000	10	...........	1583.82
	133	1.33	5.68358E-001	1.22954E-003	0.00000E+000	3.70030E-001	0.00000E+000	10	...........	1583.82
	134	1.34	5.70793E-001	1.22954E-003	0.00000E+000	3.70030E-001	0.00000E+000	10	...........	1583.82
	135	1.35	5.73200E-001	1.22957E-003	0.00000E+000	3.70030E-001	0.00000E+000	10	...........	1583.82
	136	1.36	5.75611E-001	1.22955E-003	0.00000E+000	3.70030E-001	0.00000E+000	10	...........	1583.82
	137	1.37	5.78056E-001	1.22960E-003	0.00000E+000	3.70030E-001	0.00000E+000	10	...........	1583.82
	138	1.38	5.80471E-001	1.22961E-003	0.00000E+000	3.70030E-001	0.00000E+000	10	...........	1583.82
	139	1.39	5.82898E-001	1.22961E-003	0.00000E+000	3.70030E-001	0.00000E+000	10	...........	1583.82
	140	1.4	5.85319E-001	1.22963E-003	0.00000E+000	3.70030E-001	0.00000E+000	10	...........	1583.82
	141	1.41	5.87727E-001	1.22969E-003	0.00000E+000	3.70030E-001	0.00000E+000	10	...........	1583.82
	142	1.42	5.90161E-001	1.22960E-003	0.00000E+000	3.70030E-001	0.00000E+000	10	...........	1583.82
	143	1.43	5.92558E-001	1.22962E-003	0.00000E+000	3.70030E-001	0.00000E+000	10	...........	1583.82
	144	1.44	5.94968E-001	1.22963E-003	0.00000E+000	3.70030E-001	0.00000E+000	10	...........	1583.82
	145	1.45	5.97381E-001	1.22960E-003	0.00000E+000	3.70030E-001	0.00000E+000	10	...........	1583.82
	146	1.46	5.99793E-001	1.22963E-003	0.00000E+000	3.70030E-001	0.00000E+000	10	...........	1583.82
	147	1.47	6.02213E-001	1.22965E-003	0.00000E+000	3.70030E-001	0.00000E+000	10	...........	1583.82
	148	1.48	6.04610E-001	1.22961E-003	0.00000E+000	3.70030E-001	0.00000E+000	10	...........	1583.82
	149	1.49	6.07009E-001	1.22960E-003	0.00000E+000	3.70030E-001	0.00000E+000	10	...........	1583.82
	150	1.5	6.09414E-001	1.22964E-003	0.00000E+000	3.70030E-001	0.00000E+000	10	...........	1583.82
	151	1.51	6.11825E-001	1.22966E-003	0.00000E+000	3.70030E-001	0.00000E+000	10	...........	1583.82
	152	1.52	6.14227E-001	1.22965E-003	0.00000E+000	3.70030E-001	0.00000E+000	10	...........	1583.82
	153	1.53	6.16656E-001	1.22965E-003	0.00000E+000	3.70030E-001	0.00000E+000	10	...........	1583.82
	154	1.54	6.19063E-001	1.22963E-003	0.00000E+000	3.70030E-001	0.00000E+000	10	...........	1583.82
	155	1.55	6.21446E-001	1.22967E-003	0.00000E+000	3.70030E-001	0.00000E+000	10	...........	1583.82
	156	1.56	6.23827E-001	1.22964E-003	0.00000E+000	3.70030E-001	0.00000E+000	10	...........	1583.34
	157	1.57	6.26231E-001	1.22966E-003	0.00000E+000	3.70030E-001	0.00000E+000	10	...........	1583.34
	158	1.58	6.28633E-001	1.22957E-003	0.00000E+000	3.70030E-001	0.00000E+000	10	...........	1583.34
	159	1.59	6.31007E-001	1.22965E-003	0.00000E+000	3.70030E-001	0.00000E+000	10	...........	1583.34
	160	1.6	6.33393E-001	1.22965E-003	0.00000E+000	3.70030E-001	0.00000E+000	10	...........	1583.34
	161	1.61	6.35791E-001	1.22966E-003	0.00000E+000	3.70030E-001	0.00000E+000	10	...........	1583.34
	162	1.62	6.38170E-001	1.22966E-003	0.00000E+000	3.70030E-001	0.00000E+000	10	...........	1583.34
	163	1.63	6.40548E-001	1.22967E-003	0.00000E+000	3.70030E-001	0.00000E+000	10	...........	1583.34
	164	1.64	6.42911E-001	1.22961E-003	0.00000E+000	3.70030E-001	0.00000E+000	10	...........	1583.34
	165	1.65	6.45268E-001	1.22956E-003	0.00000E+000	3.70030E-001	0.00000E+000	10	...........	1583.34
	166	1.66	6.47641E-001	1.22961E-003	0.00000E+000	3.70030E-001	0.00000E+000	10	...........	1583.34
	167	1.67	6.50005E-001	1.22960E-003	0.00000E+000	3.70030E-001	0.00000E+000	10	...........	1583.34
	168	1.68	6.52343E-001	1.22956E-003	0.00000E+000	3.70030E-001	0.00000E+000	10	...........	1583.34
	169	1.69	6.54722E-001	1.22959E-003	0.00000E+000	3.70030E-001	0.00000E+000	10	...........	1583.34
	170	1.7	6.57056E-001	1.22963E-003	0.00000E+000	3.70030E-001	0.00000E+000	10	...........	1583.34
	171	1.71	6.59408E-001	1.22959E-003	0.00000E+000	3.70030E-001	0.00000E+000	10	...........	1583.34
	172	1.72	6.61767E-001	1.22965E-003	0.00000E+000	3.70030E-001	0.00000E+000	10	...........	1583.34
	173	1.73	6.64084E-001	1.22964E-003	0.00000E+000	3.70030E-001	0.00000E+000	10	...........	1583.34
	174	1.74	6.66433E-001	1.22961E-003	0.00000E+000	3.70030E-001	0.00000E+000	10	...........	1583.34
	175	1.75	6.68752E-001	1.22959E-003	0.00000E+000	3.70030E-001	0.00000E+000	10	...........	1583.34
	176	1.76	6.71081E-001	1.22954E-003	0.00000E+000	3.70030E-001	0.00000E+000	10	...........	1583.34
	177	1.77	6.73399E-001	1.22960E-003	0.00000E+000	3.70030E-001	0.00000E+000	10	...........	1583.34
	178	1.78	6.75717E-001	1.22967E-003	0.00000E+000	3.70030E-001	0.00000E+000	10	...........	1583.34
	179	1.79	6.78014E-001	1.22969E-003	0.00000E+000	3.70030E-001	0.00000E+000	10	...........	1583.34
	180	1.8	6.80331E-001	1.22962E-003	0.00000E+000	3.70030E-001	0.00000E+000	10	...........	1583.34
	181	1.81	6.82641E-001	1.22965E-003	0.00000E+000	3.70030E-001	0.00000E+000	10	...........	1583.34
	182	1.82	6.84926E-001	1.22966E-003	0.00000E+000	3.70030E-001	0.00000E+000	10	...........	1583.34
	183	1.83	6.87197E-001	1.22961E-003	0.00000E+000	3.70030E-001	0.00000E+000	10	...........	1583.34
	184	1.84	6.89469E-001	1.22958E-003	0.00000E+000	3.70030E-001	0.00000E+000	10	...........	1583.34
	185	1.85	6.91766E-001	1.22961E-003	0.00000E+000	3.70030E-001	0.00000E+000	10	...........	1583.34
	186	1.86	6.94054E-001	1.22964E-003	0.00000E+000	3.70030E-001	0.00000E+000	10	...........	1583.34
	187	1.87	6.96306E-001	1.22965E-003	0.00000E+000	3.70030E-001	0.00000E+000	10	...........	1583.34
	188	1.88	6.98567E-001	1.22959E-003	0.00000E+000	3.70030E-001	0.00000E+000	10	...........	1583.34
	189	1.89	7.00796E-001	1.22961E-003	0.00000E+000	3.70030E-001	0.00000E+000	10	...........	1583.34
	190	1.9	7.03034E-001	1.22964E-003	0.00000E+000	3.70030E-001	0.00000E+000	10	...........	1583.34
	191	1.91	7.05301E-001	1.22965E-003	0.00000E+000	3.70030E-001	0.00000E+000	10	...........	1583.34
	192	1.92	7.07550E-001	1.22968E-003	0.00000E+000	3.70030E-001	0.00000E+000	10	...........	1583.34
	193	1.93	7.09759E-001	1.22969E-003	0.00000E+000	3.70030E-001	0.00000E+000	10	...........	1583.34
	194	1.94	7.11950E-001	1.22964E-003	0.00000E+000	3.70030E-001	0.00000E+000	10	...........	1583.34
	195	1.95	7.14142E-001	1.22963E-003	0.00000E+000	3.70030E-001	0.00000E+000	10	...........	1583.34
	196	1.96	7.16322E-001	1.22963E-003	0.00000E+000	3.70030E-001	0.00000E+000	10	...........	1583.34
	197	1.97	7.18570E-001	1.22961E-003	0.00000E+000	3.70030E-001	0.00000E+000	10	...........	1583.34
	198	1.98	7.20755E-001	1.22959E-003	0.00000E+000	3.70030E-001	0.00000E+000	10	...........	1583.34
	199	1.99	7.22936E-001	1.22964E-003	0.00000E+000	3.70030E-001	0.00000E+000	10	...........	1583.34
	200	2	7.25111E-001	1.22967E-003	0.00000E+000	3.70030E-001	0.00000E+000	10	...........	1583.34
	201	2.01	7.27262E-001	1.22967E-003	0.00000E+000	3.70030E-001	0.00000E+000	10	...........	1583.34
	202	2.02	7.29429E-001	1.22967E-003	0.00000E+000	3.70030E-001	0.00000E+000	10	...........	1583.34
	203	2.03	7.31599E-001	1.22970E-003	0.00000E+000	3.70030E-001	0.00000E+000	10	...........	1583.34
	204	2.04	7.33714E-001	1.22962E-003	0.00000E+000	3.70030E-001	0.00000E+000	10	...........	1583.34
	205	2.05	7.35834E-001	1.22962E-003	0.00000E+000	3.70030E-001	0.00000E+000	10	...........	1583.34
	206	2.06	7.37943E-001	1.22956E-003	0.00000E+000	3.70030E-001	0.00000E+000	10	...........	1583.34
	207	2.07	7.40047E-001	1.22959E-003	0.00000E+000	3.70030E-001	0.00000E+000	10	...........	1583.34
	208	2.08	7.42141E-001	1.22963E-003	0.00000E+000	3.70030E-001	0.00000E+000	10	...........	1583.34
	209	2.09	7.44249E-001	1.22955E-003	0.00000E+000	3.70030E-001	0.00000E+000	10	...........	1583.34
	210	2.1	7.46326E-001	1.22958E-003	0.00000E+000	3.70030E-001	0.00000E+000	10	...........	1583.34
	211	2.11	7.48410E-001	1.22962E-003	0.00000E+000	3.70030E-001	0.00000E+000	10	...........	1583.34
	212	2.12	7.50466E-001	1.22964E-003	0.00000E+000	3.70030E-001	0.00000E+000	10	...........	1583.34
	213	2.13	7.52529E-001	1.22961E-003	0.00000E+000	3.70030E-001	0.00000E+000	10	...........	1583.34
	214	2.14	7.54556E-001	1.22961E-003	0.00000E+000	3.70030E-001	0.00000E+000	10	...........	1583.34
	215	2.15	7.56606E-001	1.22965E-003	0.00000E+000	3.70030E-001	0.00000E+000	10	...........	1583.34
	216	2.16	7.58640E-001	1.22963E-003	0.00000E+000	3.70030E-001	0.00000E+000	10	...........	1583.34
	217	2.17	7.60648E-001	1.22960E-003	0.00000E+000	3.70030E-001	0.00000E+000	10	...........	1583.34
	218	2.18	7.62675E-001	1.22964E-003	0.00000E+000	3.70030E-001	0.00000E+000	10	...........	1583.34
	219	2.19	7.64649E-001	1.22960E-003	0.00000E+000	3.70030E-001	0.00000E+000	10	...........	1583.34
	220	2.2	7.66639E-001	1.22960E-003	0.00000E+000	3.70030E-001	0.00000E+000	10	...........	1583.34
	221	2.21	7.68622E-001	1.22958E-003	0.00000E+000	3.70030E-001	0.00000E+000	10	...........	1583.34
	222	2.22	7.70604E-001	1.22963E-003	0.00000E+000	3.70030E-001	0.00000E+000	10	...........	1583.34
	223	2.23	7.72565E-001	1.22964E-003	0.00000E+000	3.70030E-001	0.00000E+000	10	...........	1583.34
	224	2.24	7.74504E-001	1.22966E-003	0.00000E+000	3.70030E-001	0.00000E+000	10	...........	1583.34
	225	2.25	7.76454E-001	1.22965E-003	0.00000E+000	3.70030E-001	0.00000E+000	10	...........	1583.34
	226	2.26	7.78359E-001	1.22968E-003	0.00000E+000	3.70030E-001	0.00000E+000	10	...........	1583.34
	227	2.27	7.80278E-001	1.22962E-003	0.00000E+000	3.70030E-001	0.00000E+000	10	...........	1583.34
	228	2.28	7.82201E-001	1.22967E-003	0.00000E+000	3.70030E-001	0.00000E+000	10	...........	1583.34
	229	2.29	7.84089E-001	1.22961E-003	0.00000E+000	3.70030E-001	0.00000E+000	10	...........	1583.34
	230	2.3	7.85968E-001	1.22964E-003	0.00000E+000	3.70030E-001	0.00000E+000	10	...........	1583.34
	231	2.31	7.87854E-001	1.22963E-003	0.00000E+000	3.70030E-001	0.00000E+000	10	...........	1583.34
	232	2.32	7.89724E-001	1.22964E-003	0.00000E+000	3.70030E-001	0.00000E+000	10	...........	1583.34
	233	2.33	7.91557E-001	1.22966E-003	0.00000E+000	3.70030E-001	0.00000E+000	10	...........	1583.34
	234	2.34	7.93381E-001	1.22961E-003	0.00000E+000	3.70030E-001	0.00000E+000	10	...........	1583.34
	235	2.35	7.95227E-001	1.22958E-003	0.00000E+000	3.70030E-001	0.00000E+000	10	...........	1583.34
	236	2.36	7.97055E-001	1.22964E-003	0.00000E+000	3.70030E-001	0.00000E+000	10	...........	1583.34
	237	2.37	7.98867E-001	1.22963E-003	0.00000E+000	3.70030E-001	0.00000E+000	10	...........	1583.34
	238	2.38	8.00664E-001	1.22963E-003	0.00000E+000	3.70030E-001	0.00000E+000	10	...........	1583.34
	239	2.39	8.02451E-001	1.22964E-003	0.00000E+000	3.70030E-001	0.00000E+000	10	...........	1583.34
	240	2.4	8.04217E-001	1.22959E-003	0.00000E+000	3.70030E-001	0.00000E+000	10	...........	1583.34
	241	2.41	7.71567E-001	-1.22983E-003	0.00000E+000	-3.70030E-001	0.00000E+000	10	...........	1583.34
	242	2.42	7.65681E-001	-1.22992E-003	0.00000E+000	-3.70030E-001	0.00000E+000	10	...........	1583.34
	243	2.43	7.60805E-001	-1.23000E-003	0.00000E+000	-3.70030E-001	0.00000E+000	10	...........	1583.34
	244	2.44	7.56403E-001	-1.22998E-003	0.00000E+000	-3.70030E-001	0.00000E+000	10	...........	1583.34
	245	2.45	7.52277E-001	-1.23001E-003	0.00000E+000	-3.70030E-001	0.00000E+000	10	...........	1583.34
	246	2.46	7.48354E-001	-1.22996E-003	0.00000E+000	-3.70030E-001	0.00000E+000	10	...........	1583.34
	247	2.47	7.44561E-001	-1.22995E-003	0.00000E+000	-3.70030E-001	0.00000E+000	10	...........	1583.34
	248	2.48	7.40871E-001	-1.22997E-003	0.00000E+000	-3.70030E-001	0.00000E+000	10	...........	1583.34
	249	2.49	7.37247E-001	-1.22997E-003	0.00000E+000	-3.70030E-001	0.00000E+000	10	...........	1583.34
	250	2.5	7.33673E-001	-1.23000E-003	0.00000E+000	-3.70030E-001	0.00000E+000	10	...........	1583.34
	251	2.51	7.30200E-001	-1.23000E-003	0.00000E+000	-3.70030E-001	0.00000E+000	10	...........	1583.34
	252	2.52	7.26737E-001	-1.23004E-003	0.00000E+000	-3.70030E-001	0.00000E+000	10	...........	1583.34
	253	2.53	7.23347E-001	-1.23006E-003	0.00000E+000	-3.70030E-001	0.00000E+000	10	...........	1583.34
	254	2.54	7.19979E-001	-1.23001E-003	0.00000E+000	-3.70030E-001	0.00000E+000	10	...........	1583.34
	255	2.55	7.16616E-001	-1.23003E-003	0.00000E+000	-3.70030E-001	0.00000E+000	10	...........	1583.34
	256	2.56	7.13297E-001	-1.23009E-003	0.00000E+000	-3.70030E-001	0.00000E+000	10	...........	1583.25
	257	2.57	7.09986E-001	-1.23007E-003	0.00000E+000	-3.70030E-001	0.00000E+000	10	...........	1583.25
	258	2.58	7.06738E-001	-1.23008E-003	0.00000E+000	-3.70030E-001	0.00000E+000	10	...........	1583.25
	259	2.59	7.03469E-001	-1.23011E-003	0.00000E+000	-3.70030E-001	0.00000E+000	10	...........	1583.25
	260	2.6	7.00233E-001	-1.23011E-003	0.00000E+000	-3.70030E-001	0.00000E+000	10	...........	1583.25
	261	2.61	6.97023E-001	-1.23010E-003	0.00000E+000	-3.70030E-001	0.00000E+000	10	...........	1583.25
	262	2.62	6.93831E-001	-1.23010E-003	0.00000E+000	-3.70030E-001	0.00000E+000	10	...........	1583.25
	263	2.63	6.90621E-001	-1.23011E-003	0.00000E+000	-3.70030E-001	0.00000E+000	10	...........	1583.25
	264	2.64	6.87441E-001	-1.23009E-003	0.00000E+000	-3.70030E-001	0.00000E+000	10	...........	1583.25
	265	2.65	6.84270E-001	-1.23009E-003	0.00000E+000	-3.70030E-001	0.00000E+000	10	...........	1583.25
	266	2.66	6.81121E-001	-1.23010E-003	0.00000E+000	-3.70030E-001	0.00000E+000	10	...........	1583.25
	267	2.67	6.77960E-001	-1.23013E-003	0.00000E+000	-3.70030E-001	0.00000E+000	10	...........	1583.25
	268	2.68	6.74825E-001	-1.23014E-003	0.00000E+000	-3.70030E-001	0.00000E+000	10	...........	1583.25
	269	2.69	6.71676E-001	-1.23015E-003	0.00000E+000	-3.70030E-001	0.00000E+000	10	...........	1583.25
	270	2.7	6.68549E-001	-1.23012E-003	0.00000E+000	-3.70030E-001	0.00000E+000	10	...........	1583.25
	271	2.71	6.65418E-001	-1.23012E-003	0.00000E+000	-3.70030E-001	0.00000E+000	10	...........	1583.25
	272	2.72	6.62290E-001	-1.23019E-003	0.00000E+000	-3.70030E-001	0.00000E+000	10	...........	1583.25
	273	2.73	6.59208E-001	-1.23017E-003	0.00000E+000	-3.70030E-001	0.00000E+000	10	...........	1583.25
	274	2.74	6.56115E-001	-1.23018E-003	0.00000E+000	-3.70030E-001	0.00000E+000	10	...........	1583.25
	275	2.75	6.53015E-001	-1.23013E-003	0.00000E+000	-3.70030E-001	0.00000E+000	10	...........	1583.25
	276	2.76	6.49940E-001	-1.23007E-003	0.00000E+000	-3.70030E-001	0.00000E+000	10	...........	1583.25
	277	2.77	6.46882E-001	-1.23008E-003	0.00000E+000	-3.70030E-001	0.00000E+000	10	...........	1583.25
	278	2.78	6.43824E-001	-1.23009E-003	0.00000E+000	-3.70030E-001	0.00000E+000	10	...........	1583.25
	279	2.79	6.40756E-001	-1.23011E-003	0.00000E+000	-3.70030E-001	0.00000E+000	10	...........	1583.25
	280	2.8	6.37680E-001	-1.23011E-003	0.00000E+000	-3.70030E-001	0.00000E+000	10	...........	1583.25
	281	2.81	6.34652E-001	-1.23012E-003	0.00000E+000	-3.70030E-001	0.00000E+000	10	...........	1583.25
	282	2.82	6.31609E-001	-1.23010E-003	0.00000E+000	-3.70030E-001	0.00000E+000	10	...........	1583.25
	283	2.83	6.28594E-001	-1.23011E-003	0.00000E+000	-3.70030E-001	0.00000E+000	10	...........	1583.25
	284	2.84	6.25547E-001	-1.23008E-003	0.00000E+000	-3.70030E-001	0.00000E+000	10	...........	1583.25
	285	2.85	6.22551E-001	-1.23014E-003	0.00000E+000	-3.70030E-001	0.00000E+000	10	...........	1583.25
	286	2.86	6.19556E-001	-1.23012E-003	0.00000E+000	-3.70030E-001	0.00000E+000	10	...........	1583.25
	287	2.87	6.16560E-001	-1.23015E-003	0.00000E+000	-3.70030E-001	0.00000E+000	10	...........	1583.25
	288	2.88	6.13509E-001	-1.23020E-003	0.00000E+000	-3.70030E-001	0.00000E+000	10	...........	1583.25
	289	2.89	6.10544E-001	-1.23014E-003	0.00000E+000	-3.70030E-001	0.00000E+000	10	...........	1583.25
	290	2.9	6.07550E-001	-1.23016E-003	0.00000E+000	-3.70030E-001	0.00000E+000	10	...........	1583.25
	291	2.91	6.04580E-001	-1.23013E-003	0.00000E+000	-3.70030E-001	0.00000E+000	10	...........	1583.25
	292	2.92	6.01632E-001	-1.23017E-003	0.00000E+000	-3.70030E-001	0.00000E+000	10	...........	1583.25
	293	2.93	5.98672E-001	-1.23013E-003	0.00000E+000	-3.70030E-001	0.00000E+000	10	...........	1583.25
	294	2.94	5.95738E-001	-1.23017E-003	0.00000E+000	-3.70030E-001	0.00000E+000	10	...........	1583.25
	295	2.95	5.92777E-001	-1.23015E-003	0.00000E+000	-3.70030E-001	0.00000E+000	10	...........	1583.25
	296	2.96	5.89857E-001	-1.23016E-003	0.00000E+000	-3.70030E-001	0.00000E+000	10	...........	1583.25
	297	2.97	5.86916E-001	-1.23011E-003	0.00000E+000	-3.70030E-001	0.00000E+000	10	...........	1583.25
	298	2.98	5.84000E-001	-1.23012E-003	0.00000E+000	-3.70030E-001	0.00000E+000	10	...........	1583.25
	299	2.99	5.81096E-001	-1.23008E-003	0.00000E+000	-3.70030E-001	0.00000E+000	10	...........	1583.25
	300	3	5.78181E-001	-1.23014E-003	0.00000E+000	-3.70030E-001	0.00000E+000	10	...........	1583.25
	301	3.01	5.75275E-001	-1.23009E-003	0.00000E+000	-3.70030E-001	0.00000E+000	10	...........	1583.25
	302	3.02	5.72408E-001	-1.23014E-003	0.00000E+000	-3.70030E-001	0.00000E+000	10	...........	1583.25
	303	3.03	5.69518E-001	-1.23012E-003	0.00000E+000	-3.70030E-001	0.00000E+000	10	...........	1583.25
	304	3.04	5.66657E-001	-1.23012E-003	0.00000E+000	-3.70030E-001	0.00000E+000	10	...........	1583.25
	305	3.05	5.63783E-001	-1.23011E-003	0.00000E+000	-3.70030E-001	0.00000E+000	10	...........	1583.25
	306	3.06	5.60892E-001	-1.23012E-003	0.00000E+000	-3.70030E-001	0.00000E+000	10	...........	1583.25
	307	3.07	5.58061E-001	-1.23016E-003	0.00000E+000	-3.70030E-001	0.00000E+000	10	...........	1583.25
	308	3.08	5.55225E-001	-1.23012E-003	0.00000E+000	-3.70030E-001	0.00000E+000	10	...........	1583.25
	309	3.09	5.52406E-001	-1.23012E-003	0.00000E+000	-3.70030E-001	0.00000E+000	10	...........	1583.25
	310	3.1	5.49566E-001	-1.23012E-003	0.00000E+000	-3.70030E-001	0.00000E+000	10	...........	1583.25
	311	3.11	5.46753E-001	-1.23014E-003	0.00000E+000	-3.70030E-001	0.00000E+000	10	...........	1583.25
	312	3.12	5.43955E-001	-1.23016E-003	0.00000E+000	-3.70030E-001	0.00000E+000	10	...........	1583.25
	313	3.13	5.41157E-001	-1.23013E-003	0.00000E+000	-3.70030E-001	0.00000E+000	10	...........	1583.25
	314	3.14	5.38374E-001	-1.23009E-003	0.00000E+000	-3.70030E-001	0.00000E+000	10	...........	1583.25
	315	3.15	5.35564E-001	-1.23008E-003	0.00000E+000	-3.70030E-001	0.00000E+000	10	...........	1583.25
	316	3.16	5.32772E-001	-1.23011E-003	0.00000E+000	-3.70030E-001	0.00000E+000	10	...........	1583.25
	317	3.17	5.30021E-001	-1.23009E-003	0.00000E+000	-3.70030E-001	0.00000E+000	10	...........	1583.25
	318	3.18	5.27270E-001	-1.23015E-003	0.00000E+000	-3.70030E-001	0.00000E+000	10	...........	1583.25
	319	3.19	5.24493E-001	-1.23010E-003	0.00000E+000	-3.70030E-001	0.00000E+000	10	...........	1583.25
	320	3.2	5.21757E-001	-1.23013E-003	0.00000E+000	-3.70030E-001	0.00000E+000	10	...........	1583.25
	321	3.21	5.19029E-001	-1.23010E-003	0.00000E+000	-3.70030E-001	0.00000E+000	10	...........	1583.25
	322	3.22	5.16306E-001	-1.23011E-003	0.00000E+000	-3.70030E-001	0.00000E+000	10	...........	1583.25
	323	3.23	5.13609E-001	-1.23010E-003	0.00000E+000	-3.70030E-001	0.00000E+000	10	...........	1583.25
	324	3.24	5.10866E-001	-1.23014E-003	0.00000E+000	-3.70030E-001	0.00000E+000	10	...........	1583.25
	325	3.25	5.08142E-001	-1.23015E-003	0.00000E+000	-3.70030E-001	0.00000E+000	10	...........	1583.25
	326	3.26	5.05446E-001	-1.23016E-003	0.00000E+000	-3.70030E-001	0.00000E+000	10	...........	1583.25
	327	3.27	5.02750E-001	-1.23013E-003	0.00000E+000	-3.70030E-001	0.00000E+000	10	...........	1583.25
	328	3.28	5.00089E-001	-1.23013E-003	0.00000E+000	-3.70030E-001	0.00000E+000	10	...........	1583.25
	329	3.29	4.97397E-001	-1.23013E-003	0.00000E+000	-3.70030E-001	0.00000E+000	10	...........	1583.25
	330	3.3	4.94744E-001	-1.23016E-003	0.00000E+000	-3.70030E-001	0.00000E+000	10	...........	1583.25
	331	3.31	4.92094E-001	-1.23014E-003	0.00000E+000	-3.70030E-001	0.00000E+000	10	...........	1583.25
	332	3.32	4.89450E-001	-1.23013E-003	0.00000E+000	-3.70030E-001	0.00000E+000	10	...........	1583.25
	333	3.33	4.86787E-001	-1.23019E-003	0.00000E+000	-3.70030E-001	0.00000E+000	10	...........	1583.25
	334	3.34	4.84116E-001	-1.23017E-003	0.00000E+000	-3.70030E-001	0.00000E+000	10	...........	1583.25
	335	3.35	4.81514E-001	-1.23013E-003	0.00000E+000	-3.70030E-001	0.00000E+000	10	...........	1583.25
	336	3.36	4.78903E-001	-1.23006E-003	0.00000E+000	-3.70030E-001	0.00000E+000	10	...........	1583.25
	337	3.37	4.76293E-001	-1.23014E-003	0.00000E+000	-3.70030E-001	0.00000E+000	10	...........	1583.25
	338	3.38	4.73660E-001	-1.23015E-003	0.00000E+000	-3.70030E-001	0.00000E+000	10	...........	1583.25
	339	3.39	4.71043E-001	-1.23012E-003	0.00000E+000	-3.70030E-001	0.00000E+000	10	...........	1583.25
	340	3.4	4.68461E-001	-1.23018E-003	0.00000E+000	-3.70030E-001	0.00000E+000	10	...........	1583.25
	341	3.41	4.65887E-001	-1.23014E-003	0.00000E+000	-3.70030E-001	0.00000E+000	10	...........	1583.25
	342	3.42	4.63321E-001	-1.23009E-003	0.00000E+000	-3.70030E-001	0.00000E+000	10	...........	1583.25
	343	3.43	4.60728E-001	-1.23007E-003	0.00000E+000	-3.70030E-001	0.00000E+000	10	...........	1583.25
	344	3.44	4.58169E-001	-1.23009E-003	0.00000E+000	-3.70030E-001	0.00000E+000	10	...........	1583.25
	345	3.45	4.55606E-001	-1.23015E-003	0.00000E+000	-3.70030E-001	0.00000E+000	10	...........	1583.25
	346	3.46	4.53046E-001	-1.23010E-003	0.00000E+000	-3.70030E-001	0.00000E+000	10	...........	1583.25
	347	3.47	4.50509E-001	-1.23013E-003	0.00000E+000	-3.70030E-001	0.00000E+000	10	...........	1583.25
	348	3.48	4.47988E-001	-1.23012E-003	0.00000E+000	-3.70030E-001	0.00000E+000	10	...........	1583.25
	349	3.49	4.45456E-001	-1.23013E-003	0.00000E+000	-3.70030E-001	0.00000E+000	10	...........	1583.25
	350	3.5	4.42937E-001	-1.23013E-003	0.00000E+000	-3.70030E-001	0.00000E+000	10	...........	1583.25
	351	3.51	4.40413E-001	-1.23016E-003	0.00000E+000	-3.70030E-001	0.00000E+000	10	...........	1583.25
	352	3.52	4.37908E-001	-1.23013E-003	0.00000E+000	-3.70030E-001	0.00000E+000	10	...........	1583.25
	353	3.53	4.35421E-001	-1.23014E-003	0.00000E+000	-3.70030E-001	0.00000E+000	10	...........	1583.25
	354	3.54	4.32915E-001	-1.23011E-003	0.00000E+000	-3.70030E-001	0.00000E+000	10	...........	1583.25
	355	3.55	4.30432E-001	-1.23010E-003	0.00000E+000	-3.70030E-001	0.00000E+000	10	...........	1583.25
	356	3.56	4.27946E-001	-1.23007E-003	0.00000E+000	-3.70030E-001	0.00000E+000	10	...........	1583.25
	357	3.57	4.25501E-001	-1.23010E-003	0.00000E+000	-3.70030E-001	0.00000E+000	10	...........	1583.25
	358	3.58	4.23015E-001	-1.23016E-003	0.00000E+000	-3.70030E-001	0.00000E+000	10	...........	1583.25
	359	3.59	4.20539E-001	-1.23016E-003	0.00000E+000	-3.70030E-001	0.00000E+000	10	...........	1583.25
	360	3.6	4.18103E-001	-1.23017E-003	0.00000E+000	-3.70030E-001	0.00000E+000	10	...........	1583.25
	361	3.61	4.15629E-001	-1.23014E-003	0.00000E+000	-3.70030E-001	0.00000E+000	10	...........	1583.25
	362	3.62	4.13219E-001	-1.23012E-003	0.00000E+000	-3.70030E-001	0.00000E+000	10	...........	1583.25
	363	3.63	4.10785E-001	-1.23012E-003	0.00000E+000	-3.70030E-001	0.00000E+000	10	...........	1583.25
	364	3.64	4.08327E-001	-1.23010E-003	0.00000E+000	-3.70030E-001	0.00000E+000	10	...........	1583.25
	365	3.65	4.05908E-001	-1.23015E-003	0.00000E+000	-3.70030E-001	0.00000E+000	10	...........	1583.25
	366	3.66	4.03521E-001	-1.23014E-003	0.00000E+000	-3.70030E-001	0.00000E+000	10	...........	1583.25
	367	3.67	4.01106E-001	-1.23012E-003	0.00000E+000	-3.70030E-001	0.00000E+000	10	...........	1583.25
	368	3.68	3.98697E-001	-1.23015E-003	0.00000E+000	-3.70030E-001	0.00000E+000	10	...........	1583.25
	369	3.69	3.96277E-001	-1.23013E-003	0.00000E+000	-3.70030E-001	0.00000E+000	10	...........	1583.25
	370	3.7	3.93905E-001	-1.23009E-003	0.00000E+000	-3.70030E-001	0.00000E+000	10	...........	1583.25
	371	3.71	3.91517E-001	-1.23016E-003	0.00000E+000	-3.70030E-001	0.00000E+000	10	...........	1583.25
	372	3.72	3.89161E-001	-1.23014E-003	0.00000E+000	-3.70030E-001	0.00000E+000	10	...........	1583.25
	373	3.73	3.86781E-001	-1.23008E-003	0.00000E+000	-3.70030E-001	0.00000E+000	10	...........	1583.25
	374	3.74	3.84403E-001	-1.23017E-003	0.00000E+000	-3.70030E-001	0.00000E+000	10	...........	1583.25
	375	3.75	3.82036E-001	-1.23011E-003	0.00000E+000	-3.70030E-001	0.00000E+000	10	...........	1583.25
	376	3.76	3.79690E-001	-1.23012E-003	0.00000E+000	-3.70030E-001	0.00000E+000	10	...........	1583.25
	377	3.77	3.77346E-001	-1.23012E-003	0.00000E+000	-3.70030E-001	0.00000E+000	10	...........	1583.25
	378	3.78	3.75001E-001	-1.23015E-003	0.00000E+000	-3.70030E-001	0.00000E+000	10	...........	1583.25
	379	3.79	3.72680E-001	-1.23015E-003	0.00000E+000	-3.70030E-001	0.00000E+000	10	...........	1583.25
	380	3.8	3.70322E-001	-1.23013E-003	0.00000E+000	-3.70030E-001	0.00000E+000	10	...........	1583.25
	381	3.81	3.67988E-001	-1.23013E-003	0.00000E+000	-3.70030E-001	0.00000E+000	10	...........	1583.25
	382	3.82	3.65692E-001	-1.23017E-003	0.00000E+000	-3.70030E-001	0.00000E+000	10	...........	1583.25
	383	3.83	3.63383E-001	-1.23013E-003	0.00000E+000	-3.70030E-001	0.00000E+000	10	...........	1583.25
	384	3.84	3.61070E-001	-1.23014E-003	0.00000E+000	-3.70030E-001	0.00000E+000	10	...........	1583.25
	385	3.85	3.58750E-001	-1.23010E-003	0.00000E+000	-3.70030E-001	0.00000E+000	10	...........	1583.25
	386	3.86	3.56455E-001	-1.23012E-003	0.00000E+000	-3.70030E-001	0.00000E+000	10	...........	1583.25
	387	3.87	3.54164E-001	-1.23011E-003	0.00000E+000	-3.70030E-001	0.00000E+000	10	...........	1583.25
	388	3.88	3.51876E-001	-1.23012E-003	0.00000E+000	-3.70030E-001	0.00000E+000	10	...........	1583.25
	389	3.89	3.49594E-001	-1.23014E-003	0.00000E+000	-3.70030E-001	0.00000E+000	10	...........	1583.25
	390	3.9	3.47330E-001	-1.23015E-003	0.00000E+000	-3.70030E-001	0.00000E+000	10	...........	1583.25
	391	3.91	3.45040E-001	-1.23020E-003	0.00000E+000	-3.70030E-001	0.00000E+000	10	...........	1583.25
	392	3.92	3.42809E-001	-1.23013E-003	0.00000E+000	-3.70030E-001	0.00000E+000	10	...........	1583.25
	393	3.93	3.40555E-001	-1.23012E-003	0.00000E+000	-3.70030E-001	0.00000E+000	10	...........	1583.25
	394	3.94	3.38323E-001	-1.23013E-003	0.00000E+000	-3.70030E-001	0.00000E+000	10	...........	1583.25
	395	3.95	3.36073E-001	-1.23009E-003	0.00000E+000	-3.70030E-001	0.00000E+000	10	...........	1583.25
	396	3.96	3.33824E-001	-1.23011E-003	0.00000E+000	-3.70030E-001	0.00000E+000	10	...........	1583.25
	397	3.97	3.31567E-001	-1.23011E-003	0.00000E+000	-3.70030E-001	0.00000E+000	10	...........	1583.25
	398	3.98	3.29336E-001	-1.23014E-003	0.00000E+000	-3.70030E-001	0.00000E+000	10	...........	1583.25
	399	3.99	3.27129E-001	-1.23015E-003	0.00000E+000	-3.70030E-001	0.00000E+000	10	...........	1583.25
	400	4	3.24893E-001	-1.23018E-003	0.00000E+000	-3.70030E-001	0.00000E+000	10	...........	1583.25
	401	4.01	3.22682E-001	-1.23014E-003	0.00000E+000	-3.70030E-001	0.00000E+000	10	...........	1583.25
	402	4.02	3.20490E-001	-1.23016E-003	0.00000E+000	-3.70030E-001	0.00000E+000	10	...........	1583.25
	403	4.03	3.18269E-001	-1.23016E-003	0.00000E+000	-3.70030E-001	0.00000E+000	10	...........	1583.25
	404	4.04	3.16084E-001	-1.23021E-003	0.00000E+000	-3.70030E-001	0.00000E+000	10	...........	1583.25
	405	4.05	3.13905E-001	-1.23018E-003	0.00000E+000	-3.70030E-001	0.00000E+000	10	...........	1583.25
	406	4.06	3.11724E-001	-1.23016E-003	0.00000E+000	-3.70030E-001	0.00000E+000	10	...........	1583.25
	407	4.07	3.09537E-001	-1.23015E-003	0.00000E+000	-3.70030E-001	0.00000E+000	10	...........	1583.25
	408	4.08	3.07329E-001	-1.23018E-003	0.00000E+000	-3.70030E-001	0.00000E+000	10	...........	1583.25
	409	4.09	3.05155E-001	-1.23012E-003	0.00000E+000	-3.70030E-001	0.00000E+000	10	...........	1583.25
	410	4.1	3.02999E-001	-1.23010E-003	0.00000E+000	-3.70030E-001	0.00000E+000	10	...........	1583.25
	411	4.11	3.00841E-001	-1.23011E-003	0.00000E+000	-3.70030E-001	0.00000E+000	10	...........	1583.25
	412	4.12	2.98680E-001	-1.23011E-003	0.00000E+000	-3.70030E-001	0.00000E+000	10	...........	1583.25
	413	4.13	2.96535E-001	-1.23011E-003	0.00000E+000	-3.70030E-001	0.00000E+000	10	...........	1583.25
	414	4.14	2.94379E-001	-1.23015E-003	0.00000E+000	-3.70030E-001	0.00000E+000	10	...........	1583.25
	415	4.15	2.92221E-001	-1.23014E-003	0.00000E+000	-3.70030E-001	0.00000E+000	10	...........	1583.25
	416	4.16	2.90113E-001	-1.23012E-003	0.00000E+000	-3.70030E-001	0.00000E+000	10	...........	1583.25
	417	4.17	2.87989E-001	-1.23010E-003	0.00000E+000	-3.70030E-001	0.00000E+000	10	...........	1583.25
	418	4.18	2.85871E-001	-1.23010E-003	0.00000E+000	-3.70030E-001	0.00000E+000	10	...........	1583.25
	419	4.19	2.83755E-001	-1.23010E-003	0.00000E+000	-3.70030E-001	0.00000E+000	10	...........	1583.25
	420	4.2	2.81602E-001	-1.23011E-003	0.00000E+000	-3.70030E-001	0.00000E+000	10	...........	1583.25
	421	4.21	2.79488E-001	-1.23013E-003	0.00000E+000	-3.70030E-001	0.00000E+000	10	...........	1583.25
	422	4.22	2.77381E-001	-1.23016E-003	0.00000E+000	-3.70030E-001	0.00000E+000	10	...........	1583.25
	423	4.23	2.75290E-001	-1.23010E-003	0.00000E+000	-3.70030E-001	0.00000E+000	10	...........	1583.25
	424	4.24	2.73215E-001	-1.23017E-003	0.00000E+000	-3.70030E-001	0.00000E+000	10	...........	1583.25
	425	4.25	2.71120E-001	-1.23012E-003	0.00000E+000	-3.70030E-001	0.00000E+000	10	...........	1583.25
	426	4.26	2.69072E-001	-1.23014E-003	0.00000E+000	-3.70030E-001	0.00000E+000	10	...........	1583.25
	427	4.27	2.66972E-001	-1.23008E-003	0.00000E+000	-3.70030E-001	0.00000E+000	10	...........	1583.25
	428	4.28	2.64889E-001	-1.23014E-003	0.00000E+000	-3.70030E-001	0.00000E+000	10	...........	1583.25
	429	4.29	2.62817E-001	-1.23013E-003	0.00000E+000	-3.70030E-001	0.00000E+000	10	...........	1583.25
	430	4.3	2.60743E-001	-1.23017E-003	0.00000E+000	-3.70030E-001	0.00000E+000	10	...........	1583.25
	431	4.31	2.58683E-001	-1.23017E-003	0.00000E+000	-3.70030E-001	0.00000E+000	10	...........	1583.25
	432	4.32	2.56628E-001	-1.23013E-003	0.00000E+000	-3.70030E-001	0.00000E+000	10	...........	1583.25
	433	4.33	2.54562E-001	-1.23009E-003	0.00000E+000	-3.70030E-001	0.00000E+000	10	...........	1583.25
	434	4.34	2.52541E-001	-1.23014E-003	0.00000E+000	-3.70030E-001	0.00000E+000	10	...........	1583.25
	435	4.35	2.50495E-001	-1.23012E-003	0.00000E+000	-3.70030E-001	0.00000E+000	10	...........	1583.25
	436	4.36	2.48463E-001	-1.23016E-003	0.00000E+000	-3.70030E-001	0.00000E+000	10	...........	1583.25
	437	4.37	2.46437E-001	-1.23012E-003	0.00000E+000	-3.70030E-001	0.00000E+000	10	...........	1583.25
	438	4.38	2.44426E-001	-1.23014E-003	0.00000E+000	-3.70030E-001	0.00000E+000	10	...........	1583.25
	439	4.39	2.42362E-001	-1.23018E-003	0.00000E+000	-3.70030E-001	0.00000E+000	10	...........	1583.25
	440	4.4	2.40405E-001	-1.23013E-003	0.00000E+000	-3.70030E-001	0.00000E+000	10	...........	1583.25
	441	4.41	2.38397E-001	-1.23017E-003	0.00000E+000	-3.70030E-001	0.00000E+000	10	...........	1583.25
	442	4.42	2.36393E-001	-1.23011E-003	0.00000E+000	-3.70030E-001	0.00000E+000	10	...........	1583.25
	443	4.43	2.34395E-001	-1.23010E-003	0.00000E+000	-3.70030E-001	0.00000E+000	10	...........	1583.25
	444	4.44	2.32394E-001	-1.23012E-003	0.00000E+000	-3.70030E-001	0.00000E+000	10	...........	1583.25
	445	4.45	2.30406E-001	-1.23011E-003	0.00000E+000	-3.70030E-001	0.00000E+000	10	...........	1583.25
	446	4.46	2.28422E-001	-1.23011E-003	0.00000E+000	-3.70030E-001	0.00000E+000	10	...........	1583.25
	447	4.47	2.26444E-001	-1.23017E-003	0.00000E+000	-3.70030E-001	0.00000E+000	10	...........	1583.25
	448	4.48	2.24470E-001	-1.23014E-003	0.00000E+000	-3.70030E-001	0.00000E+000	10	...........	1583.25
	449	4.49	2.22506E-001	-1.23009E-003	0.00000E+000	-3.70030E-001	0.00000E+000	10	...........	1583.25
	450	4.5	2.20539E-001	-1.23014E-003	0.00000E+000	-3.70030E-001	0.00000E+000	10	...........	1583.25
	451	4.51	2.18579E-001	-1.23014E-003	0.00000E+000	-3.70030E-001	0.00000E+000	10	...........	1583.25
	452	4.52	2.16625E-001	-1.23014E-003	0.00000E+000	-3.70030E-001	0.00000E+000	10	...........	1583.25
	453	4.53	2.14677E-001	-1.23010E-003	0.00000E+000	-3.70030E-001	0.00000E+000	10	...........	1583.25
	454	4.54	2.12734E-001	-1.23019E-003	0.00000E+000	-3.70030E-001	0.00000E+000	10	...........	1583.25
	455	4.55	2.10793E-001	-1.23018E-003	0.00000E+000	-3.70030E-001	0.00000E+000	10	...........	1583.25
	456	4.56	2.08860E-001	-1.23016E-003	0.00000E+000	-3.70030E-001	0.00000E+000	10	...........	1583.25
	457	4.57	2.06930E-001	-1.23014E-003	0.00000E+000	-3.70030E-001	0.00000E+000	10	...........	1583.25
	458	4.58	2.05009E-001	-1.23006E-003	0.00000E+000	-3.70030E-001	0.00000E+000	10	...........	1583.25
	459	4.59	2.03093E-001	-1.23010E-003	0.00000E+000	-3.70030E-001	0.00000E+000	10	...........	1583.25
	460	4.6	2.01173E-001	-1.23012E-003	0.00000E+000	-3.70030E-001	0.00000E+000	10	...........	1583.25
	461	4.61	1.99263E-001	-1.23011E-003	0.00000E+000	-3.70030E-001	0.00000E+000	10	...........	1583.25
	462	4.62	1.97356E-001	-1.23012E-003	0.00000E+000	-3.70030E-001	0.00000E+000	10	...........	1583.25
	463	4.63	1.95461E-001	-1.23013E-003	0.00000E+000	-3.70030E-001	0.00000E+000	10	...........	1583.25
	464	4.64	1.93561E-001	-1.23017E-003	0.00000E+000	-3.70030E-001	0.00000E+000	10	...........	1583.25
	465	4.65	1.91671E-001	-1.23013E-003	0.00000E+000	-3.70030E-001	0.00000E+000	10	...........	1583.25
	466	4.66	1.89790E-001	-1.23009E-003	0.00000E+000	-3.70030E-001	0.00000E+000	10	...........	1583.25
	467	4.67	1.87911E-001	-1.23008E-003	0.00000E+000	-3.70030E-001	0.00000E+000	10	...........	1583.25
	468	4.68	1.86032E-001	-1.23013E-003	0.00000E+000	-3.70030E-001	0.00000E+000	10	...........	1583.25
	469	4.69	1.84162E-001	-1.23016E-003	0.00000E+000	-3.70030E-001	0.00000E+000	10	...........	1583.25
	470	4.7	1.82296E-001	-1.23014E-003	0.00000E+000	-3.70030E-001	0.00000E+000	10	...........	1583.25
	471	4.71	1.80436E-001	-1.23016E-003	0.00000E+000	-3.70030E-001	0.00000E+000	10	...........	1583.25
	472	4.72	1.78582E-001	-1.23012E-003	0.00000E+000	-3.70030E-001	0.00000E+000	10	...........	1583.25
	473	4.73	1.76728E-001	-1.23010E-003	0.00000E+000	-3.70030E-001	0.00000E+000	10	...........	1583.25
	474	4.74	1.74885E-001	-1.23009E-003	0.00000E+000	-3.70030E-001	0.00000E+000	10	...........	1583.25
	475	4.75	1.73043E-001	-1.23010E-003	0.00000E+000	-3.70030E-001	0.00000E+000	10	...........	1583.25
	476	4.76	1.71208E-001	-1.23008E-003	0.00000E+000	-3.70030E-001	0.00000E+000	10	...........	1583.25
	477	4.77	1.69376E-001	-1.23012E-003	0.00000E+000	-3.70030E-001	0.00000E+000	10	...........	1583.25
	478	4.78	1.67551E-001	-1.23012E-003	0.00000E+000	-3.70030E-001	0.00000E+000	10	...........	1583.25
	479	4.79	1.65727E-001	-1.23014E-003	0.00000E+000	-3.70030E-001	0.00000E+000	10	...........	1583.25
	480	4.8	1.63916E-001	-1.23015E-003	0.00000E+000	-3.70030E-001	0.00000E+000	10	...........	1583.25
	481	4.81	1.62107E-001	-1.23016E-003	0.00000E+000	-3.70030E-001	0.00000E+000	10	...........	1583.25
	482	4.82	1.60303E-001	-1.23012E-003	0.00000E+000	-3.70030E-001	0.00000E+000	10	...........	1583.25
	483	4.83	1.58501E-001	-1.23013E-003	0.00000E+000	-3.70030E-001	0.00000E+000	10	...........	1583.25
	484	4.84	1.56707E-001	-1.23012E-003	0.00000E+000	-3.70030E-001	0.00000E+000	10	...........	1583.25
	485	4.85	1.54915E-001	-1.23012E-003	0.00000E+000	-3.70030E-001	0.00000E+000	10	...........	1583.25
	486	4.86	1.53127E-001	-1.23008E-003	0.00000E+000	-3.70030E-001	0.00000E+000	10	...........	1583.25
	487	4.87	1.51353E-001	-1.23011E-003	0.00000E+000	-3.70030E-001	0.00000E+000	10	...........	1583.25
	488	4.88	1.49571E-001	-1.23015E-003	0.00000E+000	-3.70030E-001	0.00000E+000	10	...........	1583.25
	489	4.89	1.47802E-001	-1.23012E-003	0.00000E+000	-3.70030E-001	0.00000E+000	10	...........	1583.25
	490	4.9	1.46035E-001	-1.23012E-003	0.00000E+000	-3.70030E-001	0.00000E+000	10	...........	1583.25
	491	4.91	1.44279E-001	-1.23010E-003	0.00000E+000	-3.70030E-001	0.00000E+000	10	...........	1583.25
	492	4.92	1.42516E-001	-1.23014E-003	0.00000E+000	-3.70030E-001	0.00000E+000	10	...........	1583.25
	493	4.93	1.40765E-001	-1.23018E-003	0.00000E+000	-3.70030E-001	0.00000E+000	10	...........	1583.25
	494	4.94	1.39017E-001	-1.23020E-003	0.00000E+000	-3.70030E-001	0.00000E+000	10	...........	1583.25
	495	4.95	1.37273E-001	-1.23018E-003	0.00000E+000	-3.70030E-001	0.00000E+000	10	...........	1583.25
	496	4.96	1.35538E-001	-1.23014E-003	0.00000E+000	-3.70030E-001	0.00000E+000	10	...........	1583.25
	497	4.97	1.33806E-001	-1.23011E-003	0.00000E+000	-3.70030E-001	0.00000E+000	10	...........	1583.25
	498	4.98	1.32078E-001	-1.23015E-003	0.00000E+000	-3.70030E-001	0.00000E+000	10	...........	1583.25
	499	4.99	1.30359E-001	-1.23009E-003	0.00000E+000	-3.70030E-001	0.00000E+000	10	...........	1583.25
	500	5	1.28641E-001	-1.23015E-003	0.00000E+000	-3.70030E-001	0.00000E+000	10	...........	1583.25
	501	5.01	1.26932E-001	-1.23016E-003	0.00000E+000	-3.70030E-001	0.00000E+000	10	...........	1583.25
	502	5.02	1.25224E-001	-1.23016E-003	0.00000E+000	-3.70030E-001	0.00000E+000	10	...........	1583.25
	503	5.03	1.23521E-001	-1.23017E-003	0.00000E+000	-3.70030E-001	0.00000E+000	10	...........	1583.25
	504	5.04	1.21821E-001	-1.23015E-003	0.00000E+000	-3.70030E-001	0.00000E+000	10	...........	1583.25
	505	5.05	1.20131E-001	-1.23013E-003	0.00000E+000	-3.70030E-001	0.00000E+000	10	...........	1583.25
	506	5.06	1.18439E-001	-1.23010E-003	0.00000E+000	-3.70030E-001	0.00000E+000	10	...........	1583.25
	507	5.07	1.16758E-001	-1.23014E-003	0.00000E+000	-3.70030E-001	0.00000E+000	10	...........	1583.25
	508	5.08	1.15086E-001	-1.23015E-003	0.00000E+000	-3.70030E-001	0.00000E+000	10	...........	1583.25
	509	5.09	1.13410E-001	-1.23013E-003	0.00000E+000	-3.70030E-001	0.00000E+000	10	...........	1583.25
	510	5.1	1.11740E-001	-1.23010E-003	0.00000E+000	-3.70030E-001	0.00000E+000	10	...........	1583.25
	511	5.11	1.10080E-001	-1.23011E-003	0.00000E+000	-3.70030E-001	0.00000E+000	10	...........	1583.25
	512	5.12	1.08420E-001	-1.23018E-003	0.00000E+000	-3.70030E-001	0.00000E+000	10	...........	1583.25
	513	5.13	1.06766E-001	-1.23018E-003	0.00000E+000	-3.70030E-001	0.00000E+000	10	...........	1583.25
	514	5.14	1.05121E-001	-1.23017E-003	0.00000E+000	-3.70030E-001	0.00000E+000	10	...........	1583.25
	515	5.15	1.03477E-001	-1.23015E-003	0.00000E+000	-3.70030E-001	0.00000E+000	10	...........	1583.25
	516	5.16	1.01835E-001	-1.23013E-003	0.00000E+000	-3.70030E-001	0.00000E+000	10	...........	1583.25
	517	5.17	1.00206E-001	-1.23012E-003	0.00000E+000	-3.70030E-001	0.00000E+000	10	...........	1583.25
	518	5.18	9.85799E-002	-1.23015E-003	0.00000E+000	-3.70030E-001	0.00000E+000	10	...........	1583.25
	519	5.19	9.69491E-002	-1.23016E-003	0.00000E+000	-3.70030E-001	0.00000E+000	10	...........	1583.25
	520	5.2	9.53349E-002	-1.23016E-003	0.00000E+000	-3.70030E-001	0.00000E+000	10	...........	1583.25
	521	5.21	9.37220E-002	-1.23020E-003	0.00000E+000	-3.70030E-001	0.00000E+000	10	...........	1583.25
	522	5.22	9.21110E-002	-1.23014E-003	0.00000E+000	-3.70030E-001	0.00000E+000	10	...........	1583.25
	523	5.23	9.05103E-002	-1.23013E-003	0.00000E+000	-3.70030E-001	0.00000E+000	10	...........	1583.25
	524	5.24	8.89071E-002	-1.23017E-003	0.00000E+000	-3.70030E-001	0.00000E+000	10	...........	1583.25
	525	5.25	8.73167E-002	-1.23017E-003	0.00000E+000	-3.70030E-001	0.00000E+000	10	...........	1583.25
	526	5.26	8.57292E-002	-1.23019E-003	0.00000E+000	-3.70030E-001	0.00000E+000	10	...........	1583.25
	527	5.27	8.41378E-002	-1.23019E-003	0.00000E+000	-3.70030E-001	0.00000E+000	10	...........	1583.25
	528	5.28	8.25615E-002	-1.23018E-003	0.00000E+000	-3.70030E-001	0.00000E+000	10	...........	1583.25
	529	5.29	8.09919E-002	-1.23014E-003	0.00000E+000	-3.70030E-001	0.00000E+000	10	...........	1583.25
	530	5.3	7.94232E-002	-1.23012E-003	0.00000E+000	-3.70030E-001	0.00000E+000	10	...........	1583.25
	531	5.31	7.78596E-002	-1.23014E-003	0.00000E+000	-3.70030E-001	0.00000E+000	10	...........	1583.25
	532	5.32	7.63001E-002	-1.23017E-003	0.00000E+000	-3.70030E-001	0.00000E+000	10	...........	1583.25
	533	5.33	7.47445E-002	-1.23017E-003	0.00000E+000	-3.70030E-001	0.00000E+000	10	...........	1583.25
	534	5.34	7.31962E-002	-1.23014E-003	0.00000E+000	-3.70030E-001	0.00000E+000	10	...........	1583.25
	535	5.35	7.16543E-002	-1.23019E-003	0.00000E+000	-3.70030E-001	0.00000E+000	10	...........	1583.25
	536	5.36	7.01107E-002	-1.23022E-003	0.00000E+000	-3.70030E-001	0.00000E+000	10	...........	1583.25
	537	5.37	6.85752E-002	-1.23024E-003	0.00000E+000	-3.70030E-001	0.00000E+000	10	...........	1583.25
	538	5.38	6.70502E-002	-1.23025E-003	0.00000E+000	-3.70030E-001	0.00000E+000	10	...........	1583.25
	539	5.39	6.55216E-002	-1.23026E-003	0.00000E+000	-3.70030E-001	0.00000E+000	10	...........	1583.25
	540	5.4	6.40056E-002	-1.23025E-003	0.00000E+000	-3.70030E-001	0.00000E+000	10	...........	1583.25
	541	5.41	6.24877E-002	-1.23022E-003	0.00000E+000	-3.70030E-001	0.00000E+000	10	...........	1583.25
	542	5.42	6.09768E-002	-1.23022E-003	0.00000E+000	-3.70030E-001	0.00000E+000	10	...........	1583.25
	543	5.43	5.94756E-002	-1.23020E-003	0.00000E+000	-3.70030E-001	0.00000E+000	10	...........	1583.25
	544	5.44	5.79712E-002	-1.23023E-003	0.00000E+000	-3.70030E-001	0.00000E+000	10	...........	1583.25
	545	5.45	5.64766E-002	-1.23019E-003	0.00000E+000	-3.70030E-001	0.00000E+000	10	...........	1583.25
	546	5.46	5.49871E-002	-1.23015E-003	0.00000E+000	-3.70030E-001	0.00000E+000	10	...........	1583.25
	547	5.47	5.34994E-002	-1.23015E-003	0.00000E+000	-3.70030E-001	0.00000E+000	10	...........	1583.25
	548	5.48	5.20186E-002	-1.23016E-003	0.00000E+000	-3.70030E-001	0.00000E+000	10	...........	1583.25
	549	5.49	5.05429E-002	-1.23015E-003	0.00000E+000	-3.70030E-001	0.00000E+000	10	...........	1583.25
	550	5.5	4.90687E-002	-1.23019E-003	0.00000E+000	-3.70030E-001	0.00000E+000	10	...........	1583.25
	551	5.51	4.76042E-002	-1.23020E-003	0.00000E+000	-3.70030E-001	0.00000E+000	10	...........	1583.25
	552	5.52	4.61470E-002	-1.23016E-003	0.00000E+000	-3.70030E-001	0.00000E+000	10	...........	1583.25
	553	5.53	4.46905E-002	-1.23019E-003	0.00000E+000	-3.70030E-001	0.00000E+000	10	...........	1583.25
	554	5.54	4.32409E-002	-1.23013E-003	0.00000E+000	-3.70030E-001	0.00000E+000	10	...........	1583.25
	555	5.55	4.17940E-002	-1.23009E-003	0.00000E+000	-3.70030E-001	0.00000E+000	10	...........	1583.25
	556	5.56	4.03538E-002	-1.23009E-003	0.00000E+000	-3.70030E-001	0.00000E+000	10	...........	1583.44
	557	5.57	3.89162E-002	-1.23012E-003	0.00000E+000	-3.70030E-001	0.00000E+000	10	...........	1583.44
	558	5.58	3.74835E-002	-1.23016E-003	0.00000E+000	-3.70030E-001	0.00000E+000	10	...........	1583.44
	559	5.59	3.60595E-002	-1.23016E-003	0.00000E+000	-3.70030E-001	0.00000E+000	10	...........	1583.44
	560	5.6	3.46337E-002	-1.23012E-003	0.00000E+000	-3.70030E-001	0.00000E+000	10	...........	1583.44
	561	5.61	3.32160E-002	-1.23014E-003	0.00000E+000	-3.70030E-001	0.00000E+000	10	...........	1583.44
	562	5.62	3.18015E-002	-1.23014E-003	0.00000E+000	-3.70030E-001	0.00000E+000	10	...........	1583.44
	563	5.63	3.03909E-002	-1.23017E-003	0.00000E+000	-3.70030E-001	0.00000E+000	10	...........	1583.44
	564	5.64	2.89898E-002	-1.23016E-003	0.00000E+000	-3.70030E-001	0.00000E+000	10	...........	1583.44
	565	5.65	2.75891E-002	-1.23014E-003	0.00000E+000	-3.70030E-001	0.00000E+000	10	...........	1583.44
	566	5.66	2.61952E-002	-1.23017E-003	0.00000E+000	-3.70030E-001	0.00000E+000	10	...........	1583.44
	567	5.67	2.48061E-002	-1.23015E-003	0.00000E+000	-3.70030E-001	0.00000E+000	10	...........	1583.44
	568	5.68	2.34210E-002	-1.23017E-003	0.00000E+000	-3.70030E-001	0.00000E+000	10	...........	1583.44
	569	5.69	2.20450E-002	-1.23019E-003	0.00000E+000	-3.70030E-001	0.00000E+000	10	...........	1583.44
	570	5.7	2.06693E-002	-1.23015E-003	0.00000E+000	-3.70030E-001	0.00000E+000	10	...........	1583.44
	571	5.71	1.92996E-002	-1.23016E-003	0.00000E+000	-3.70030E-001	0.00000E+000	10	...........	1583.44
	572	5.72	1.79325E-002	-1.23017E-003	0.00000E+000	-3.70030E-001	0.00000E+000	10	...........	1583.44
	573	5.73	1.65746E-002	-1.23015E-003	0.00000E+000	-3.70030E-001	0.00000E+000	10	...........	1583.44
	574	5.74	1.52156E-002	-1.23017E-003	0.00000E+000	-3.70030E-001	0.00000E+000	10	...........	1583.44
	575	5.75	1.38649E-002	-1.23017E-003	0.00000E+000	-3.70030E-001	0.00000E+000	10	...........	1583.44
	576	5.76	1.25165E-002	-1.23016E-003	0.00000E+000	-3.70030E-001	0.00000E+000	10	...........	1583.44
	577	5.77	1.11715E-002	-1.23012E-003	0.00000E+000	-3.70030E-001	0.00000E+000	10	...........	1583.44
	578	5.78	9.83233E-003	-1.23011E-003	0.00000E+000	-3.70030E-001	0.00000E+000	10	...........	1583.44
	579	5.79	8.50140E-003	-1.23014E-003	0.00000E+000	-3.70030E-001	0.00000E+000	10	...........	1583.44
	580	5.8	7.17030E-003	-1.23012E-003	0.00000E+000	-3.70030E-001	0.00000E+000	10	...........	1583.44
	581	5.81	5.84623E-003	-1.23014E-003	0.00000E+000	-3.70030E-001	0.00000E+000	10	...........	1583.44
	582	5.82	4.52694E-003	-1.23014E-003	0.00000E+000	-3.70030E-001	0.00000E+000	10	...........	1583.44
	583	5.83	3.21226E-003	-1.23010E-003	0.00000E+000	-3.70030E-001	0.00000E+000	10	...........	1583.44
	584	5.84	1.89941E-003	-1.23009E-003	0.00000E+000	-3.70030E-001	0.00000E+000	10	...........	1583.44
	585	5.85	5.95278E-004	-1.23008E-003	0.00000E+000	-3.70030E-001	0.00000E+000	10	...........	1583.44
	586	5.86	-7.09036E-004	-1.23011E-003	0.00000E+000	-3.70030E-001	0.00000E+000	10	...........	1583.44
