EXPLAIN
TAG	CHRONOP
TITLE	LABEL	Chronopotentiometry Scan	Test Identifier
DATE	LABEL	23/1/2025	Date
TIME	LABEL	8:32:37	Time
NOTES	NOTES	1	Notes...
	
PSTAT	PSTAT	IFC1010-42004	Potentiostat
IPRESTEP	QUANT	0.00000E+000	Pre-step Current(A)
TPRESTEP	QUANT	0.00000E+000	Pre-step Delay Time (s)
ISTEP1	QUANT	1.23000E-003	Step 1 Current (A)
TSTEP1	QUANT	5.00000E+003	Step 1 Time (s)
ISTEP2	QUANT	-1.23000E-003	Step 2 Current (A)
TSTEP2	QUANT	5.00000E+003	Step 2 Time (s)
SAMPLETIME	QUANT	1.00000E-002	Sample Period (s)
DECIMATE	TOGGLE	F	Decimate
VLIMITLOWER	QUANT	0.00000E+000	Lower Limit V (V)
VLIMITUPPER	QUANT	8.00000E-001	Upper Limit V (V)
EQDELAY	QUANT	1.00000E+000	Equil. Time (s)
SAMPLINGMODE	SELECTOR	1	Sampling Mode
AREA	QUANT	2.00000E+000	Sample Area (cm^2)
ELECTRODETYPE	SELECTOR	0	Electrode Type
STRIPPING	TOGGLE	F	Used for Stripping
SEQUENCER	TOGGLE	TRUE	Run as Sequence
PSTATMODEL	IQUANT	64	Pstat Model
PSTATSECTION	LABEL	IFC1010-42004	Pstat Section
PSTATSERIALNO	LABEL	42004	Pstat Serial Number
CTRLMODE	IQUANT	0	Control Mode
ELECTROMETER	IQUANT	0	RE=0 or CS=1
IESTAB	IQUANT	0	I/E Stability
CASPEED	IQUANT	4	Control Amp Speed
CONVENTION	IQUANT	1	Current Convention
ICHRANGE	IQUANT	2	Ich Range
ICHRANGEMODE	TOGGLE	T	Ich Auto Range
ICHOFFSETENABLE	TOGGLE	F	Ich Offset Enable
ICHOFFSET	QUANT	0	Ich Offset (V)
ICHFILTER	IQUANT	3	Ich Filter
VCHRANGE	IQUANT	3	Vch Range
VCHRANGEMODE	TOGGLE	T	Vch Auto Range
VCHOFFSETENABLE	TOGGLE	F	Vch Offset Enable
VCHOFFSET	QUANT	0	Vch Offset (V)
VCHFILTER	IQUANT	3	Vch Filter
IERANGELOWERLIMIT	IQUANT	4	I/E Range Lower Limit
IERANGEMODE	TOGGLE	F	I/E AutoRange
IERANGE	IQUANT	11	I/E Range
ACHSELECT	IQUANT	0	Ach Select
ACHRANGE	IQUANT	2	Ach Range
ACHOFFSETENABLE	TOGGLE	F	Ach Offset Enable
ACHOFFSET	QUANT	0	Ach Offset (V)
ACHFILTER	IQUANT	1	Ach Filter
SENSECABLEID	IQUANT	14	Sense Cable ID
PWRCABLEID	IQUANT	14	Power Cable ID
DCCALDATE	LABEL	1/22/2025	DC Calibration Date
ACCALDATE	LABEL	11/15/2024	AC Calibration Date
FRAMEWORKVERSION	LABEL	7.10.4	Framework Version
INSTRUMENTVERSION	LABEL	4.91	Instrument Version
COMMVERSION	LABEL	3.10	Communications Version
CPUPLDVERSION	LABEL	2.54	CPU PLD Version
CTRLPLDVERSION	LABEL	0.00	CTRL PLD Version
PSTATPLDVERSION	LABEL	0.00	PSTAT PLD Version
CURVE	TABLE	609
	Pt	T	Vf	Im	Vu	Sig	Ach	IERange	Over	Temp
	#	s	V vs. Ref.	A	V	V	V	#	bits	deg C
	0	0	2.40204E-001	1.09986E-008	0.00000E+000	0.00000E+000	0.00000E+000	10	...........	1583.15
	1	0.01	2.55515E-001	1.22973E-003	0.00000E+000	3.70030E-001	0.00000E+000	10	...........	1583.15
	2	0.02	2.58256E-001	1.22971E-003	0.00000E+000	3.70030E-001	0.00000E+000	10	...........	1583.15
	3	0.03	2.60638E-001	1.22973E-003	0.00000E+000	3.70030E-001	0.00000E+000	10	...........	1583.15
	4	0.04	2.62945E-001	1.22976E-003	0.00000E+000	3.70030E-001	0.00000E+000	10	...........	1583.15
	5	0.05	2.65166E-001	1.22973E-003	0.00000E+000	3.70030E-001	0.00000E+000	10	...........	1583.15
	6	0.06	2.67358E-001	1.22969E-003	0.00000E+000	3.70030E-001	0.00000E+000	10	...........	1583.15
	7	0.07	2.69561E-001	1.22974E-003	0.00000E+000	3.70030E-001	0.00000E+000	10	...........	1583.15
	8	0.08	2.71734E-001	1.22979E-003	0.00000E+000	3.70030E-001	0.00000E+000	10	...........	1583.15
	9	0.09	2.73924E-001	1.22985E-003	0.00000E+000	3.70030E-001	0.00000E+000	10	...........	1583.15
	10	0.1	2.76074E-001	1.22981E-003	0.00000E+000	3.70030E-001	0.00000E+000	10	...........	1583.15
	11	0.11	2.78225E-001	1.22981E-003	0.00000E+000	3.70030E-001	0.00000E+000	10	...........	1583.15
	12	0.12	2.80380E-001	1.22984E-003	0.00000E+000	3.70030E-001	0.00000E+000	10	...........	1583.15
	13	0.13	2.82555E-001	1.22977E-003	0.00000E+000	3.70030E-001	0.00000E+000	10	...........	1583.15
	14	0.14	2.84716E-001	1.22979E-003	0.00000E+000	3.70030E-001	0.00000E+000	10	...........	1583.15
	15	0.15	2.86874E-001	1.22984E-003	0.00000E+000	3.70030E-001	0.00000E+000	10	...........	1583.15
	16	0.16	2.89037E-001	1.22983E-003	0.00000E+000	3.70030E-001	0.00000E+000	10	...........	1583.15
	17	0.17	2.91184E-001	1.22979E-003	0.00000E+000	3.70030E-001	0.00000E+000	10	...........	1583.15
	18	0.18	2.93309E-001	1.22980E-003	0.00000E+000	3.70030E-001	0.00000E+000	10	...........	1583.15
	19	0.19	2.95493E-001	1.22976E-003	0.00000E+000	3.70030E-001	0.00000E+000	10	...........	1583.15
	20	0.2	2.97633E-001	1.22978E-003	0.00000E+000	3.70030E-001	0.00000E+000	10	...........	1583.15
	21	0.21	2.99795E-001	1.22977E-003	0.00000E+000	3.70030E-001	0.00000E+000	10	...........	1583.15
	22	0.22	3.01971E-001	1.22980E-003	0.00000E+000	3.70030E-001	0.00000E+000	10	...........	1583.15
	23	0.23	3.04147E-001	1.22980E-003	0.00000E+000	3.70030E-001	0.00000E+000	10	...........	1583.15
	24	0.24	3.06290E-001	1.22980E-003	0.00000E+000	3.70030E-001	0.00000E+000	10	...........	1583.15
	25	0.25	3.08504E-001	1.22979E-003	0.00000E+000	3.70030E-001	0.00000E+000	10	...........	1583.15
	26	0.26	3.10653E-001	1.22975E-003	0.00000E+000	3.70030E-001	0.00000E+000	10	...........	1583.15
	27	0.27	3.12810E-001	1.22977E-003	0.00000E+000	3.70030E-001	0.00000E+000	10	...........	1583.15
	28	0.28	3.14978E-001	1.22972E-003	0.00000E+000	3.70030E-001	0.00000E+000	10	...........	1583.15
	29	0.29	3.17142E-001	1.22975E-003	0.00000E+000	3.70030E-001	0.00000E+000	10	...........	1583.15
	30	0.3	3.19309E-001	1.22972E-003	0.00000E+000	3.70030E-001	0.00000E+000	10	...........	1583.15
	31	0.31	3.21505E-001	1.22973E-003	0.00000E+000	3.70030E-001	0.00000E+000	10	...........	1583.15
	32	0.32	3.23684E-001	1.22976E-003	0.00000E+000	3.70030E-001	0.00000E+000	10	...........	1583.15
	33	0.33	3.25863E-001	1.22978E-003	0.00000E+000	3.70030E-001	0.00000E+000	10	...........	1583.15
	34	0.34	3.28053E-001	1.22976E-003	0.00000E+000	3.70030E-001	0.00000E+000	10	...........	1583.29
	35	0.35	3.30188E-001	1.22970E-003	0.00000E+000	3.70030E-001	0.00000E+000	10	...........	1583.63
	36	0.36	3.32375E-001	1.22972E-003	0.00000E+000	3.70030E-001	0.00000E+000	10	...........	1583.63
	37	0.37	3.34605E-001	1.22983E-003	0.00000E+000	3.70030E-001	0.00000E+000	10	...........	1583.63
	38	0.38	3.36810E-001	1.22984E-003	0.00000E+000	3.70030E-001	0.00000E+000	10	...........	1583.63
	39	0.39	3.38981E-001	1.22981E-003	0.00000E+000	3.70030E-001	0.00000E+000	10	...........	1583.63
	40	0.4	3.41178E-001	1.22977E-003	0.00000E+000	3.70030E-001	0.00000E+000	10	...........	1583.63
	41	0.41	3.43347E-001	1.22975E-003	0.00000E+000	3.70030E-001	0.00000E+000	10	...........	1583.63
	42	0.42	3.45519E-001	1.22974E-003	0.00000E+000	3.70030E-001	0.00000E+000	10	...........	1583.63
	43	0.43	3.47745E-001	1.22974E-003	0.00000E+000	3.70030E-001	0.00000E+000	10	...........	1583.63
	44	0.44	3.49941E-001	1.22976E-003	0.00000E+000	3.70030E-001	0.00000E+000	10	...........	1583.63
	45	0.45	3.52145E-001	1.22980E-003	0.00000E+000	3.70030E-001	0.00000E+000	10	...........	1583.63
	46	0.46	3.54337E-001	1.22981E-003	0.00000E+000	3.70030E-001	0.00000E+000	10	...........	1583.63
	47	0.47	3.56530E-001	1.22977E-003	0.00000E+000	3.70030E-001	0.00000E+000	10	...........	1583.63
	48	0.48	3.58768E-001	1.22986E-003	0.00000E+000	3.70030E-001	0.00000E+000	10	...........	1583.63
	49	0.49	3.60973E-001	1.22985E-003	0.00000E+000	3.70030E-001	0.00000E+000	10	...........	1583.63
	50	0.5	3.63191E-001	1.22981E-003	0.00000E+000	3.70030E-001	0.00000E+000	10	...........	1583.63
	51	0.51	3.65408E-001	1.22980E-003	0.00000E+000	3.70030E-001	0.00000E+000	10	...........	1583.63
	52	0.52	3.67601E-001	1.22983E-003	0.00000E+000	3.70030E-001	0.00000E+000	10	...........	1583.63
	53	0.53	3.69826E-001	1.22980E-003	0.00000E+000	3.70030E-001	0.00000E+000	10	...........	1583.63
	54	0.54	3.72069E-001	1.22980E-003	0.00000E+000	3.70030E-001	0.00000E+000	10	...........	1583.63
	55	0.55	3.74254E-001	1.22979E-003	0.00000E+000	3.70030E-001	0.00000E+000	10	...........	1583.63
	56	0.56	3.76474E-001	1.22982E-003	0.00000E+000	3.70030E-001	0.00000E+000	10	...........	1583.63
	57	0.57	3.78706E-001	1.22981E-003	0.00000E+000	3.70030E-001	0.00000E+000	10	...........	1583.63
	58	0.58	3.80923E-001	1.22978E-003	0.00000E+000	3.70030E-001	0.00000E+000	10	...........	1583.63
	59	0.59	3.83139E-001	1.22984E-003	0.00000E+000	3.70030E-001	0.00000E+000	10	...........	1583.63
	60	0.6	3.85408E-001	1.22978E-003	0.00000E+000	3.70030E-001	0.00000E+000	10	...........	1583.63
	61	0.61	3.87652E-001	1.22982E-003	0.00000E+000	3.70030E-001	0.00000E+000	10	...........	1583.63
	62	0.62	3.89855E-001	1.22984E-003	0.00000E+000	3.70030E-001	0.00000E+000	10	...........	1583.63
	63	0.63	3.92103E-001	1.22981E-003	0.00000E+000	3.70030E-001	0.00000E+000	10	...........	1583.63
	64	0.64	3.94330E-001	1.22984E-003	0.00000E+000	3.70030E-001	0.00000E+000	10	...........	1583.63
	65	0.65	3.96562E-001	1.22979E-003	0.00000E+000	3.70030E-001	0.00000E+000	10	...........	1583.63
	66	0.66	3.98813E-001	1.22981E-003	0.00000E+000	3.70030E-001	0.00000E+000	10	...........	1583.63
	67	0.67	4.01059E-001	1.22978E-003	0.00000E+000	3.70030E-001	0.00000E+000	10	...........	1583.63
	68	0.68	4.03288E-001	1.22979E-003	0.00000E+000	3.70030E-001	0.00000E+000	10	...........	1583.63
	69	0.69	4.05533E-001	1.22983E-003	0.00000E+000	3.70030E-001	0.00000E+000	10	...........	1583.63
	70	0.7	4.07792E-001	1.22983E-003	0.00000E+000	3.70030E-001	0.00000E+000	10	...........	1583.63
	71	0.71	4.10058E-001	1.22983E-003	0.00000E+000	3.70030E-001	0.00000E+000	10	...........	1583.63
	72	0.72	4.12294E-001	1.22976E-003	0.00000E+000	3.70030E-001	0.00000E+000	10	...........	1583.63
	73	0.73	4.14547E-001	1.22981E-003	0.00000E+000	3.70030E-001	0.00000E+000	10	...........	1583.63
	74	0.74	4.16795E-001	1.22979E-003	0.00000E+000	3.70030E-001	0.00000E+000	10	...........	1583.63
	75	0.75	4.19048E-001	1.22978E-003	0.00000E+000	3.70030E-001	0.00000E+000	10	...........	1583.63
	76	0.76	4.21287E-001	1.22982E-003	0.00000E+000	3.70030E-001	0.00000E+000	10	...........	1583.63
	77	0.77	4.23567E-001	1.22980E-003	0.00000E+000	3.70030E-001	0.00000E+000	10	...........	1583.63
	78	0.78	4.25855E-001	1.22982E-003	0.00000E+000	3.70030E-001	0.00000E+000	10	...........	1583.63
	79	0.79	4.28103E-001	1.22981E-003	0.00000E+000	3.70030E-001	0.00000E+000	10	...........	1583.63
	80	0.8	4.30364E-001	1.22984E-003	0.00000E+000	3.70030E-001	0.00000E+000	10	...........	1583.63
	81	0.81	4.32627E-001	1.22974E-003	0.00000E+000	3.70030E-001	0.00000E+000	10	...........	1583.63
	82	0.82	4.34864E-001	1.22976E-003	0.00000E+000	3.70030E-001	0.00000E+000	10	...........	1583.63
	83	0.83	4.37171E-001	1.22977E-003	0.00000E+000	3.70030E-001	0.00000E+000	10	...........	1583.63
	84	0.84	4.39447E-001	1.22978E-003	0.00000E+000	3.70030E-001	0.00000E+000	10	...........	1583.63
	85	0.85	4.41719E-001	1.22978E-003	0.00000E+000	3.70030E-001	0.00000E+000	10	...........	1583.63
	86	0.86	4.43995E-001	1.22987E-003	0.00000E+000	3.70030E-001	0.00000E+000	10	...........	1583.63
	87	0.87	4.46253E-001	1.22980E-003	0.00000E+000	3.70030E-001	0.00000E+000	10	...........	1583.63
	88	0.88	4.48545E-001	1.22976E-003	0.00000E+000	3.70030E-001	0.00000E+000	10	...........	1583.63
	89	0.89	4.50813E-001	1.22976E-003	0.00000E+000	3.70030E-001	0.00000E+000	10	...........	1583.63
	90	0.9	4.53084E-001	1.22976E-003	0.00000E+000	3.70030E-001	0.00000E+000	10	...........	1583.63
	91	0.91	4.55360E-001	1.22972E-003	0.00000E+000	3.70030E-001	0.00000E+000	10	...........	1583.63
	92	0.92	4.57649E-001	1.22973E-003	0.00000E+000	3.70030E-001	0.00000E+000	10	...........	1583.63
	93	0.93	4.59927E-001	1.22980E-003	0.00000E+000	3.70030E-001	0.00000E+000	10	...........	1583.63
	94	0.94	4.62256E-001	1.22978E-003	0.00000E+000	3.70030E-001	0.00000E+000	10	...........	1583.63
	95	0.95	4.64523E-001	1.22977E-003	0.00000E+000	3.70030E-001	0.00000E+000	10	...........	1583.63
	96	0.96	4.66802E-001	1.22973E-003	0.00000E+000	3.70030E-001	0.00000E+000	10	...........	1583.63
	97	0.97	4.69083E-001	1.22971E-003	0.00000E+000	3.70030E-001	0.00000E+000	10	...........	1583.63
	98	0.98	4.71379E-001	1.22975E-003	0.00000E+000	3.70030E-001	0.00000E+000	10	...........	1583.63
	99	0.99	4.73659E-001	1.22974E-003	0.00000E+000	3.70030E-001	0.00000E+000	10	...........	1583.63
	100	1	4.75978E-001	1.22978E-003	0.00000E+000	3.70030E-001	0.00000E+000	10	...........	1583.63
	101	1.01	4.78263E-001	1.22982E-003	0.00000E+000	3.70030E-001	0.00000E+000	10	...........	1583.63
	102	1.02	4.80563E-001	1.22976E-003	0.00000E+000	3.70030E-001	0.00000E+000	10	...........	1583.63
	103	1.03	4.82867E-001	1.22984E-003	0.00000E+000	3.70030E-001	0.00000E+000	10	...........	1583.63
	104	1.04	4.85155E-001	1.22983E-003	0.00000E+000	3.70030E-001	0.00000E+000	10	...........	1583.63
	105	1.05	4.87472E-001	1.22981E-003	0.00000E+000	3.70030E-001	0.00000E+000	10	...........	1583.63
	106	1.06	4.89775E-001	1.22982E-003	0.00000E+000	3.70030E-001	0.00000E+000	10	...........	1583.63
	107	1.07	4.92089E-001	1.22984E-003	0.00000E+000	3.70030E-001	0.00000E+000	10	...........	1583.63
	108	1.08	4.94381E-001	1.22986E-003	0.00000E+000	3.70030E-001	0.00000E+000	10	...........	1583.63
	109	1.09	4.96683E-001	1.22978E-003	0.00000E+000	3.70030E-001	0.00000E+000	10	...........	1583.63
	110	1.1	4.98976E-001	1.22980E-003	0.00000E+000	3.70030E-001	0.00000E+000	10	...........	1583.63
	111	1.11	5.01308E-001	1.22977E-003	0.00000E+000	3.70030E-001	0.00000E+000	10	...........	1583.63
	112	1.12	5.03608E-001	1.22979E-003	0.00000E+000	3.70030E-001	0.00000E+000	10	...........	1583.63
	113	1.13	5.05924E-001	1.22974E-003	0.00000E+000	3.70030E-001	0.00000E+000	10	...........	1583.63
	114	1.14	5.08221E-001	1.22973E-003	0.00000E+000	3.70030E-001	0.00000E+000	10	...........	1583.63
	115	1.15	5.10540E-001	1.22975E-003	0.00000E+000	3.70030E-001	0.00000E+000	10	...........	1583.63
	116	1.16	5.12883E-001	1.22975E-003	0.00000E+000	3.70030E-001	0.00000E+000	10	...........	1583.63
	117	1.17	5.15204E-001	1.22977E-003	0.00000E+000	3.70030E-001	0.00000E+000	10	...........	1583.63
	118	1.18	5.17498E-001	1.22978E-003	0.00000E+000	3.70030E-001	0.00000E+000	10	...........	1583.63
	119	1.19	5.19811E-001	1.22976E-003	0.00000E+000	3.70030E-001	0.00000E+000	10	...........	1583.63
	120	1.2	5.22137E-001	1.22979E-003	0.00000E+000	3.70030E-001	0.00000E+000	10	...........	1583.63
	121	1.21	5.24432E-001	1.22980E-003	0.00000E+000	3.70030E-001	0.00000E+000	10	...........	1583.63
	122	1.22	5.26780E-001	1.22983E-003	0.00000E+000	3.70030E-001	0.00000E+000	10	...........	1583.63
	123	1.23	5.29108E-001	1.22980E-003	0.00000E+000	3.70030E-001	0.00000E+000	10	...........	1583.63
	124	1.24	5.31425E-001	1.22982E-003	0.00000E+000	3.70030E-001	0.00000E+000	10	...........	1583.63
	125	1.25	5.33730E-001	1.22976E-003	0.00000E+000	3.70030E-001	0.00000E+000	10	...........	1583.63
	126	1.26	5.36062E-001	1.22978E-003	0.00000E+000	3.70030E-001	0.00000E+000	10	...........	1583.63
	127	1.27	5.38396E-001	1.22974E-003	0.00000E+000	3.70030E-001	0.00000E+000	10	...........	1583.63
	128	1.28	5.40708E-001	1.22976E-003	0.00000E+000	3.70030E-001	0.00000E+000	10	...........	1583.63
	129	1.29	5.43029E-001	1.22973E-003	0.00000E+000	3.70030E-001	0.00000E+000	10	...........	1583.63
	130	1.3	5.45361E-001	1.22977E-003	0.00000E+000	3.70030E-001	0.00000E+000	10	...........	1583.63
	131	1.31	5.47669E-001	1.22982E-003	0.00000E+000	3.70030E-001	0.00000E+000	10	...........	1583.63
	132	1.32	5.49994E-001	1.22977E-003	0.00000E+000	3.70030E-001	0.00000E+000	10	...........	1583.63
	133	1.33	5.52332E-001	1.22978E-003	0.00000E+000	3.70030E-001	0.00000E+000	10	...........	1583.63
	134	1.34	5.54658E-001	1.22985E-003	0.00000E+000	3.70030E-001	0.00000E+000	10	...........	1583.46
	135	1.35	5.56986E-001	1.22982E-003	0.00000E+000	3.70030E-001	0.00000E+000	10	...........	1583.05
	136	1.36	5.59296E-001	1.22978E-003	0.00000E+000	3.70030E-001	0.00000E+000	10	...........	1583.05
	137	1.37	5.61624E-001	1.22977E-003	0.00000E+000	3.70030E-001	0.00000E+000	10	...........	1583.05
	138	1.38	5.63962E-001	1.22980E-003	0.00000E+000	3.70030E-001	0.00000E+000	10	...........	1583.05
	139	1.39	5.66294E-001	1.22981E-003	0.00000E+000	3.70030E-001	0.00000E+000	10	...........	1583.05
	140	1.4	5.68610E-001	1.22980E-003	0.00000E+000	3.70030E-001	0.00000E+000	10	...........	1583.05
	141	1.41	5.70948E-001	1.22980E-003	0.00000E+000	3.70030E-001	0.00000E+000	10	...........	1583.05
	142	1.42	5.73283E-001	1.22975E-003	0.00000E+000	3.70030E-001	0.00000E+000	10	...........	1583.05
	143	1.43	5.75570E-001	1.22976E-003	0.00000E+000	3.70030E-001	0.00000E+000	10	...........	1583.05
	144	1.44	5.77929E-001	1.22981E-003	0.00000E+000	3.70030E-001	0.00000E+000	10	...........	1583.05
	145	1.45	5.80267E-001	1.22984E-003	0.00000E+000	3.70030E-001	0.00000E+000	10	...........	1583.05
	146	1.46	5.82573E-001	1.22986E-003	0.00000E+000	3.70030E-001	0.00000E+000	10	...........	1583.05
	147	1.47	5.84895E-001	1.22983E-003	0.00000E+000	3.70030E-001	0.00000E+000	10	...........	1583.05
	148	1.48	5.87184E-001	1.22976E-003	0.00000E+000	3.70030E-001	0.00000E+000	10	...........	1583.05
	149	1.49	5.89543E-001	1.22980E-003	0.00000E+000	3.70030E-001	0.00000E+000	10	...........	1583.05
	150	1.5	5.91865E-001	1.22984E-003	0.00000E+000	3.70030E-001	0.00000E+000	10	...........	1583.05
	151	1.51	5.94183E-001	1.22986E-003	0.00000E+000	3.70030E-001	0.00000E+000	10	...........	1583.05
	152	1.52	5.96510E-001	1.22982E-003	0.00000E+000	3.70030E-001	0.00000E+000	10	...........	1583.05
	153	1.53	5.98830E-001	1.22987E-003	0.00000E+000	3.70030E-001	0.00000E+000	10	...........	1583.05
	154	1.54	6.01131E-001	1.22985E-003	0.00000E+000	3.70030E-001	0.00000E+000	10	...........	1583.05
	155	1.55	6.03470E-001	1.22983E-003	0.00000E+000	3.70030E-001	0.00000E+000	10	...........	1583.05
	156	1.56	6.05768E-001	1.22979E-003	0.00000E+000	3.70030E-001	0.00000E+000	10	...........	1583.05
	157	1.57	6.08081E-001	1.22980E-003	0.00000E+000	3.70030E-001	0.00000E+000	10	...........	1583.05
	158	1.58	6.10372E-001	1.22985E-003	0.00000E+000	3.70030E-001	0.00000E+000	10	...........	1583.05
	159	1.59	6.12686E-001	1.22979E-003	0.00000E+000	3.70030E-001	0.00000E+000	10	...........	1583.05
	160	1.6	6.14998E-001	1.22981E-003	0.00000E+000	3.70030E-001	0.00000E+000	10	...........	1583.05
	161	1.61	6.17327E-001	1.22979E-003	0.00000E+000	3.70030E-001	0.00000E+000	10	...........	1583.05
	162	1.62	6.19638E-001	1.22978E-003	0.00000E+000	3.70030E-001	0.00000E+000	10	...........	1583.05
	163	1.63	6.21906E-001	1.22980E-003	0.00000E+000	3.70030E-001	0.00000E+000	10	...........	1583.05
	164	1.64	6.24206E-001	1.22980E-003	0.00000E+000	3.70030E-001	0.00000E+000	10	...........	1583.05
	165	1.65	6.26505E-001	1.22982E-003	0.00000E+000	3.70030E-001	0.00000E+000	10	...........	1583.05
	166	1.66	6.28817E-001	1.22979E-003	0.00000E+000	3.70030E-001	0.00000E+000	10	...........	1583.05
	167	1.67	6.31111E-001	1.22984E-003	0.00000E+000	3.70030E-001	0.00000E+000	10	...........	1583.05
	168	1.68	6.33389E-001	1.22983E-003	0.00000E+000	3.70030E-001	0.00000E+000	10	...........	1583.05
	169	1.69	6.35684E-001	1.22982E-003	0.00000E+000	3.70030E-001	0.00000E+000	10	...........	1583.05
	170	1.7	6.37960E-001	1.22981E-003	0.00000E+000	3.70030E-001	0.00000E+000	10	...........	1583.05
	171	1.71	6.40261E-001	1.22979E-003	0.00000E+000	3.70030E-001	0.00000E+000	10	...........	1583.05
	172	1.72	6.42556E-001	1.22984E-003	0.00000E+000	3.70030E-001	0.00000E+000	10	...........	1583.05
	173	1.73	6.44821E-001	1.22982E-003	0.00000E+000	3.70030E-001	0.00000E+000	10	...........	1583.05
	174	1.74	6.47107E-001	1.22984E-003	0.00000E+000	3.70030E-001	0.00000E+000	10	...........	1583.05
	175	1.75	6.49375E-001	1.22982E-003	0.00000E+000	3.70030E-001	0.00000E+000	10	...........	1583.05
	176	1.76	6.51639E-001	1.22979E-003	0.00000E+000	3.70030E-001	0.00000E+000	10	...........	1583.05
	177	1.77	6.53907E-001	1.22981E-003	0.00000E+000	3.70030E-001	0.00000E+000	10	...........	1583.05
	178	1.78	6.56165E-001	1.22977E-003	0.00000E+000	3.70030E-001	0.00000E+000	10	...........	1583.05
	179	1.79	6.58421E-001	1.22977E-003	0.00000E+000	3.70030E-001	0.00000E+000	10	...........	1583.05
	180	1.8	6.60691E-001	1.22981E-003	0.00000E+000	3.70030E-001	0.00000E+000	10	...........	1583.05
	181	1.81	6.62928E-001	1.22979E-003	0.00000E+000	3.70030E-001	0.00000E+000	10	...........	1583.05
	182	1.82	6.65182E-001	1.22980E-003	0.00000E+000	3.70030E-001	0.00000E+000	10	...........	1583.05
	183	1.83	6.67449E-001	1.22978E-003	0.00000E+000	3.70030E-001	0.00000E+000	10	...........	1583.05
	184	1.84	6.69686E-001	1.22977E-003	0.00000E+000	3.70030E-001	0.00000E+000	10	...........	1583.05
	185	1.85	6.71919E-001	1.22977E-003	0.00000E+000	3.70030E-001	0.00000E+000	10	...........	1583.05
	186	1.86	6.74145E-001	1.22980E-003	0.00000E+000	3.70030E-001	0.00000E+000	10	...........	1583.05
	187	1.87	6.76391E-001	1.22981E-003	0.00000E+000	3.70030E-001	0.00000E+000	10	...........	1583.05
	188	1.88	6.78602E-001	1.22978E-003	0.00000E+000	3.70030E-001	0.00000E+000	10	...........	1583.05
	189	1.89	6.80816E-001	1.22976E-003	0.00000E+000	3.70030E-001	0.00000E+000	10	...........	1583.05
	190	1.9	6.83031E-001	1.22977E-003	0.00000E+000	3.70030E-001	0.00000E+000	10	...........	1583.05
	191	1.91	6.85249E-001	1.22976E-003	0.00000E+000	3.70030E-001	0.00000E+000	10	...........	1583.05
	192	1.92	6.87436E-001	1.22978E-003	0.00000E+000	3.70030E-001	0.00000E+000	10	...........	1583.05
	193	1.93	6.89641E-001	1.22975E-003	0.00000E+000	3.70030E-001	0.00000E+000	10	...........	1583.05
	194	1.94	6.91841E-001	1.22978E-003	0.00000E+000	3.70030E-001	0.00000E+000	10	...........	1583.05
	195	1.95	6.94044E-001	1.22979E-003	0.00000E+000	3.70030E-001	0.00000E+000	10	...........	1583.05
	196	1.96	6.96201E-001	1.22980E-003	0.00000E+000	3.70030E-001	0.00000E+000	10	...........	1583.05
	197	1.97	6.98388E-001	1.22976E-003	0.00000E+000	3.70030E-001	0.00000E+000	10	...........	1583.05
	198	1.98	7.00553E-001	1.22977E-003	0.00000E+000	3.70030E-001	0.00000E+000	10	...........	1583.05
	199	1.99	7.02715E-001	1.22981E-003	0.00000E+000	3.70030E-001	0.00000E+000	10	...........	1583.05
	200	2	7.04897E-001	1.22977E-003	0.00000E+000	3.70030E-001	0.00000E+000	10	...........	1583.05
	201	2.01	7.07045E-001	1.22981E-003	0.00000E+000	3.70030E-001	0.00000E+000	10	...........	1583.05
	202	2.02	7.09182E-001	1.22982E-003	0.00000E+000	3.70030E-001	0.00000E+000	10	...........	1583.05
	203	2.03	7.11337E-001	1.22976E-003	0.00000E+000	3.70030E-001	0.00000E+000	10	...........	1583.05
	204	2.04	7.13445E-001	1.22979E-003	0.00000E+000	3.70030E-001	0.00000E+000	10	...........	1583.05
	205	2.05	7.15574E-001	1.22979E-003	0.00000E+000	3.70030E-001	0.00000E+000	10	...........	1583.05
	206	2.06	7.17713E-001	1.22980E-003	0.00000E+000	3.70030E-001	0.00000E+000	10	...........	1583.05
	207	2.07	7.19843E-001	1.22984E-003	0.00000E+000	3.70030E-001	0.00000E+000	10	...........	1583.05
	208	2.08	7.21955E-001	1.22981E-003	0.00000E+000	3.70030E-001	0.00000E+000	10	...........	1583.05
	209	2.09	7.24061E-001	1.22982E-003	0.00000E+000	3.70030E-001	0.00000E+000	10	...........	1583.05
	210	2.1	7.26134E-001	1.22979E-003	0.00000E+000	3.70030E-001	0.00000E+000	10	...........	1583.05
	211	2.11	7.28224E-001	1.22984E-003	0.00000E+000	3.70030E-001	0.00000E+000	10	...........	1583.05
	212	2.12	7.30325E-001	1.22979E-003	0.00000E+000	3.70030E-001	0.00000E+000	10	...........	1583.05
	213	2.13	7.32410E-001	1.22980E-003	0.00000E+000	3.70030E-001	0.00000E+000	10	...........	1583.05
	214	2.14	7.34453E-001	1.22980E-003	0.00000E+000	3.70030E-001	0.00000E+000	10	...........	1583.05
	215	2.15	7.36523E-001	1.22980E-003	0.00000E+000	3.70030E-001	0.00000E+000	10	...........	1583.05
	216	2.16	7.38580E-001	1.22983E-003	0.00000E+000	3.70030E-001	0.00000E+000	10	...........	1583.05
	217	2.17	7.40596E-001	1.22979E-003	0.00000E+000	3.70030E-001	0.00000E+000	10	...........	1583.05
	218	2.18	7.42660E-001	1.22985E-003	0.00000E+000	3.70030E-001	0.00000E+000	10	...........	1583.05
	219	2.19	7.44694E-001	1.22981E-003	0.00000E+000	3.70030E-001	0.00000E+000	10	...........	1583.05
	220	2.2	7.46712E-001	1.22985E-003	0.00000E+000	3.70030E-001	0.00000E+000	10	...........	1583.05
	221	2.21	7.48710E-001	1.22978E-003	0.00000E+000	3.70030E-001	0.00000E+000	10	...........	1583.05
	222	2.22	7.50718E-001	1.22979E-003	0.00000E+000	3.70030E-001	0.00000E+000	10	...........	1583.05
	223	2.23	7.52709E-001	1.22984E-003	0.00000E+000	3.70030E-001	0.00000E+000	10	...........	1583.05
	224	2.24	7.54685E-001	1.22977E-003	0.00000E+000	3.70030E-001	0.00000E+000	10	...........	1583.05
	225	2.25	7.56674E-001	1.22981E-003	0.00000E+000	3.70030E-001	0.00000E+000	10	...........	1583.05
	226	2.26	7.58649E-001	1.22983E-003	0.00000E+000	3.70030E-001	0.00000E+000	10	...........	1583.05
	227	2.27	7.60591E-001	1.22981E-003	0.00000E+000	3.70030E-001	0.00000E+000	10	...........	1583.05
	228	2.28	7.62555E-001	1.22982E-003	0.00000E+000	3.70030E-001	0.00000E+000	10	...........	1583.05
	229	2.29	7.64478E-001	1.22977E-003	0.00000E+000	3.70030E-001	0.00000E+000	10	...........	1583.05
	230	2.3	7.66408E-001	1.22984E-003	0.00000E+000	3.70030E-001	0.00000E+000	10	...........	1583.05
	231	2.31	7.68353E-001	1.22983E-003	0.00000E+000	3.70030E-001	0.00000E+000	10	...........	1583.05
	232	2.32	7.70286E-001	1.22985E-003	0.00000E+000	3.70030E-001	0.00000E+000	10	...........	1583.05
	233	2.33	7.72198E-001	1.22984E-003	0.00000E+000	3.70030E-001	0.00000E+000	10	...........	1583.05
	234	2.34	7.74078E-001	1.22984E-003	0.00000E+000	3.70030E-001	0.00000E+000	10	...........	1583.08
	235	2.35	7.75957E-001	1.22980E-003	0.00000E+000	3.70030E-001	0.00000E+000	10	...........	1583.15
	236	2.36	7.77843E-001	1.22980E-003	0.00000E+000	3.70030E-001	0.00000E+000	10	...........	1583.15
	237	2.37	7.79708E-001	1.22984E-003	0.00000E+000	3.70030E-001	0.00000E+000	10	...........	1583.15
	238	2.38	7.81591E-001	1.22983E-003	0.00000E+000	3.70030E-001	0.00000E+000	10	...........	1583.15
	239	2.39	7.83449E-001	1.22981E-003	0.00000E+000	3.70030E-001	0.00000E+000	10	...........	1583.15
	240	2.4	7.85281E-001	1.22981E-003	0.00000E+000	3.70030E-001	0.00000E+000	10	...........	1583.15
	241	2.41	7.87103E-001	1.22983E-003	0.00000E+000	3.70030E-001	0.00000E+000	10	...........	1583.15
	242	2.42	7.88928E-001	1.22980E-003	0.00000E+000	3.70030E-001	0.00000E+000	10	...........	1583.15
	243	2.43	7.90722E-001	1.22974E-003	0.00000E+000	3.70030E-001	0.00000E+000	10	...........	1583.15
	244	2.44	7.92529E-001	1.22986E-003	0.00000E+000	3.70030E-001	0.00000E+000	10	...........	1583.15
	245	2.45	7.94315E-001	1.22977E-003	0.00000E+000	3.70030E-001	0.00000E+000	10	...........	1583.15
	246	2.46	7.96120E-001	1.22972E-003	0.00000E+000	3.70030E-001	0.00000E+000	10	...........	1583.15
	247	2.47	7.97879E-001	1.22978E-003	0.00000E+000	3.70030E-001	0.00000E+000	10	...........	1583.15
	248	2.48	7.99637E-001	1.22982E-003	0.00000E+000	3.70030E-001	0.00000E+000	10	...........	1583.15
	249	2.49	8.01402E-001	1.22978E-003	0.00000E+000	3.70030E-001	0.00000E+000	10	...........	1583.15
	250	2.5	8.03115E-001	1.22980E-003	0.00000E+000	3.70030E-001	0.00000E+000	10	...........	1583.15
	251	2.51	8.04852E-001	1.22978E-003	0.00000E+000	3.70030E-001	0.00000E+000	10	...........	1583.15
	252	2.52	7.74882E-001	-1.22966E-003	0.00000E+000	-3.70030E-001	0.00000E+000	10	...........	1583.15
	253	2.53	7.69478E-001	-1.22977E-003	0.00000E+000	-3.70030E-001	0.00000E+000	10	...........	1583.15
	254	2.54	7.64953E-001	-1.22979E-003	0.00000E+000	-3.70030E-001	0.00000E+000	10	...........	1583.15
	255	2.55	7.60866E-001	-1.22983E-003	0.00000E+000	-3.70030E-001	0.00000E+000	10	...........	1583.15
	256	2.56	7.57031E-001	-1.22980E-003	0.00000E+000	-3.70030E-001	0.00000E+000	10	...........	1583.15
	257	2.57	7.53381E-001	-1.22984E-003	0.00000E+000	-3.70030E-001	0.00000E+000	10	...........	1583.15
	258	2.58	7.49817E-001	-1.22986E-003	0.00000E+000	-3.70030E-001	0.00000E+000	10	...........	1583.15
	259	2.59	7.46368E-001	-1.22987E-003	0.00000E+000	-3.70030E-001	0.00000E+000	10	...........	1583.15
	260	2.6	7.42966E-001	-1.22988E-003	0.00000E+000	-3.70030E-001	0.00000E+000	10	...........	1583.15
	261	2.61	7.39636E-001	-1.22986E-003	0.00000E+000	-3.70030E-001	0.00000E+000	10	...........	1583.15
	262	2.62	7.36381E-001	-1.22992E-003	0.00000E+000	-3.70030E-001	0.00000E+000	10	...........	1583.15
	263	2.63	7.33137E-001	-1.22990E-003	0.00000E+000	-3.70030E-001	0.00000E+000	10	...........	1583.15
	264	2.64	7.29949E-001	-1.22995E-003	0.00000E+000	-3.70030E-001	0.00000E+000	10	...........	1583.15
	265	2.65	7.26778E-001	-1.22993E-003	0.00000E+000	-3.70030E-001	0.00000E+000	10	...........	1583.15
	266	2.66	7.23643E-001	-1.22996E-003	0.00000E+000	-3.70030E-001	0.00000E+000	10	...........	1583.15
	267	2.67	7.20534E-001	-1.22995E-003	0.00000E+000	-3.70030E-001	0.00000E+000	10	...........	1583.15
	268	2.68	7.17447E-001	-1.22996E-003	0.00000E+000	-3.70030E-001	0.00000E+000	10	...........	1583.15
	269	2.69	7.14355E-001	-1.22993E-003	0.00000E+000	-3.70030E-001	0.00000E+000	10	...........	1583.15
	270	2.7	7.11290E-001	-1.22994E-003	0.00000E+000	-3.70030E-001	0.00000E+000	10	...........	1583.15
	271	2.71	7.08260E-001	-1.22994E-003	0.00000E+000	-3.70030E-001	0.00000E+000	10	...........	1583.15
	272	2.72	7.05231E-001	-1.22994E-003	0.00000E+000	-3.70030E-001	0.00000E+000	10	...........	1583.15
	273	2.73	7.02194E-001	-1.22991E-003	0.00000E+000	-3.70030E-001	0.00000E+000	10	...........	1583.15
	274	2.74	6.99194E-001	-1.22992E-003	0.00000E+000	-3.70030E-001	0.00000E+000	10	...........	1583.15
	275	2.75	6.96189E-001	-1.22993E-003	0.00000E+000	-3.70030E-001	0.00000E+000	10	...........	1583.15
	276	2.76	6.93213E-001	-1.22994E-003	0.00000E+000	-3.70030E-001	0.00000E+000	10	...........	1583.15
	277	2.77	6.90195E-001	-1.22994E-003	0.00000E+000	-3.70030E-001	0.00000E+000	10	...........	1583.15
	278	2.78	6.87235E-001	-1.22996E-003	0.00000E+000	-3.70030E-001	0.00000E+000	10	...........	1583.15
	279	2.79	6.84278E-001	-1.22990E-003	0.00000E+000	-3.70030E-001	0.00000E+000	10	...........	1583.15
	280	2.8	6.81329E-001	-1.22991E-003	0.00000E+000	-3.70030E-001	0.00000E+000	10	...........	1583.15
	281	2.81	6.78368E-001	-1.22993E-003	0.00000E+000	-3.70030E-001	0.00000E+000	10	...........	1583.15
	282	2.82	6.75423E-001	-1.22995E-003	0.00000E+000	-3.70030E-001	0.00000E+000	10	...........	1583.15
	283	2.83	6.72506E-001	-1.22998E-003	0.00000E+000	-3.70030E-001	0.00000E+000	10	...........	1583.15
	284	2.84	6.69566E-001	-1.22997E-003	0.00000E+000	-3.70030E-001	0.00000E+000	10	...........	1583.15
	285	2.85	6.66631E-001	-1.23000E-003	0.00000E+000	-3.70030E-001	0.00000E+000	10	...........	1583.15
	286	2.86	6.63689E-001	-1.23001E-003	0.00000E+000	-3.70030E-001	0.00000E+000	10	...........	1583.15
	287	2.87	6.60794E-001	-1.22999E-003	0.00000E+000	-3.70030E-001	0.00000E+000	10	...........	1583.15
	288	2.88	6.57898E-001	-1.22993E-003	0.00000E+000	-3.70030E-001	0.00000E+000	10	...........	1583.15
	289	2.89	6.55007E-001	-1.22990E-003	0.00000E+000	-3.70030E-001	0.00000E+000	10	...........	1583.15
	290	2.9	6.52102E-001	-1.22994E-003	0.00000E+000	-3.70030E-001	0.00000E+000	10	...........	1583.15
	291	2.91	6.49228E-001	-1.22996E-003	0.00000E+000	-3.70030E-001	0.00000E+000	10	...........	1583.15
	292	2.92	6.46334E-001	-1.22995E-003	0.00000E+000	-3.70030E-001	0.00000E+000	10	...........	1583.15
	293	2.93	6.43463E-001	-1.23001E-003	0.00000E+000	-3.70030E-001	0.00000E+000	10	...........	1583.15
	294	2.94	6.40596E-001	-1.23000E-003	0.00000E+000	-3.70030E-001	0.00000E+000	10	...........	1583.15
	295	2.95	6.37694E-001	-1.22998E-003	0.00000E+000	-3.70030E-001	0.00000E+000	10	...........	1583.15
	296	2.96	6.34859E-001	-1.23000E-003	0.00000E+000	-3.70030E-001	0.00000E+000	10	...........	1583.15
	297	2.97	6.31997E-001	-1.23001E-003	0.00000E+000	-3.70030E-001	0.00000E+000	10	...........	1583.15
	298	2.98	6.29158E-001	-1.22998E-003	0.00000E+000	-3.70030E-001	0.00000E+000	10	...........	1583.15
	299	2.99	6.26296E-001	-1.23001E-003	0.00000E+000	-3.70030E-001	0.00000E+000	10	...........	1583.15
	300	3	6.23448E-001	-1.22999E-003	0.00000E+000	-3.70030E-001	0.00000E+000	10	...........	1583.15
	301	3.01	6.20627E-001	-1.22999E-003	0.00000E+000	-3.70030E-001	0.00000E+000	10	...........	1583.15
	302	3.02	6.17819E-001	-1.23005E-003	0.00000E+000	-3.70030E-001	0.00000E+000	10	...........	1583.15
	303	3.03	6.14977E-001	-1.23005E-003	0.00000E+000	-3.70030E-001	0.00000E+000	10	...........	1583.15
	304	3.04	6.12136E-001	-1.23003E-003	0.00000E+000	-3.70030E-001	0.00000E+000	10	...........	1583.15
	305	3.05	6.09335E-001	-1.23004E-003	0.00000E+000	-3.70030E-001	0.00000E+000	10	...........	1583.15
	306	3.06	6.06531E-001	-1.23001E-003	0.00000E+000	-3.70030E-001	0.00000E+000	10	...........	1583.15
	307	3.07	6.03742E-001	-1.23004E-003	0.00000E+000	-3.70030E-001	0.00000E+000	10	...........	1583.15
	308	3.08	6.00937E-001	-1.22998E-003	0.00000E+000	-3.70030E-001	0.00000E+000	10	...........	1583.15
	309	3.09	5.98142E-001	-1.22999E-003	0.00000E+000	-3.70030E-001	0.00000E+000	10	...........	1583.15
	310	3.1	5.95382E-001	-1.22999E-003	0.00000E+000	-3.70030E-001	0.00000E+000	10	...........	1583.15
	311	3.11	5.92603E-001	-1.22994E-003	0.00000E+000	-3.70030E-001	0.00000E+000	10	...........	1583.15
	312	3.12	5.89843E-001	-1.23004E-003	0.00000E+000	-3.70030E-001	0.00000E+000	10	...........	1583.15
	313	3.13	5.87061E-001	-1.22997E-003	0.00000E+000	-3.70030E-001	0.00000E+000	10	...........	1583.15
	314	3.14	5.84301E-001	-1.23000E-003	0.00000E+000	-3.70030E-001	0.00000E+000	10	...........	1583.15
	315	3.15	5.81549E-001	-1.22997E-003	0.00000E+000	-3.70030E-001	0.00000E+000	10	...........	1583.15
	316	3.16	5.78807E-001	-1.23000E-003	0.00000E+000	-3.70030E-001	0.00000E+000	10	...........	1583.15
	317	3.17	5.76063E-001	-1.23002E-003	0.00000E+000	-3.70030E-001	0.00000E+000	10	...........	1583.15
	318	3.18	5.73346E-001	-1.22998E-003	0.00000E+000	-3.70030E-001	0.00000E+000	10	...........	1583.15
	319	3.19	5.70631E-001	-1.22999E-003	0.00000E+000	-3.70030E-001	0.00000E+000	10	...........	1583.15
	320	3.2	5.67904E-001	-1.22999E-003	0.00000E+000	-3.70030E-001	0.00000E+000	10	...........	1583.15
	321	3.21	5.65199E-001	-1.22998E-003	0.00000E+000	-3.70030E-001	0.00000E+000	10	...........	1583.15
	322	3.22	5.62477E-001	-1.22994E-003	0.00000E+000	-3.70030E-001	0.00000E+000	10	...........	1583.15
	323	3.23	5.59778E-001	-1.22994E-003	0.00000E+000	-3.70030E-001	0.00000E+000	10	...........	1583.15
	324	3.24	5.57103E-001	-1.22998E-003	0.00000E+000	-3.70030E-001	0.00000E+000	10	...........	1583.15
	325	3.25	5.54412E-001	-1.22996E-003	0.00000E+000	-3.70030E-001	0.00000E+000	10	...........	1583.15
	326	3.26	5.51722E-001	-1.22998E-003	0.00000E+000	-3.70030E-001	0.00000E+000	10	...........	1583.15
	327	3.27	5.49038E-001	-1.22999E-003	0.00000E+000	-3.70030E-001	0.00000E+000	10	...........	1583.15
	328	3.28	5.46377E-001	-1.22998E-003	0.00000E+000	-3.70030E-001	0.00000E+000	10	...........	1583.15
	329	3.29	5.43705E-001	-1.23002E-003	0.00000E+000	-3.70030E-001	0.00000E+000	10	...........	1583.15
	330	3.3	5.41064E-001	-1.23004E-003	0.00000E+000	-3.70030E-001	0.00000E+000	10	...........	1583.15
	331	3.31	5.38423E-001	-1.23001E-003	0.00000E+000	-3.70030E-001	0.00000E+000	10	...........	1583.15
	332	3.32	5.35765E-001	-1.22998E-003	0.00000E+000	-3.70030E-001	0.00000E+000	10	...........	1583.15
	333	3.33	5.33118E-001	-1.22998E-003	0.00000E+000	-3.70030E-001	0.00000E+000	10	...........	1583.15
	334	3.34	5.30499E-001	-1.23000E-003	0.00000E+000	-3.70030E-001	0.00000E+000	10	...........	1583.15
	335	3.35	5.27888E-001	-1.22998E-003	0.00000E+000	-3.70030E-001	0.00000E+000	10	...........	1583.15
	336	3.36	5.25285E-001	-1.22997E-003	0.00000E+000	-3.70030E-001	0.00000E+000	10	...........	1583.15
	337	3.37	5.22662E-001	-1.23001E-003	0.00000E+000	-3.70030E-001	0.00000E+000	10	...........	1583.15
	338	3.38	5.20032E-001	-1.22999E-003	0.00000E+000	-3.70030E-001	0.00000E+000	10	...........	1583.15
	339	3.39	5.17435E-001	-1.23002E-003	0.00000E+000	-3.70030E-001	0.00000E+000	10	...........	1583.15
	340	3.4	5.14862E-001	-1.22998E-003	0.00000E+000	-3.70030E-001	0.00000E+000	10	...........	1583.15
	341	3.41	5.12273E-001	-1.23000E-003	0.00000E+000	-3.70030E-001	0.00000E+000	10	...........	1583.15
	342	3.42	5.09680E-001	-1.22996E-003	0.00000E+000	-3.70030E-001	0.00000E+000	10	...........	1583.15
	343	3.43	5.07105E-001	-1.23001E-003	0.00000E+000	-3.70030E-001	0.00000E+000	10	...........	1583.15
	344	3.44	5.04550E-001	-1.23000E-003	0.00000E+000	-3.70030E-001	0.00000E+000	10	...........	1583.15
	345	3.45	5.01991E-001	-1.22998E-003	0.00000E+000	-3.70030E-001	0.00000E+000	10	...........	1583.15
	346	3.46	4.99438E-001	-1.22999E-003	0.00000E+000	-3.70030E-001	0.00000E+000	10	...........	1583.15
	347	3.47	4.96879E-001	-1.23001E-003	0.00000E+000	-3.70030E-001	0.00000E+000	10	...........	1583.15
	348	3.48	4.94341E-001	-1.23003E-003	0.00000E+000	-3.70030E-001	0.00000E+000	10	...........	1583.15
	349	3.49	4.91807E-001	-1.23003E-003	0.00000E+000	-3.70030E-001	0.00000E+000	10	...........	1583.15
	350	3.5	4.89284E-001	-1.22997E-003	0.00000E+000	-3.70030E-001	0.00000E+000	10	...........	1583.15
	351	3.51	4.86759E-001	-1.23002E-003	0.00000E+000	-3.70030E-001	0.00000E+000	10	...........	1583.15
	352	3.52	4.84229E-001	-1.22999E-003	0.00000E+000	-3.70030E-001	0.00000E+000	10	...........	1583.15
	353	3.53	4.81732E-001	-1.23002E-003	0.00000E+000	-3.70030E-001	0.00000E+000	10	...........	1583.15
	354	3.54	4.79232E-001	-1.23002E-003	0.00000E+000	-3.70030E-001	0.00000E+000	10	...........	1583.15
	355	3.55	4.76746E-001	-1.22995E-003	0.00000E+000	-3.70030E-001	0.00000E+000	10	...........	1583.15
	356	3.56	4.74243E-001	-1.22996E-003	0.00000E+000	-3.70030E-001	0.00000E+000	10	...........	1583.15
	357	3.57	4.71738E-001	-1.22994E-003	0.00000E+000	-3.70030E-001	0.00000E+000	10	...........	1583.15
	358	3.58	4.69290E-001	-1.22999E-003	0.00000E+000	-3.70030E-001	0.00000E+000	10	...........	1583.15
	359	3.59	4.66801E-001	-1.22999E-003	0.00000E+000	-3.70030E-001	0.00000E+000	10	...........	1583.15
	360	3.6	4.64334E-001	-1.22997E-003	0.00000E+000	-3.70030E-001	0.00000E+000	10	...........	1583.15
	361	3.61	4.61882E-001	-1.22997E-003	0.00000E+000	-3.70030E-001	0.00000E+000	10	...........	1583.15
	362	3.62	4.59408E-001	-1.22999E-003	0.00000E+000	-3.70030E-001	0.00000E+000	10	...........	1583.15
	363	3.63	4.56947E-001	-1.23000E-003	0.00000E+000	-3.70030E-001	0.00000E+000	10	...........	1583.15
	364	3.64	4.54492E-001	-1.23000E-003	0.00000E+000	-3.70030E-001	0.00000E+000	10	...........	1583.15
	365	3.65	4.52070E-001	-1.23000E-003	0.00000E+000	-3.70030E-001	0.00000E+000	10	...........	1583.15
	366	3.66	4.49628E-001	-1.23004E-003	0.00000E+000	-3.70030E-001	0.00000E+000	10	...........	1583.15
	367	3.67	4.47198E-001	-1.23001E-003	0.00000E+000	-3.70030E-001	0.00000E+000	10	...........	1583.15
	368	3.68	4.44766E-001	-1.22999E-003	0.00000E+000	-3.70030E-001	0.00000E+000	10	...........	1583.15
	369	3.69	4.42378E-001	-1.23002E-003	0.00000E+000	-3.70030E-001	0.00000E+000	10	...........	1583.15
	370	3.7	4.39961E-001	-1.22997E-003	0.00000E+000	-3.70030E-001	0.00000E+000	10	...........	1583.15
	371	3.71	4.37556E-001	-1.22998E-003	0.00000E+000	-3.70030E-001	0.00000E+000	10	...........	1583.15
	372	3.72	4.35162E-001	-1.22998E-003	0.00000E+000	-3.70030E-001	0.00000E+000	10	...........	1583.15
	373	3.73	4.32757E-001	-1.22996E-003	0.00000E+000	-3.70030E-001	0.00000E+000	10	...........	1583.15
	374	3.74	4.30371E-001	-1.22993E-003	0.00000E+000	-3.70030E-001	0.00000E+000	10	...........	1583.15
	375	3.75	4.27985E-001	-1.22994E-003	0.00000E+000	-3.70030E-001	0.00000E+000	10	...........	1583.15
	376	3.76	4.25621E-001	-1.23000E-003	0.00000E+000	-3.70030E-001	0.00000E+000	10	...........	1583.15
	377	3.77	4.23255E-001	-1.23001E-003	0.00000E+000	-3.70030E-001	0.00000E+000	10	...........	1583.15
	378	3.78	4.20874E-001	-1.23001E-003	0.00000E+000	-3.70030E-001	0.00000E+000	10	...........	1583.15
	379	3.79	4.18524E-001	-1.23002E-003	0.00000E+000	-3.70030E-001	0.00000E+000	10	...........	1583.15
	380	3.8	4.16172E-001	-1.22999E-003	0.00000E+000	-3.70030E-001	0.00000E+000	10	...........	1583.15
	381	3.81	4.13825E-001	-1.23000E-003	0.00000E+000	-3.70030E-001	0.00000E+000	10	...........	1583.15
	382	3.82	4.11486E-001	-1.22994E-003	0.00000E+000	-3.70030E-001	0.00000E+000	10	...........	1583.15
	383	3.83	4.09149E-001	-1.22996E-003	0.00000E+000	-3.70030E-001	0.00000E+000	10	...........	1583.15
	384	3.84	4.06793E-001	-1.22994E-003	0.00000E+000	-3.70030E-001	0.00000E+000	10	...........	1583.15
	385	3.85	4.04470E-001	-1.22996E-003	0.00000E+000	-3.70030E-001	0.00000E+000	10	...........	1583.15
	386	3.86	4.02161E-001	-1.22999E-003	0.00000E+000	-3.70030E-001	0.00000E+000	10	...........	1583.15
	387	3.87	3.99833E-001	-1.22999E-003	0.00000E+000	-3.70030E-001	0.00000E+000	10	...........	1583.15
	388	3.88	3.97527E-001	-1.23004E-003	0.00000E+000	-3.70030E-001	0.00000E+000	10	...........	1583.15
	389	3.89	3.95194E-001	-1.23002E-003	0.00000E+000	-3.70030E-001	0.00000E+000	10	...........	1583.15
	390	3.9	3.92895E-001	-1.23000E-003	0.00000E+000	-3.70030E-001	0.00000E+000	10	...........	1583.15
	391	3.91	3.90585E-001	-1.23002E-003	0.00000E+000	-3.70030E-001	0.00000E+000	10	...........	1583.15
	392	3.92	3.88297E-001	-1.23001E-003	0.00000E+000	-3.70030E-001	0.00000E+000	10	...........	1583.15
	393	3.93	3.86021E-001	-1.23002E-003	0.00000E+000	-3.70030E-001	0.00000E+000	10	...........	1583.15
	394	3.94	3.83711E-001	-1.23002E-003	0.00000E+000	-3.70030E-001	0.00000E+000	10	...........	1583.15
	395	3.95	3.81447E-001	-1.22996E-003	0.00000E+000	-3.70030E-001	0.00000E+000	10	...........	1583.15
	396	3.96	3.79171E-001	-1.23001E-003	0.00000E+000	-3.70030E-001	0.00000E+000	10	...........	1583.15
	397	3.97	3.76900E-001	-1.23000E-003	0.00000E+000	-3.70030E-001	0.00000E+000	10	...........	1583.15
	398	3.98	3.74632E-001	-1.23002E-003	0.00000E+000	-3.70030E-001	0.00000E+000	10	...........	1583.15
	399	3.99	3.72405E-001	-1.22998E-003	0.00000E+000	-3.70030E-001	0.00000E+000	10	...........	1583.15
	400	4	3.70136E-001	-1.23001E-003	0.00000E+000	-3.70030E-001	0.00000E+000	10	...........	1583.15
	401	4.01	3.67872E-001	-1.22999E-003	0.00000E+000	-3.70030E-001	0.00000E+000	10	...........	1583.15
	402	4.02	3.65656E-001	-1.22998E-003	0.00000E+000	-3.70030E-001	0.00000E+000	10	...........	1583.15
	403	4.03	3.63407E-001	-1.22998E-003	0.00000E+000	-3.70030E-001	0.00000E+000	10	...........	1583.15
	404	4.04	3.61176E-001	-1.23003E-003	0.00000E+000	-3.70030E-001	0.00000E+000	10	...........	1583.15
	405	4.05	3.58946E-001	-1.23000E-003	0.00000E+000	-3.70030E-001	0.00000E+000	10	...........	1583.15
	406	4.06	3.56694E-001	-1.22995E-003	0.00000E+000	-3.70030E-001	0.00000E+000	10	...........	1583.15
	407	4.07	3.54466E-001	-1.23001E-003	0.00000E+000	-3.70030E-001	0.00000E+000	10	...........	1583.15
	408	4.08	3.52264E-001	-1.22999E-003	0.00000E+000	-3.70030E-001	0.00000E+000	10	...........	1583.15
	409	4.09	3.50059E-001	-1.23000E-003	0.00000E+000	-3.70030E-001	0.00000E+000	10	...........	1583.15
	410	4.1	3.47858E-001	-1.22996E-003	0.00000E+000	-3.70030E-001	0.00000E+000	10	...........	1583.15
	411	4.11	3.45657E-001	-1.22994E-003	0.00000E+000	-3.70030E-001	0.00000E+000	10	...........	1583.15
	412	4.12	3.43458E-001	-1.22994E-003	0.00000E+000	-3.70030E-001	0.00000E+000	10	...........	1583.15
	413	4.13	3.41244E-001	-1.22997E-003	0.00000E+000	-3.70030E-001	0.00000E+000	10	...........	1583.15
	414	4.14	3.39053E-001	-1.23001E-003	0.00000E+000	-3.70030E-001	0.00000E+000	10	...........	1583.15
	415	4.15	3.36882E-001	-1.23006E-003	0.00000E+000	-3.70030E-001	0.00000E+000	10	...........	1583.15
	416	4.16	3.34702E-001	-1.23002E-003	0.00000E+000	-3.70030E-001	0.00000E+000	10	...........	1583.15
	417	4.17	3.32497E-001	-1.23005E-003	0.00000E+000	-3.70030E-001	0.00000E+000	10	...........	1583.15
	418	4.18	3.30340E-001	-1.23001E-003	0.00000E+000	-3.70030E-001	0.00000E+000	10	...........	1583.15
	419	4.19	3.28177E-001	-1.23004E-003	0.00000E+000	-3.70030E-001	0.00000E+000	10	...........	1583.15
	420	4.2	3.26024E-001	-1.23001E-003	0.00000E+000	-3.70030E-001	0.00000E+000	10	...........	1583.15
	421	4.21	3.23859E-001	-1.23002E-003	0.00000E+000	-3.70030E-001	0.00000E+000	10	...........	1583.15
	422	4.22	3.21721E-001	-1.23000E-003	0.00000E+000	-3.70030E-001	0.00000E+000	10	...........	1583.15
	423	4.23	3.19542E-001	-1.22999E-003	0.00000E+000	-3.70030E-001	0.00000E+000	10	...........	1583.15
	424	4.24	3.17413E-001	-1.23001E-003	0.00000E+000	-3.70030E-001	0.00000E+000	10	...........	1583.15
	425	4.25	3.15296E-001	-1.23001E-003	0.00000E+000	-3.70030E-001	0.00000E+000	10	...........	1583.15
	426	4.26	3.13140E-001	-1.22997E-003	0.00000E+000	-3.70030E-001	0.00000E+000	10	...........	1583.15
	427	4.27	3.11025E-001	-1.22999E-003	0.00000E+000	-3.70030E-001	0.00000E+000	10	...........	1583.15
	428	4.28	3.08901E-001	-1.23001E-003	0.00000E+000	-3.70030E-001	0.00000E+000	10	...........	1583.15
	429	4.29	3.06747E-001	-1.23000E-003	0.00000E+000	-3.70030E-001	0.00000E+000	10	...........	1583.15
	430	4.3	3.04646E-001	-1.22994E-003	0.00000E+000	-3.70030E-001	0.00000E+000	10	...........	1583.15
	431	4.31	3.02543E-001	-1.22996E-003	0.00000E+000	-3.70030E-001	0.00000E+000	10	...........	1583.15
	432	4.32	3.00420E-001	-1.22991E-003	0.00000E+000	-3.70030E-001	0.00000E+000	10	...........	1583.15
	433	4.33	2.98323E-001	-1.22992E-003	0.00000E+000	-3.70030E-001	0.00000E+000	10	...........	1583.15
	434	4.34	2.96210E-001	-1.22998E-003	0.00000E+000	-3.70030E-001	0.00000E+000	10	...........	1583.15
	435	4.35	2.94094E-001	-1.22994E-003	0.00000E+000	-3.70030E-001	0.00000E+000	10	...........	1583.15
	436	4.36	2.92012E-001	-1.22997E-003	0.00000E+000	-3.70030E-001	0.00000E+000	10	...........	1583.15
	437	4.37	2.89948E-001	-1.22998E-003	0.00000E+000	-3.70030E-001	0.00000E+000	10	...........	1583.15
	438	4.38	2.87865E-001	-1.22991E-003	0.00000E+000	-3.70030E-001	0.00000E+000	10	...........	1583.15
	439	4.39	2.85784E-001	-1.22998E-003	0.00000E+000	-3.70030E-001	0.00000E+000	10	...........	1583.15
	440	4.4	2.83724E-001	-1.22998E-003	0.00000E+000	-3.70030E-001	0.00000E+000	10	...........	1583.15
	441	4.41	2.81615E-001	-1.22996E-003	0.00000E+000	-3.70030E-001	0.00000E+000	10	...........	1583.15
	442	4.42	2.79558E-001	-1.22999E-003	0.00000E+000	-3.70030E-001	0.00000E+000	10	...........	1583.15
	443	4.43	2.77490E-001	-1.23004E-003	0.00000E+000	-3.70030E-001	0.00000E+000	10	...........	1583.15
	444	4.44	2.75443E-001	-1.23005E-003	0.00000E+000	-3.70030E-001	0.00000E+000	10	...........	1583.15
	445	4.45	2.73405E-001	-1.22996E-003	0.00000E+000	-3.70030E-001	0.00000E+000	10	...........	1583.15
	446	4.46	2.71359E-001	-1.22996E-003	0.00000E+000	-3.70030E-001	0.00000E+000	10	...........	1583.15
	447	4.47	2.69338E-001	-1.22998E-003	0.00000E+000	-3.70030E-001	0.00000E+000	10	...........	1583.15
	448	4.48	2.67258E-001	-1.22999E-003	0.00000E+000	-3.70030E-001	0.00000E+000	10	...........	1583.15
	449	4.49	2.65203E-001	-1.23002E-003	0.00000E+000	-3.70030E-001	0.00000E+000	10	...........	1583.15
	450	4.5	2.63187E-001	-1.23001E-003	0.00000E+000	-3.70030E-001	0.00000E+000	10	...........	1583.15
	451	4.51	2.61160E-001	-1.22997E-003	0.00000E+000	-3.70030E-001	0.00000E+000	10	...........	1583.15
	452	4.52	2.59141E-001	-1.22997E-003	0.00000E+000	-3.70030E-001	0.00000E+000	10	...........	1583.15
	453	4.53	2.57136E-001	-1.22994E-003	0.00000E+000	-3.70030E-001	0.00000E+000	10	...........	1583.15
	454	4.54	2.55103E-001	-1.22997E-003	0.00000E+000	-3.70030E-001	0.00000E+000	10	...........	1583.15
	455	4.55	2.53085E-001	-1.22992E-003	0.00000E+000	-3.70030E-001	0.00000E+000	10	...........	1583.15
	456	4.56	2.51093E-001	-1.22994E-003	0.00000E+000	-3.70030E-001	0.00000E+000	10	...........	1583.15
	457	4.57	2.49075E-001	-1.22998E-003	0.00000E+000	-3.70030E-001	0.00000E+000	10	...........	1583.15
	458	4.58	2.47090E-001	-1.22998E-003	0.00000E+000	-3.70030E-001	0.00000E+000	10	...........	1583.15
	459	4.59	2.45099E-001	-1.22997E-003	0.00000E+000	-3.70030E-001	0.00000E+000	10	...........	1583.15
	460	4.6	2.43113E-001	-1.22995E-003	0.00000E+000	-3.70030E-001	0.00000E+000	10	...........	1583.15
	461	4.61	2.41142E-001	-1.22993E-003	0.00000E+000	-3.70030E-001	0.00000E+000	10	...........	1583.15
	462	4.62	2.39159E-001	-1.22995E-003	0.00000E+000	-3.70030E-001	0.00000E+000	10	...........	1583.15
	463	4.63	2.37188E-001	-1.22992E-003	0.00000E+000	-3.70030E-001	0.00000E+000	10	...........	1583.15
	464	4.64	2.35215E-001	-1.22995E-003	0.00000E+000	-3.70030E-001	0.00000E+000	10	...........	1583.15
	465	4.65	2.33250E-001	-1.22994E-003	0.00000E+000	-3.70030E-001	0.00000E+000	10	...........	1583.15
	466	4.66	2.31285E-001	-1.22999E-003	0.00000E+000	-3.70030E-001	0.00000E+000	10	...........	1583.15
	467	4.67	2.29327E-001	-1.22996E-003	0.00000E+000	-3.70030E-001	0.00000E+000	10	...........	1583.15
	468	4.68	2.27372E-001	-1.22994E-003	0.00000E+000	-3.70030E-001	0.00000E+000	10	...........	1583.15
	469	4.69	2.25427E-001	-1.22995E-003	0.00000E+000	-3.70030E-001	0.00000E+000	10	...........	1583.15
	470	4.7	2.23477E-001	-1.23002E-003	0.00000E+000	-3.70030E-001	0.00000E+000	10	...........	1583.15
	471	4.71	2.21538E-001	-1.22996E-003	0.00000E+000	-3.70030E-001	0.00000E+000	10	...........	1583.15
	472	4.72	2.19602E-001	-1.23000E-003	0.00000E+000	-3.70030E-001	0.00000E+000	10	...........	1583.15
	473	4.73	2.17667E-001	-1.22996E-003	0.00000E+000	-3.70030E-001	0.00000E+000	10	...........	1583.15
	474	4.74	2.15740E-001	-1.22993E-003	0.00000E+000	-3.70030E-001	0.00000E+000	10	...........	1583.15
	475	4.75	2.13820E-001	-1.22994E-003	0.00000E+000	-3.70030E-001	0.00000E+000	10	...........	1583.15
	476	4.76	2.11902E-001	-1.22995E-003	0.00000E+000	-3.70030E-001	0.00000E+000	10	...........	1583.15
	477	4.77	2.09984E-001	-1.22995E-003	0.00000E+000	-3.70030E-001	0.00000E+000	10	...........	1583.15
	478	4.78	2.08074E-001	-1.22996E-003	0.00000E+000	-3.70030E-001	0.00000E+000	10	...........	1583.15
	479	4.79	2.06168E-001	-1.22998E-003	0.00000E+000	-3.70030E-001	0.00000E+000	10	...........	1583.15
	480	4.8	2.04265E-001	-1.22996E-003	0.00000E+000	-3.70030E-001	0.00000E+000	10	...........	1583.15
	481	4.81	2.02366E-001	-1.22998E-003	0.00000E+000	-3.70030E-001	0.00000E+000	10	...........	1583.15
	482	4.82	2.00473E-001	-1.22994E-003	0.00000E+000	-3.70030E-001	0.00000E+000	10	...........	1583.15
	483	4.83	1.98586E-001	-1.22998E-003	0.00000E+000	-3.70030E-001	0.00000E+000	10	...........	1583.15
	484	4.84	1.96701E-001	-1.22998E-003	0.00000E+000	-3.70030E-001	0.00000E+000	10	...........	1583.15
	485	4.85	1.94824E-001	-1.23001E-003	0.00000E+000	-3.70030E-001	0.00000E+000	10	...........	1583.15
	486	4.86	1.92946E-001	-1.22996E-003	0.00000E+000	-3.70030E-001	0.00000E+000	10	...........	1583.15
	487	4.87	1.91079E-001	-1.22999E-003	0.00000E+000	-3.70030E-001	0.00000E+000	10	...........	1583.15
	488	4.88	1.89209E-001	-1.22998E-003	0.00000E+000	-3.70030E-001	0.00000E+000	10	...........	1583.15
	489	4.89	1.87349E-001	-1.23000E-003	0.00000E+000	-3.70030E-001	0.00000E+000	10	...........	1583.15
	490	4.9	1.85495E-001	-1.22997E-003	0.00000E+000	-3.70030E-001	0.00000E+000	10	...........	1583.15
	491	4.91	1.83639E-001	-1.22996E-003	0.00000E+000	-3.70030E-001	0.00000E+000	10	...........	1583.15
	492	4.92	1.81792E-001	-1.22998E-003	0.00000E+000	-3.70030E-001	0.00000E+000	10	...........	1583.15
	493	4.93	1.79948E-001	-1.22998E-003	0.00000E+000	-3.70030E-001	0.00000E+000	10	...........	1583.15
	494	4.94	1.78108E-001	-1.22998E-003	0.00000E+000	-3.70030E-001	0.00000E+000	10	...........	1583.15
	495	4.95	1.76273E-001	-1.22999E-003	0.00000E+000	-3.70030E-001	0.00000E+000	10	...........	1583.15
	496	4.96	1.74445E-001	-1.23001E-003	0.00000E+000	-3.70030E-001	0.00000E+000	10	...........	1583.15
	497	4.97	1.72611E-001	-1.23001E-003	0.00000E+000	-3.70030E-001	0.00000E+000	10	...........	1583.15
	498	4.98	1.70789E-001	-1.23003E-003	0.00000E+000	-3.70030E-001	0.00000E+000	10	...........	1583.15
	499	4.99	1.68975E-001	-1.23002E-003	0.00000E+000	-3.70030E-001	0.00000E+000	10	...........	1583.15
	500	5	1.67167E-001	-1.23003E-003	0.00000E+000	-3.70030E-001	0.00000E+000	10	...........	1583.15
	501	5.01	1.65360E-001	-1.23001E-003	0.00000E+000	-3.70030E-001	0.00000E+000	10	...........	1583.15
	502	5.02	1.63555E-001	-1.23005E-003	0.00000E+000	-3.70030E-001	0.00000E+000	10	...........	1583.15
	503	5.03	1.61760E-001	-1.23001E-003	0.00000E+000	-3.70030E-001	0.00000E+000	10	...........	1583.15
	504	5.04	1.59963E-001	-1.23006E-003	0.00000E+000	-3.70030E-001	0.00000E+000	10	...........	1583.15
	505	5.05	1.58168E-001	-1.23000E-003	0.00000E+000	-3.70030E-001	0.00000E+000	10	...........	1583.15
	506	5.06	1.56387E-001	-1.23003E-003	0.00000E+000	-3.70030E-001	0.00000E+000	10	...........	1583.15
	507	5.07	1.54606E-001	-1.23003E-003	0.00000E+000	-3.70030E-001	0.00000E+000	10	...........	1583.15
	508	5.08	1.52830E-001	-1.23005E-003	0.00000E+000	-3.70030E-001	0.00000E+000	10	...........	1583.15
	509	5.09	1.51057E-001	-1.23004E-003	0.00000E+000	-3.70030E-001	0.00000E+000	10	...........	1583.15
	510	5.1	1.49291E-001	-1.23005E-003	0.00000E+000	-3.70030E-001	0.00000E+000	10	...........	1583.15
	511	5.11	1.47529E-001	-1.23001E-003	0.00000E+000	-3.70030E-001	0.00000E+000	10	...........	1583.15
	512	5.12	1.45770E-001	-1.22999E-003	0.00000E+000	-3.70030E-001	0.00000E+000	10	...........	1583.15
	513	5.13	1.44016E-001	-1.23002E-003	0.00000E+000	-3.70030E-001	0.00000E+000	10	...........	1583.15
	514	5.14	1.42267E-001	-1.23001E-003	0.00000E+000	-3.70030E-001	0.00000E+000	10	...........	1583.15
	515	5.15	1.40523E-001	-1.23001E-003	0.00000E+000	-3.70030E-001	0.00000E+000	10	...........	1583.15
	516	5.16	1.38783E-001	-1.23002E-003	0.00000E+000	-3.70030E-001	0.00000E+000	10	...........	1583.15
	517	5.17	1.37050E-001	-1.22997E-003	0.00000E+000	-3.70030E-001	0.00000E+000	10	...........	1583.15
	518	5.18	1.35318E-001	-1.22996E-003	0.00000E+000	-3.70030E-001	0.00000E+000	10	...........	1583.15
	519	5.19	1.33593E-001	-1.22997E-003	0.00000E+000	-3.70030E-001	0.00000E+000	10	...........	1583.15
	520	5.2	1.31874E-001	-1.22996E-003	0.00000E+000	-3.70030E-001	0.00000E+000	10	...........	1583.15
	521	5.21	1.30153E-001	-1.22997E-003	0.00000E+000	-3.70030E-001	0.00000E+000	10	...........	1583.15
	522	5.22	1.28446E-001	-1.22997E-003	0.00000E+000	-3.70030E-001	0.00000E+000	10	...........	1583.15
	523	5.23	1.26739E-001	-1.22996E-003	0.00000E+000	-3.70030E-001	0.00000E+000	10	...........	1583.15
	524	5.24	1.25031E-001	-1.23001E-003	0.00000E+000	-3.70030E-001	0.00000E+000	10	...........	1583.15
	525	5.25	1.23336E-001	-1.22998E-003	0.00000E+000	-3.70030E-001	0.00000E+000	10	...........	1583.15
	526	5.26	1.21643E-001	-1.22998E-003	0.00000E+000	-3.70030E-001	0.00000E+000	10	...........	1583.15
	527	5.27	1.19951E-001	-1.22998E-003	0.00000E+000	-3.70030E-001	0.00000E+000	10	...........	1583.15
	528	5.28	1.18269E-001	-1.22995E-003	0.00000E+000	-3.70030E-001	0.00000E+000	10	...........	1583.15
	529	5.29	1.16586E-001	-1.22998E-003	0.00000E+000	-3.70030E-001	0.00000E+000	10	...........	1583.15
	530	5.3	1.14914E-001	-1.22995E-003	0.00000E+000	-3.70030E-001	0.00000E+000	10	...........	1583.15
	531	5.31	1.13243E-001	-1.22999E-003	0.00000E+000	-3.70030E-001	0.00000E+000	10	...........	1583.15
	532	5.32	1.11576E-001	-1.22999E-003	0.00000E+000	-3.70030E-001	0.00000E+000	10	...........	1583.15
	533	5.33	1.09916E-001	-1.23003E-003	0.00000E+000	-3.70030E-001	0.00000E+000	10	...........	1583.15
	534	5.34	1.08258E-001	-1.22997E-003	0.00000E+000	-3.70030E-001	0.00000E+000	10	...........	1583.15
	535	5.35	1.06610E-001	-1.22999E-003	0.00000E+000	-3.70030E-001	0.00000E+000	10	...........	1583.15
	536	5.36	1.04965E-001	-1.23000E-003	0.00000E+000	-3.70030E-001	0.00000E+000	10	...........	1583.15
	537	5.37	1.03319E-001	-1.22997E-003	0.00000E+000	-3.70030E-001	0.00000E+000	10	...........	1583.15
	538	5.38	1.01680E-001	-1.22998E-003	0.00000E+000	-3.70030E-001	0.00000E+000	10	...........	1583.15
	539	5.39	1.00047E-001	-1.23001E-003	0.00000E+000	-3.70030E-001	0.00000E+000	10	...........	1583.15
	540	5.4	9.84198E-002	-1.22997E-003	0.00000E+000	-3.70030E-001	0.00000E+000	10	...........	1583.15
	541	5.41	9.67946E-002	-1.23001E-003	0.00000E+000	-3.70030E-001	0.00000E+000	10	...........	1583.15
	542	5.42	9.51781E-002	-1.22998E-003	0.00000E+000	-3.70030E-001	0.00000E+000	10	...........	1583.15
	543	5.43	9.35674E-002	-1.22997E-003	0.00000E+000	-3.70030E-001	0.00000E+000	10	...........	1583.15
	544	5.44	9.19549E-002	-1.22998E-003	0.00000E+000	-3.70030E-001	0.00000E+000	10	...........	1583.15
	545	5.45	9.03520E-002	-1.23003E-003	0.00000E+000	-3.70030E-001	0.00000E+000	10	...........	1583.15
	546	5.46	8.87506E-002	-1.22999E-003	0.00000E+000	-3.70030E-001	0.00000E+000	10	...........	1583.15
	547	5.47	8.71573E-002	-1.23001E-003	0.00000E+000	-3.70030E-001	0.00000E+000	10	...........	1583.15
	548	5.48	8.55657E-002	-1.22999E-003	0.00000E+000	-3.70030E-001	0.00000E+000	10	...........	1583.15
	549	5.49	8.39809E-002	-1.22996E-003	0.00000E+000	-3.70030E-001	0.00000E+000	10	...........	1583.15
	550	5.5	8.24024E-002	-1.22993E-003	0.00000E+000	-3.70030E-001	0.00000E+000	10	...........	1583.15
	551	5.51	8.08272E-002	-1.23003E-003	0.00000E+000	-3.70030E-001	0.00000E+000	10	...........	1583.15
	552	5.52	7.92548E-002	-1.23001E-003	0.00000E+000	-3.70030E-001	0.00000E+000	10	...........	1583.15
	553	5.53	7.76875E-002	-1.23002E-003	0.00000E+000	-3.70030E-001	0.00000E+000	10	...........	1583.15
	554	5.54	7.61222E-002	-1.23006E-003	0.00000E+000	-3.70030E-001	0.00000E+000	10	...........	1583.15
	555	5.55	7.45664E-002	-1.23007E-003	0.00000E+000	-3.70030E-001	0.00000E+000	10	...........	1583.15
	556	5.56	7.30142E-002	-1.23002E-003	0.00000E+000	-3.70030E-001	0.00000E+000	10	...........	1583.15
	557	5.57	7.14626E-002	-1.23003E-003	0.00000E+000	-3.70030E-001	0.00000E+000	10	...........	1583.15
	558	5.58	6.99226E-002	-1.23001E-003	0.00000E+000	-3.70030E-001	0.00000E+000	10	...........	1583.15
	559	5.59	6.83813E-002	-1.23002E-003	0.00000E+000	-3.70030E-001	0.00000E+000	10	...........	1583.15
	560	5.6	6.68515E-002	-1.23003E-003	0.00000E+000	-3.70030E-001	0.00000E+000	10	...........	1583.15
	561	5.61	6.53255E-002	-1.23004E-003	0.00000E+000	-3.70030E-001	0.00000E+000	10	...........	1583.15
	562	5.62	6.37946E-002	-1.23002E-003	0.00000E+000	-3.70030E-001	0.00000E+000	10	...........	1583.15
	563	5.63	6.22808E-002	-1.23000E-003	0.00000E+000	-3.70030E-001	0.00000E+000	10	...........	1583.15
	564	5.64	6.07657E-002	-1.23001E-003	0.00000E+000	-3.70030E-001	0.00000E+000	10	...........	1583.15
	565	5.65	5.92587E-002	-1.22998E-003	0.00000E+000	-3.70030E-001	0.00000E+000	10	...........	1583.15
	566	5.66	5.77497E-002	-1.22998E-003	0.00000E+000	-3.70030E-001	0.00000E+000	10	...........	1583.15
	567	5.67	5.62474E-002	-1.22998E-003	0.00000E+000	-3.70030E-001	0.00000E+000	10	...........	1583.15
	568	5.68	5.47541E-002	-1.22999E-003	0.00000E+000	-3.70030E-001	0.00000E+000	10	...........	1583.15
	569	5.69	5.32587E-002	-1.23001E-003	0.00000E+000	-3.70030E-001	0.00000E+000	10	...........	1583.15
	570	5.7	5.17728E-002	-1.23005E-003	0.00000E+000	-3.70030E-001	0.00000E+000	10	...........	1583.15
	571	5.71	5.02873E-002	-1.23002E-003	0.00000E+000	-3.70030E-001	0.00000E+000	10	...........	1583.15
	572	5.72	4.88113E-002	-1.23005E-003	0.00000E+000	-3.70030E-001	0.00000E+000	10	...........	1583.15
	573	5.73	4.73378E-002	-1.23004E-003	0.00000E+000	-3.70030E-001	0.00000E+000	10	...........	1583.15
	574	5.74	4.58700E-002	-1.23004E-003	0.00000E+000	-3.70030E-001	0.00000E+000	10	...........	1583.15
	575	5.75	4.44034E-002	-1.23002E-003	0.00000E+000	-3.70030E-001	0.00000E+000	10	...........	1583.15
	576	5.76	4.29499E-002	-1.23001E-003	0.00000E+000	-3.70030E-001	0.00000E+000	10	...........	1583.15
	577	5.77	4.14968E-002	-1.22999E-003	0.00000E+000	-3.70030E-001	0.00000E+000	10	...........	1583.15
	578	5.78	4.00463E-002	-1.23000E-003	0.00000E+000	-3.70030E-001	0.00000E+000	10	...........	1583.15
	579	5.79	3.86040E-002	-1.22999E-003	0.00000E+000	-3.70030E-001	0.00000E+000	10	...........	1583.15
	580	5.8	3.71656E-002	-1.23003E-003	0.00000E+000	-3.70030E-001	0.00000E+000	10	...........	1583.15
	581	5.81	3.57322E-002	-1.22998E-003	0.00000E+000	-3.70030E-001	0.00000E+000	10	...........	1583.15
	582	5.82	3.43038E-002	-1.22998E-003	0.00000E+000	-3.70030E-001	0.00000E+000	10	...........	1583.15
	583	5.83	3.28793E-002	-1.23001E-003	0.00000E+000	-3.70030E-001	0.00000E+000	10	...........	1583.15
	584	5.84	3.14594E-002	-1.23000E-003	0.00000E+000	-3.70030E-001	0.00000E+000	10	...........	1583.15
	585	5.85	3.00375E-002	-1.23005E-003	0.00000E+000	-3.70030E-001	0.00000E+000	10	...........	1583.15
	586	5.86	2.86311E-002	-1.22996E-003	0.00000E+000	-3.70030E-001	0.00000E+000	10	...........	1583.15
	587	5.87	2.72208E-002	-1.22996E-003	0.00000E+000	-3.70030E-001	0.00000E+000	10	...........	1583.15
	588	5.88	2.58237E-002	-1.22993E-003	0.00000E+000	-3.70030E-001	0.00000E+000	10	...........	1583.15
	589	5.89	2.44236E-002	-1.22999E-003	0.00000E+000	-3.70030E-001	0.00000E+000	10	...........	1583.15
	590	5.9	2.30296E-002	-1.22997E-003	0.00000E+000	-3.70030E-001	0.00000E+000	10	...........	1583.15
	591	5.91	2.16421E-002	-1.23001E-003	0.00000E+000	-3.70030E-001	0.00000E+000	10	...........	1583.15
	592	5.92	2.02580E-002	-1.23004E-003	0.00000E+000	-3.70030E-001	0.00000E+000	10	...........	1583.15
	593	5.93	1.88768E-002	-1.23001E-003	0.00000E+000	-3.70030E-001	0.00000E+000	10	...........	1583.15
	594	5.94	1.75067E-002	-1.22998E-003	0.00000E+000	-3.70030E-001	0.00000E+000	10	...........	1583.15
	595	5.95	1.61324E-002	-1.23003E-003	0.00000E+000	-3.70030E-001	0.00000E+000	10	...........	1583.15
	596	5.96	1.47701E-002	-1.23003E-003	0.00000E+000	-3.70030E-001	0.00000E+000	10	...........	1583.15
	597	5.97	1.34082E-002	-1.23003E-003	0.00000E+000	-3.70030E-001	0.00000E+000	10	...........	1583.15
	598	5.98	1.20506E-002	-1.23003E-003	0.00000E+000	-3.70030E-001	0.00000E+000	10	...........	1583.15
	599	5.99	1.06979E-002	-1.22998E-003	0.00000E+000	-3.70030E-001	0.00000E+000	10	...........	1583.15
	600	6	9.34990E-003	-1.22999E-003	0.00000E+000	-3.70030E-001	0.00000E+000	10	...........	1583.15
	601	6.01	8.00930E-003	-1.22999E-003	0.00000E+000	-3.70030E-001	0.00000E+000	10	...........	1583.15
	602	6.02	6.66927E-003	-1.23001E-003	0.00000E+000	-3.70030E-001	0.00000E+000	10	...........	1583.15
	603	6.03	5.33643E-003	-1.22998E-003	0.00000E+000	-3.70030E-001	0.00000E+000	10	...........	1583.15
	604	6.04	4.00698E-003	-1.23001E-003	0.00000E+000	-3.70030E-001	0.00000E+000	10	...........	1583.15
	605	6.05	2.67947E-003	-1.23002E-003	0.00000E+000	-3.70030E-001	0.00000E+000	10	...........	1583.15
	606	6.06	1.36178E-003	-1.22996E-003	0.00000E+000	-3.70030E-001	0.00000E+000	10	...........	1583.15
	607	6.07	4.26077E-005	-1.22997E-003	0.00000E+000	-3.70030E-001	0.00000E+000	10	...........	1583.15
	608	6.08	-1.26700E-003	-1.22999E-003	0.00000E+000	-3.70030E-001	0.00000E+000	10	...........	1583.15
