EXPLAIN
TAG	CHRONOP
TITLE	LABEL	Chronopotentiometry Scan	Test Identifier
DATE	LABEL	22/1/2025	Date
TIME	LABEL	22:20:09	Time
NOTES	NOTES	1	Notes...
	
PSTAT	PSTAT	IFC1010-42004	Potentiostat
IPRESTEP	QUANT	0.00000E+000	Pre-step Current(A)
TPRESTEP	QUANT	0.00000E+000	Pre-step Delay Time (s)
ISTEP1	QUANT	1.23000E-003	Step 1 Current (A)
TSTEP1	QUANT	5.00000E+003	Step 1 Time (s)
ISTEP2	QUANT	-1.23000E-003	Step 2 Current (A)
TSTEP2	QUANT	5.00000E+003	Step 2 Time (s)
SAMPLETIME	QUANT	1.00000E-002	Sample Period (s)
DECIMATE	TOGGLE	F	Decimate
VLIMITLOWER	QUANT	0.00000E+000	Lower Limit V (V)
VLIMITUPPER	QUANT	8.00000E-001	Upper Limit V (V)
EQDELAY	QUANT	1.00000E+000	Equil. Time (s)
SAMPLINGMODE	SELECTOR	1	Sampling Mode
AREA	QUANT	2.00000E+000	Sample Area (cm^2)
ELECTRODETYPE	SELECTOR	0	Electrode Type
STRIPPING	TOGGLE	F	Used for Stripping
SEQUENCER	TOGGLE	TRUE	Run as Sequence
PSTATMODEL	IQUANT	64	Pstat Model
PSTATSECTION	LABEL	IFC1010-42004	Pstat Section
PSTATSERIALNO	LABEL	42004	Pstat Serial Number
CTRLMODE	IQUANT	0	Control Mode
ELECTROMETER	IQUANT	0	RE=0 or CS=1
IESTAB	IQUANT	0	I/E Stability
CASPEED	IQUANT	4	Control Amp Speed
CONVENTION	IQUANT	1	Current Convention
ICHRANGE	IQUANT	2	Ich Range
ICHRANGEMODE	TOGGLE	T	Ich Auto Range
ICHOFFSETENABLE	TOGGLE	F	Ich Offset Enable
ICHOFFSET	QUANT	0	Ich Offset (V)
ICHFILTER	IQUANT	3	Ich Filter
VCHRANGE	IQUANT	3	Vch Range
VCHRANGEMODE	TOGGLE	T	Vch Auto Range
VCHOFFSETENABLE	TOGGLE	F	Vch Offset Enable
VCHOFFSET	QUANT	0	Vch Offset (V)
VCHFILTER	IQUANT	3	Vch Filter
IERANGELOWERLIMIT	IQUANT	4	I/E Range Lower Limit
IERANGEMODE	TOGGLE	F	I/E AutoRange
IERANGE	IQUANT	11	I/E Range
ACHSELECT	IQUANT	0	Ach Select
ACHRANGE	IQUANT	2	Ach Range
ACHOFFSETENABLE	TOGGLE	F	Ach Offset Enable
ACHOFFSET	QUANT	0	Ach Offset (V)
ACHFILTER	IQUANT	1	Ach Filter
SENSECABLEID	IQUANT	14	Sense Cable ID
PWRCABLEID	IQUANT	14	Power Cable ID
DCCALDATE	LABEL	1/22/2025	DC Calibration Date
ACCALDATE	LABEL	11/15/2024	AC Calibration Date
FRAMEWORKVERSION	LABEL	7.10.4	Framework Version
INSTRUMENTVERSION	LABEL	4.91	Instrument Version
COMMVERSION	LABEL	3.10	Communications Version
CPUPLDVERSION	LABEL	2.54	CPU PLD Version
CTRLPLDVERSION	LABEL	0.00	CTRL PLD Version
PSTATPLDVERSION	LABEL	0.00	PSTAT PLD Version
CURVE	TABLE	678
	Pt	T	Vf	Im	Vu	Sig	Ach	IERange	Over	Temp
	#	s	V vs. Ref.	A	V	V	V	#	bits	deg C
	0	0	2.31228E-001	-8.60153E-008	0.00000E+000	0.00000E+000	0.00000E+000	10	...........	1583.15
	1	0.01	2.43719E-001	1.22963E-003	0.00000E+000	3.70030E-001	0.00000E+000	10	...........	1583.15
	2	0.02	2.46250E-001	1.22967E-003	0.00000E+000	3.70030E-001	0.00000E+000	10	...........	1583.15
	3	0.03	2.48538E-001	1.22965E-003	0.00000E+000	3.70030E-001	0.00000E+000	10	...........	1583.15
	4	0.04	2.50756E-001	1.22970E-003	0.00000E+000	3.70030E-001	0.00000E+000	10	...........	1583.15
	5	0.05	2.52894E-001	1.22972E-003	0.00000E+000	3.70030E-001	0.00000E+000	10	...........	1583.15
	6	0.06	2.55017E-001	1.22968E-003	0.00000E+000	3.70030E-001	0.00000E+000	10	...........	1583.15
	7	0.07	2.57172E-001	1.22969E-003	0.00000E+000	3.70030E-001	0.00000E+000	10	...........	1583.15
	8	0.08	2.59259E-001	1.22967E-003	0.00000E+000	3.70030E-001	0.00000E+000	10	...........	1583.15
	9	0.09	2.61358E-001	1.22966E-003	0.00000E+000	3.70030E-001	0.00000E+000	10	...........	1583.15
	10	0.1	2.63441E-001	1.22964E-003	0.00000E+000	3.70030E-001	0.00000E+000	10	...........	1583.15
	11	0.11	2.65538E-001	1.22968E-003	0.00000E+000	3.70030E-001	0.00000E+000	10	...........	1583.15
	12	0.12	2.67631E-001	1.22967E-003	0.00000E+000	3.70030E-001	0.00000E+000	10	...........	1583.15
	13	0.13	2.69732E-001	1.22968E-003	0.00000E+000	3.70030E-001	0.00000E+000	10	...........	1583.15
	14	0.14	2.71811E-001	1.22974E-003	0.00000E+000	3.70030E-001	0.00000E+000	10	...........	1583.15
	15	0.15	2.73891E-001	1.22970E-003	0.00000E+000	3.70030E-001	0.00000E+000	10	...........	1583.15
	16	0.16	2.75971E-001	1.22973E-003	0.00000E+000	3.70030E-001	0.00000E+000	10	...........	1583.15
	17	0.17	2.78023E-001	1.22969E-003	0.00000E+000	3.70030E-001	0.00000E+000	10	...........	1583.15
	18	0.18	2.80110E-001	1.22974E-003	0.00000E+000	3.70030E-001	0.00000E+000	10	...........	1583.15
	19	0.19	2.82211E-001	1.22971E-003	0.00000E+000	3.70030E-001	0.00000E+000	10	...........	1583.15
	20	0.2	2.84279E-001	1.22971E-003	0.00000E+000	3.70030E-001	0.00000E+000	10	...........	1583.15
	21	0.21	2.86338E-001	1.22969E-003	0.00000E+000	3.70030E-001	0.00000E+000	10	...........	1583.15
	22	0.22	2.88408E-001	1.22964E-003	0.00000E+000	3.70030E-001	0.00000E+000	10	...........	1583.15
	23	0.23	2.90486E-001	1.22971E-003	0.00000E+000	3.70030E-001	0.00000E+000	10	...........	1583.15
	24	0.24	2.92550E-001	1.22972E-003	0.00000E+000	3.70030E-001	0.00000E+000	10	...........	1583.15
	25	0.25	2.94636E-001	1.22970E-003	0.00000E+000	3.70030E-001	0.00000E+000	10	...........	1583.15
	26	0.26	2.96710E-001	1.22967E-003	0.00000E+000	3.70030E-001	0.00000E+000	10	...........	1583.15
	27	0.27	2.98763E-001	1.22966E-003	0.00000E+000	3.70030E-001	0.00000E+000	10	...........	1583.15
	28	0.28	3.00830E-001	1.22969E-003	0.00000E+000	3.70030E-001	0.00000E+000	10	...........	1583.15
	29	0.29	3.02910E-001	1.22969E-003	0.00000E+000	3.70030E-001	0.00000E+000	10	...........	1583.53
	30	0.3	3.04977E-001	1.22970E-003	0.00000E+000	3.70030E-001	0.00000E+000	10	...........	1583.53
	31	0.31	3.07038E-001	1.22976E-003	0.00000E+000	3.70030E-001	0.00000E+000	10	...........	1583.53
	32	0.32	3.09155E-001	1.22975E-003	0.00000E+000	3.70030E-001	0.00000E+000	10	...........	1583.53
	33	0.33	3.11217E-001	1.22973E-003	0.00000E+000	3.70030E-001	0.00000E+000	10	...........	1583.53
	34	0.34	3.13261E-001	1.22962E-003	0.00000E+000	3.70030E-001	0.00000E+000	10	...........	1583.53
	35	0.35	3.15313E-001	1.22962E-003	0.00000E+000	3.70030E-001	0.00000E+000	10	...........	1583.53
	36	0.36	3.17382E-001	1.22962E-003	0.00000E+000	3.70030E-001	0.00000E+000	10	...........	1583.53
	37	0.37	3.19448E-001	1.22964E-003	0.00000E+000	3.70030E-001	0.00000E+000	10	...........	1583.53
	38	0.38	3.21537E-001	1.22964E-003	0.00000E+000	3.70030E-001	0.00000E+000	10	...........	1583.53
	39	0.39	3.23582E-001	1.22962E-003	0.00000E+000	3.70030E-001	0.00000E+000	10	...........	1583.53
	40	0.4	3.25646E-001	1.22961E-003	0.00000E+000	3.70030E-001	0.00000E+000	10	...........	1583.53
	41	0.41	3.27722E-001	1.22963E-003	0.00000E+000	3.70030E-001	0.00000E+000	10	...........	1583.53
	42	0.42	3.29763E-001	1.22966E-003	0.00000E+000	3.70030E-001	0.00000E+000	10	...........	1583.53
	43	0.43	3.31827E-001	1.22968E-003	0.00000E+000	3.70030E-001	0.00000E+000	10	...........	1583.53
	44	0.44	3.33920E-001	1.22966E-003	0.00000E+000	3.70030E-001	0.00000E+000	10	...........	1583.53
	45	0.45	3.35979E-001	1.22969E-003	0.00000E+000	3.70030E-001	0.00000E+000	10	...........	1583.53
	46	0.46	3.38044E-001	1.22976E-003	0.00000E+000	3.70030E-001	0.00000E+000	10	...........	1583.53
	47	0.47	3.40104E-001	1.22978E-003	0.00000E+000	3.70030E-001	0.00000E+000	10	...........	1583.53
	48	0.48	3.42138E-001	1.22969E-003	0.00000E+000	3.70030E-001	0.00000E+000	10	...........	1583.53
	49	0.49	3.44199E-001	1.22968E-003	0.00000E+000	3.70030E-001	0.00000E+000	10	...........	1583.53
	50	0.5	3.46261E-001	1.22964E-003	0.00000E+000	3.70030E-001	0.00000E+000	10	...........	1583.53
	51	0.51	3.48326E-001	1.22969E-003	0.00000E+000	3.70030E-001	0.00000E+000	10	...........	1583.53
	52	0.52	3.50379E-001	1.22970E-003	0.00000E+000	3.70030E-001	0.00000E+000	10	...........	1583.53
	53	0.53	3.52453E-001	1.22966E-003	0.00000E+000	3.70030E-001	0.00000E+000	10	...........	1583.53
	54	0.54	3.54493E-001	1.22967E-003	0.00000E+000	3.70030E-001	0.00000E+000	10	...........	1583.53
	55	0.55	3.56559E-001	1.22972E-003	0.00000E+000	3.70030E-001	0.00000E+000	10	...........	1583.53
	56	0.56	3.58646E-001	1.22970E-003	0.00000E+000	3.70030E-001	0.00000E+000	10	...........	1583.53
	57	0.57	3.60703E-001	1.22966E-003	0.00000E+000	3.70030E-001	0.00000E+000	10	...........	1583.53
	58	0.58	3.62745E-001	1.22969E-003	0.00000E+000	3.70030E-001	0.00000E+000	10	...........	1583.53
	59	0.59	3.64804E-001	1.22973E-003	0.00000E+000	3.70030E-001	0.00000E+000	10	...........	1583.53
	60	0.6	3.66879E-001	1.22970E-003	0.00000E+000	3.70030E-001	0.00000E+000	10	...........	1583.53
	61	0.61	3.68917E-001	1.22970E-003	0.00000E+000	3.70030E-001	0.00000E+000	10	...........	1583.53
	62	0.62	3.70948E-001	1.22968E-003	0.00000E+000	3.70030E-001	0.00000E+000	10	...........	1583.53
	63	0.63	3.73015E-001	1.22969E-003	0.00000E+000	3.70030E-001	0.00000E+000	10	...........	1583.53
	64	0.64	3.75073E-001	1.22963E-003	0.00000E+000	3.70030E-001	0.00000E+000	10	...........	1583.53
	65	0.65	3.77137E-001	1.22971E-003	0.00000E+000	3.70030E-001	0.00000E+000	10	...........	1583.53
	66	0.66	3.79198E-001	1.22970E-003	0.00000E+000	3.70030E-001	0.00000E+000	10	...........	1583.53
	67	0.67	3.81234E-001	1.22966E-003	0.00000E+000	3.70030E-001	0.00000E+000	10	...........	1583.53
	68	0.68	3.83276E-001	1.22961E-003	0.00000E+000	3.70030E-001	0.00000E+000	10	...........	1583.53
	69	0.69	3.85355E-001	1.22961E-003	0.00000E+000	3.70030E-001	0.00000E+000	10	...........	1583.53
	70	0.7	3.87406E-001	1.22965E-003	0.00000E+000	3.70030E-001	0.00000E+000	10	...........	1583.53
	71	0.71	3.89459E-001	1.22969E-003	0.00000E+000	3.70030E-001	0.00000E+000	10	...........	1583.53
	72	0.72	3.91522E-001	1.22971E-003	0.00000E+000	3.70030E-001	0.00000E+000	10	...........	1583.53
	73	0.73	3.93554E-001	1.22978E-003	0.00000E+000	3.70030E-001	0.00000E+000	10	...........	1583.53
	74	0.74	3.95607E-001	1.22966E-003	0.00000E+000	3.70030E-001	0.00000E+000	10	...........	1583.53
	75	0.75	3.97672E-001	1.22970E-003	0.00000E+000	3.70030E-001	0.00000E+000	10	...........	1583.53
	76	0.76	3.99727E-001	1.22968E-003	0.00000E+000	3.70030E-001	0.00000E+000	10	...........	1583.53
	77	0.77	4.01767E-001	1.22971E-003	0.00000E+000	3.70030E-001	0.00000E+000	10	...........	1583.53
	78	0.78	4.03827E-001	1.22974E-003	0.00000E+000	3.70030E-001	0.00000E+000	10	...........	1583.53
	79	0.79	4.05869E-001	1.22971E-003	0.00000E+000	3.70030E-001	0.00000E+000	10	...........	1583.53
	80	0.8	4.07919E-001	1.22968E-003	0.00000E+000	3.70030E-001	0.00000E+000	10	...........	1583.53
	81	0.81	4.09984E-001	1.22964E-003	0.00000E+000	3.70030E-001	0.00000E+000	10	...........	1583.53
	82	0.82	4.12028E-001	1.22965E-003	0.00000E+000	3.70030E-001	0.00000E+000	10	...........	1583.53
	83	0.83	4.14073E-001	1.22969E-003	0.00000E+000	3.70030E-001	0.00000E+000	10	...........	1583.53
	84	0.84	4.16110E-001	1.22969E-003	0.00000E+000	3.70030E-001	0.00000E+000	10	...........	1583.53
	85	0.85	4.18157E-001	1.22968E-003	0.00000E+000	3.70030E-001	0.00000E+000	10	...........	1583.53
	86	0.86	4.20196E-001	1.22972E-003	0.00000E+000	3.70030E-001	0.00000E+000	10	...........	1583.53
	87	0.87	4.22242E-001	1.22964E-003	0.00000E+000	3.70030E-001	0.00000E+000	10	...........	1583.53
	88	0.88	4.24319E-001	1.22971E-003	0.00000E+000	3.70030E-001	0.00000E+000	10	...........	1583.53
	89	0.89	4.26388E-001	1.22971E-003	0.00000E+000	3.70030E-001	0.00000E+000	10	...........	1583.53
	90	0.9	4.28403E-001	1.22969E-003	0.00000E+000	3.70030E-001	0.00000E+000	10	...........	1583.53
	91	0.91	4.30452E-001	1.22966E-003	0.00000E+000	3.70030E-001	0.00000E+000	10	...........	1583.53
	92	0.92	4.32506E-001	1.22968E-003	0.00000E+000	3.70030E-001	0.00000E+000	10	...........	1583.53
	93	0.93	4.34534E-001	1.22967E-003	0.00000E+000	3.70030E-001	0.00000E+000	10	...........	1583.53
	94	0.94	4.36594E-001	1.22969E-003	0.00000E+000	3.70030E-001	0.00000E+000	10	...........	1583.53
	95	0.95	4.38645E-001	1.22964E-003	0.00000E+000	3.70030E-001	0.00000E+000	10	...........	1583.53
	96	0.96	4.40682E-001	1.22965E-003	0.00000E+000	3.70030E-001	0.00000E+000	10	...........	1583.53
	97	0.97	4.42728E-001	1.22967E-003	0.00000E+000	3.70030E-001	0.00000E+000	10	...........	1583.53
	98	0.98	4.44784E-001	1.22971E-003	0.00000E+000	3.70030E-001	0.00000E+000	10	...........	1583.53
	99	0.99	4.46836E-001	1.22973E-003	0.00000E+000	3.70030E-001	0.00000E+000	10	...........	1583.53
	100	1	4.48884E-001	1.22969E-003	0.00000E+000	3.70030E-001	0.00000E+000	10	...........	1583.53
	101	1.01	4.50915E-001	1.22968E-003	0.00000E+000	3.70030E-001	0.00000E+000	10	...........	1583.53
	102	1.02	4.52940E-001	1.22968E-003	0.00000E+000	3.70030E-001	0.00000E+000	10	...........	1583.53
	103	1.03	4.54982E-001	1.22964E-003	0.00000E+000	3.70030E-001	0.00000E+000	10	...........	1583.53
	104	1.04	4.57032E-001	1.22969E-003	0.00000E+000	3.70030E-001	0.00000E+000	10	...........	1583.53
	105	1.05	4.59078E-001	1.22971E-003	0.00000E+000	3.70030E-001	0.00000E+000	10	...........	1583.53
	106	1.06	4.61170E-001	1.22969E-003	0.00000E+000	3.70030E-001	0.00000E+000	10	...........	1583.53
	107	1.07	4.63207E-001	1.22968E-003	0.00000E+000	3.70030E-001	0.00000E+000	10	...........	1583.53
	108	1.08	4.65237E-001	1.22968E-003	0.00000E+000	3.70030E-001	0.00000E+000	10	...........	1583.53
	109	1.09	4.67271E-001	1.22966E-003	0.00000E+000	3.70030E-001	0.00000E+000	10	...........	1583.53
	110	1.1	4.69316E-001	1.22968E-003	0.00000E+000	3.70030E-001	0.00000E+000	10	...........	1583.53
	111	1.11	4.71328E-001	1.22965E-003	0.00000E+000	3.70030E-001	0.00000E+000	10	...........	1583.53
	112	1.12	4.73382E-001	1.22964E-003	0.00000E+000	3.70030E-001	0.00000E+000	10	...........	1583.53
	113	1.13	4.75449E-001	1.22964E-003	0.00000E+000	3.70030E-001	0.00000E+000	10	...........	1583.53
	114	1.14	4.77479E-001	1.22971E-003	0.00000E+000	3.70030E-001	0.00000E+000	10	...........	1583.53
	115	1.15	4.79534E-001	1.22968E-003	0.00000E+000	3.70030E-001	0.00000E+000	10	...........	1583.53
	116	1.16	4.81570E-001	1.22973E-003	0.00000E+000	3.70030E-001	0.00000E+000	10	...........	1583.53
	117	1.17	4.83615E-001	1.22968E-003	0.00000E+000	3.70030E-001	0.00000E+000	10	...........	1583.53
	118	1.18	4.85636E-001	1.22965E-003	0.00000E+000	3.70030E-001	0.00000E+000	10	...........	1583.53
	119	1.19	4.87691E-001	1.22962E-003	0.00000E+000	3.70030E-001	0.00000E+000	10	...........	1583.53
	120	1.2	4.89737E-001	1.22969E-003	0.00000E+000	3.70030E-001	0.00000E+000	10	...........	1583.53
	121	1.21	4.91776E-001	1.22971E-003	0.00000E+000	3.70030E-001	0.00000E+000	10	...........	1583.53
	122	1.22	4.93801E-001	1.22968E-003	0.00000E+000	3.70030E-001	0.00000E+000	10	...........	1583.53
	123	1.23	4.95847E-001	1.22975E-003	0.00000E+000	3.70030E-001	0.00000E+000	10	...........	1583.53
	124	1.24	4.97878E-001	1.22971E-003	0.00000E+000	3.70030E-001	0.00000E+000	10	...........	1583.53
	125	1.25	4.99939E-001	1.22973E-003	0.00000E+000	3.70030E-001	0.00000E+000	10	...........	1583.53
	126	1.26	5.01949E-001	1.22976E-003	0.00000E+000	3.70030E-001	0.00000E+000	10	...........	1583.53
	127	1.27	5.03991E-001	1.22976E-003	0.00000E+000	3.70030E-001	0.00000E+000	10	...........	1583.53
	128	1.28	5.06042E-001	1.22974E-003	0.00000E+000	3.70030E-001	0.00000E+000	10	...........	1583.53
	129	1.29	5.08047E-001	1.22974E-003	0.00000E+000	3.70030E-001	0.00000E+000	10	...........	1583.25
	130	1.3	5.10101E-001	1.22972E-003	0.00000E+000	3.70030E-001	0.00000E+000	10	...........	1583.25
	131	1.31	5.12157E-001	1.22977E-003	0.00000E+000	3.70030E-001	0.00000E+000	10	...........	1583.25
	132	1.32	5.14192E-001	1.22974E-003	0.00000E+000	3.70030E-001	0.00000E+000	10	...........	1583.25
	133	1.33	5.16237E-001	1.22970E-003	0.00000E+000	3.70030E-001	0.00000E+000	10	...........	1583.25
	134	1.34	5.18236E-001	1.22972E-003	0.00000E+000	3.70030E-001	0.00000E+000	10	...........	1583.25
	135	1.35	5.20275E-001	1.22969E-003	0.00000E+000	3.70030E-001	0.00000E+000	10	...........	1583.25
	136	1.36	5.22310E-001	1.22973E-003	0.00000E+000	3.70030E-001	0.00000E+000	10	...........	1583.25
	137	1.37	5.24348E-001	1.22975E-003	0.00000E+000	3.70030E-001	0.00000E+000	10	...........	1583.25
	138	1.38	5.26398E-001	1.22969E-003	0.00000E+000	3.70030E-001	0.00000E+000	10	...........	1583.25
	139	1.39	5.28436E-001	1.22973E-003	0.00000E+000	3.70030E-001	0.00000E+000	10	...........	1583.25
	140	1.4	5.30457E-001	1.22970E-003	0.00000E+000	3.70030E-001	0.00000E+000	10	...........	1583.25
	141	1.41	5.32482E-001	1.22972E-003	0.00000E+000	3.70030E-001	0.00000E+000	10	...........	1583.25
	142	1.42	5.34508E-001	1.22970E-003	0.00000E+000	3.70030E-001	0.00000E+000	10	...........	1583.25
	143	1.43	5.36526E-001	1.22966E-003	0.00000E+000	3.70030E-001	0.00000E+000	10	...........	1583.25
	144	1.44	5.38577E-001	1.22966E-003	0.00000E+000	3.70030E-001	0.00000E+000	10	...........	1583.25
	145	1.45	5.40600E-001	1.22973E-003	0.00000E+000	3.70030E-001	0.00000E+000	10	...........	1583.25
	146	1.46	5.42634E-001	1.22963E-003	0.00000E+000	3.70030E-001	0.00000E+000	10	...........	1583.25
	147	1.47	5.44673E-001	1.22971E-003	0.00000E+000	3.70030E-001	0.00000E+000	10	...........	1583.25
	148	1.48	5.46697E-001	1.22971E-003	0.00000E+000	3.70030E-001	0.00000E+000	10	...........	1583.25
	149	1.49	5.48711E-001	1.22970E-003	0.00000E+000	3.70030E-001	0.00000E+000	10	...........	1583.25
	150	1.5	5.50757E-001	1.22974E-003	0.00000E+000	3.70030E-001	0.00000E+000	10	...........	1583.25
	151	1.51	5.52768E-001	1.22968E-003	0.00000E+000	3.70030E-001	0.00000E+000	10	...........	1583.25
	152	1.52	5.54789E-001	1.22973E-003	0.00000E+000	3.70030E-001	0.00000E+000	10	...........	1583.25
	153	1.53	5.56823E-001	1.22975E-003	0.00000E+000	3.70030E-001	0.00000E+000	10	...........	1583.25
	154	1.54	5.58848E-001	1.22975E-003	0.00000E+000	3.70030E-001	0.00000E+000	10	...........	1583.25
	155	1.55	5.60857E-001	1.22976E-003	0.00000E+000	3.70030E-001	0.00000E+000	10	...........	1583.25
	156	1.56	5.62875E-001	1.22968E-003	0.00000E+000	3.70030E-001	0.00000E+000	10	...........	1583.25
	157	1.57	5.64923E-001	1.22969E-003	0.00000E+000	3.70030E-001	0.00000E+000	10	...........	1583.25
	158	1.58	5.66941E-001	1.22966E-003	0.00000E+000	3.70030E-001	0.00000E+000	10	...........	1583.25
	159	1.59	5.68942E-001	1.22969E-003	0.00000E+000	3.70030E-001	0.00000E+000	10	...........	1583.25
	160	1.6	5.70965E-001	1.22967E-003	0.00000E+000	3.70030E-001	0.00000E+000	10	...........	1583.25
	161	1.61	5.72980E-001	1.22973E-003	0.00000E+000	3.70030E-001	0.00000E+000	10	...........	1583.25
	162	1.62	5.74988E-001	1.22972E-003	0.00000E+000	3.70030E-001	0.00000E+000	10	...........	1583.25
	163	1.63	5.77021E-001	1.22971E-003	0.00000E+000	3.70030E-001	0.00000E+000	10	...........	1583.25
	164	1.64	5.79022E-001	1.22975E-003	0.00000E+000	3.70030E-001	0.00000E+000	10	...........	1583.25
	165	1.65	5.81046E-001	1.22971E-003	0.00000E+000	3.70030E-001	0.00000E+000	10	...........	1583.25
	166	1.66	5.83044E-001	1.22966E-003	0.00000E+000	3.70030E-001	0.00000E+000	10	...........	1583.25
	167	1.67	5.85068E-001	1.22970E-003	0.00000E+000	3.70030E-001	0.00000E+000	10	...........	1583.25
	168	1.68	5.87070E-001	1.22971E-003	0.00000E+000	3.70030E-001	0.00000E+000	10	...........	1583.25
	169	1.69	5.89092E-001	1.22974E-003	0.00000E+000	3.70030E-001	0.00000E+000	10	...........	1583.25
	170	1.7	5.91118E-001	1.22967E-003	0.00000E+000	3.70030E-001	0.00000E+000	10	...........	1583.25
	171	1.71	5.93123E-001	1.22971E-003	0.00000E+000	3.70030E-001	0.00000E+000	10	...........	1583.25
	172	1.72	5.95126E-001	1.22969E-003	0.00000E+000	3.70030E-001	0.00000E+000	10	...........	1583.25
	173	1.73	5.97119E-001	1.22969E-003	0.00000E+000	3.70030E-001	0.00000E+000	10	...........	1583.25
	174	1.74	5.99136E-001	1.22968E-003	0.00000E+000	3.70030E-001	0.00000E+000	10	...........	1583.25
	175	1.75	6.01139E-001	1.22969E-003	0.00000E+000	3.70030E-001	0.00000E+000	10	...........	1583.25
	176	1.76	6.03155E-001	1.22972E-003	0.00000E+000	3.70030E-001	0.00000E+000	10	...........	1583.25
	177	1.77	6.05150E-001	1.22976E-003	0.00000E+000	3.70030E-001	0.00000E+000	10	...........	1583.25
	178	1.78	6.07139E-001	1.22971E-003	0.00000E+000	3.70030E-001	0.00000E+000	10	...........	1583.25
	179	1.79	6.09143E-001	1.22966E-003	0.00000E+000	3.70030E-001	0.00000E+000	10	...........	1583.25
	180	1.8	6.11109E-001	1.22970E-003	0.00000E+000	3.70030E-001	0.00000E+000	10	...........	1583.25
	181	1.81	6.13120E-001	1.22973E-003	0.00000E+000	3.70030E-001	0.00000E+000	10	...........	1583.25
	182	1.82	6.15129E-001	1.22973E-003	0.00000E+000	3.70030E-001	0.00000E+000	10	...........	1583.25
	183	1.83	6.17127E-001	1.22973E-003	0.00000E+000	3.70030E-001	0.00000E+000	10	...........	1583.25
	184	1.84	6.19121E-001	1.22971E-003	0.00000E+000	3.70030E-001	0.00000E+000	10	...........	1583.25
	185	1.85	6.21109E-001	1.22970E-003	0.00000E+000	3.70030E-001	0.00000E+000	10	...........	1583.25
	186	1.86	6.23063E-001	1.22964E-003	0.00000E+000	3.70030E-001	0.00000E+000	10	...........	1583.25
	187	1.87	6.25058E-001	1.22967E-003	0.00000E+000	3.70030E-001	0.00000E+000	10	...........	1583.25
	188	1.88	6.27027E-001	1.22968E-003	0.00000E+000	3.70030E-001	0.00000E+000	10	...........	1583.25
	189	1.89	6.29031E-001	1.22969E-003	0.00000E+000	3.70030E-001	0.00000E+000	10	...........	1583.25
	190	1.9	6.31009E-001	1.22964E-003	0.00000E+000	3.70030E-001	0.00000E+000	10	...........	1583.25
	191	1.91	6.32977E-001	1.22959E-003	0.00000E+000	3.70030E-001	0.00000E+000	10	...........	1583.25
	192	1.92	6.34962E-001	1.22959E-003	0.00000E+000	3.70030E-001	0.00000E+000	10	...........	1583.25
	193	1.93	6.36922E-001	1.22964E-003	0.00000E+000	3.70030E-001	0.00000E+000	10	...........	1583.25
	194	1.94	6.38902E-001	1.22966E-003	0.00000E+000	3.70030E-001	0.00000E+000	10	...........	1583.25
	195	1.95	6.40896E-001	1.22964E-003	0.00000E+000	3.70030E-001	0.00000E+000	10	...........	1583.25
	196	1.96	6.42854E-001	1.22964E-003	0.00000E+000	3.70030E-001	0.00000E+000	10	...........	1583.25
	197	1.97	6.44810E-001	1.22966E-003	0.00000E+000	3.70030E-001	0.00000E+000	10	...........	1583.25
	198	1.98	6.46772E-001	1.22966E-003	0.00000E+000	3.70030E-001	0.00000E+000	10	...........	1583.25
	199	1.99	6.48728E-001	1.22965E-003	0.00000E+000	3.70030E-001	0.00000E+000	10	...........	1583.25
	200	2	6.50681E-001	1.22966E-003	0.00000E+000	3.70030E-001	0.00000E+000	10	...........	1583.25
	201	2.01	6.52635E-001	1.22966E-003	0.00000E+000	3.70030E-001	0.00000E+000	10	...........	1583.25
	202	2.02	6.54609E-001	1.22966E-003	0.00000E+000	3.70030E-001	0.00000E+000	10	...........	1583.25
	203	2.03	6.56557E-001	1.22966E-003	0.00000E+000	3.70030E-001	0.00000E+000	10	...........	1583.25
	204	2.04	6.58495E-001	1.22967E-003	0.00000E+000	3.70030E-001	0.00000E+000	10	...........	1583.25
	205	2.05	6.60456E-001	1.22966E-003	0.00000E+000	3.70030E-001	0.00000E+000	10	...........	1583.25
	206	2.06	6.62365E-001	1.22963E-003	0.00000E+000	3.70030E-001	0.00000E+000	10	...........	1583.25
	207	2.07	6.64319E-001	1.22967E-003	0.00000E+000	3.70030E-001	0.00000E+000	10	...........	1583.25
	208	2.08	6.66274E-001	1.22964E-003	0.00000E+000	3.70030E-001	0.00000E+000	10	...........	1583.25
	209	2.09	6.68209E-001	1.22968E-003	0.00000E+000	3.70030E-001	0.00000E+000	10	...........	1583.25
	210	2.1	6.70151E-001	1.22966E-003	0.00000E+000	3.70030E-001	0.00000E+000	10	...........	1583.25
	211	2.11	6.72065E-001	1.22967E-003	0.00000E+000	3.70030E-001	0.00000E+000	10	...........	1583.25
	212	2.12	6.74001E-001	1.22969E-003	0.00000E+000	3.70030E-001	0.00000E+000	10	...........	1583.25
	213	2.13	6.75923E-001	1.22967E-003	0.00000E+000	3.70030E-001	0.00000E+000	10	...........	1583.25
	214	2.14	6.77827E-001	1.22968E-003	0.00000E+000	3.70030E-001	0.00000E+000	10	...........	1583.25
	215	2.15	6.79763E-001	1.22968E-003	0.00000E+000	3.70030E-001	0.00000E+000	10	...........	1583.25
	216	2.16	6.81675E-001	1.22967E-003	0.00000E+000	3.70030E-001	0.00000E+000	10	...........	1583.25
	217	2.17	6.83590E-001	1.22971E-003	0.00000E+000	3.70030E-001	0.00000E+000	10	...........	1583.25
	218	2.18	6.85499E-001	1.22974E-003	0.00000E+000	3.70030E-001	0.00000E+000	10	...........	1583.25
	219	2.19	6.87417E-001	1.22972E-003	0.00000E+000	3.70030E-001	0.00000E+000	10	...........	1583.25
	220	2.2	6.89323E-001	1.22976E-003	0.00000E+000	3.70030E-001	0.00000E+000	10	...........	1583.25
	221	2.21	6.91214E-001	1.22976E-003	0.00000E+000	3.70030E-001	0.00000E+000	10	...........	1583.25
	222	2.22	6.93117E-001	1.22967E-003	0.00000E+000	3.70030E-001	0.00000E+000	10	...........	1583.25
	223	2.23	6.94998E-001	1.22967E-003	0.00000E+000	3.70030E-001	0.00000E+000	10	...........	1583.25
	224	2.24	6.96868E-001	1.22966E-003	0.00000E+000	3.70030E-001	0.00000E+000	10	...........	1583.25
	225	2.25	6.98779E-001	1.22968E-003	0.00000E+000	3.70030E-001	0.00000E+000	10	...........	1583.25
	226	2.26	7.00635E-001	1.22969E-003	0.00000E+000	3.70030E-001	0.00000E+000	10	...........	1583.25
	227	2.27	7.02503E-001	1.22963E-003	0.00000E+000	3.70030E-001	0.00000E+000	10	...........	1583.25
	228	2.28	7.04395E-001	1.22963E-003	0.00000E+000	3.70030E-001	0.00000E+000	10	...........	1583.25
	229	2.29	7.06271E-001	1.22962E-003	0.00000E+000	3.70030E-001	0.00000E+000	10	...........	1583.05
	230	2.3	7.08148E-001	1.22966E-003	0.00000E+000	3.70030E-001	0.00000E+000	10	...........	1583.05
	231	2.31	7.09984E-001	1.22966E-003	0.00000E+000	3.70030E-001	0.00000E+000	10	...........	1583.05
	232	2.32	7.11844E-001	1.22966E-003	0.00000E+000	3.70030E-001	0.00000E+000	10	...........	1583.05
	233	2.33	7.13676E-001	1.22966E-003	0.00000E+000	3.70030E-001	0.00000E+000	10	...........	1583.05
	234	2.34	7.15513E-001	1.22964E-003	0.00000E+000	3.70030E-001	0.00000E+000	10	...........	1583.05
	235	2.35	7.17396E-001	1.22968E-003	0.00000E+000	3.70030E-001	0.00000E+000	10	...........	1583.05
	236	2.36	7.19260E-001	1.22967E-003	0.00000E+000	3.70030E-001	0.00000E+000	10	...........	1583.05
	237	2.37	7.21089E-001	1.22965E-003	0.00000E+000	3.70030E-001	0.00000E+000	10	...........	1583.05
	238	2.38	7.22918E-001	1.22966E-003	0.00000E+000	3.70030E-001	0.00000E+000	10	...........	1583.05
	239	2.39	7.24729E-001	1.22965E-003	0.00000E+000	3.70030E-001	0.00000E+000	10	...........	1583.05
	240	2.4	7.26530E-001	1.22966E-003	0.00000E+000	3.70030E-001	0.00000E+000	10	...........	1583.05
	241	2.41	7.28363E-001	1.22963E-003	0.00000E+000	3.70030E-001	0.00000E+000	10	...........	1583.05
	242	2.42	7.30194E-001	1.22964E-003	0.00000E+000	3.70030E-001	0.00000E+000	10	...........	1583.05
	243	2.43	7.31998E-001	1.22965E-003	0.00000E+000	3.70030E-001	0.00000E+000	10	...........	1583.05
	244	2.44	7.33785E-001	1.22968E-003	0.00000E+000	3.70030E-001	0.00000E+000	10	...........	1583.05
	245	2.45	7.35575E-001	1.22967E-003	0.00000E+000	3.70030E-001	0.00000E+000	10	...........	1583.05
	246	2.46	7.37377E-001	1.22971E-003	0.00000E+000	3.70030E-001	0.00000E+000	10	...........	1583.05
	247	2.47	7.39156E-001	1.22970E-003	0.00000E+000	3.70030E-001	0.00000E+000	10	...........	1583.05
	248	2.48	7.40948E-001	1.22974E-003	0.00000E+000	3.70030E-001	0.00000E+000	10	...........	1583.05
	249	2.49	7.42739E-001	1.22970E-003	0.00000E+000	3.70030E-001	0.00000E+000	10	...........	1583.05
	250	2.5	7.44509E-001	1.22969E-003	0.00000E+000	3.70030E-001	0.00000E+000	10	...........	1583.05
	251	2.51	7.46268E-001	1.22968E-003	0.00000E+000	3.70030E-001	0.00000E+000	10	...........	1583.05
	252	2.52	7.48021E-001	1.22971E-003	0.00000E+000	3.70030E-001	0.00000E+000	10	...........	1583.05
	253	2.53	7.49789E-001	1.22970E-003	0.00000E+000	3.70030E-001	0.00000E+000	10	...........	1583.05
	254	2.54	7.51550E-001	1.22978E-003	0.00000E+000	3.70030E-001	0.00000E+000	10	...........	1583.05
	255	2.55	7.53288E-001	1.22973E-003	0.00000E+000	3.70030E-001	0.00000E+000	10	...........	1583.05
	256	2.56	7.54989E-001	1.22965E-003	0.00000E+000	3.70030E-001	0.00000E+000	10	...........	1583.05
	257	2.57	7.56740E-001	1.22968E-003	0.00000E+000	3.70030E-001	0.00000E+000	10	...........	1583.05
	258	2.58	7.58484E-001	1.22972E-003	0.00000E+000	3.70030E-001	0.00000E+000	10	...........	1583.05
	259	2.59	7.60210E-001	1.22976E-003	0.00000E+000	3.70030E-001	0.00000E+000	10	...........	1583.05
	260	2.6	7.61918E-001	1.22974E-003	0.00000E+000	3.70030E-001	0.00000E+000	10	...........	1583.05
	261	2.61	7.63604E-001	1.22974E-003	0.00000E+000	3.70030E-001	0.00000E+000	10	...........	1583.05
	262	2.62	7.65301E-001	1.22968E-003	0.00000E+000	3.70030E-001	0.00000E+000	10	...........	1583.05
	263	2.63	7.66986E-001	1.22969E-003	0.00000E+000	3.70030E-001	0.00000E+000	10	...........	1583.05
	264	2.64	7.68692E-001	1.22969E-003	0.00000E+000	3.70030E-001	0.00000E+000	10	...........	1583.05
	265	2.65	7.70381E-001	1.22970E-003	0.00000E+000	3.70030E-001	0.00000E+000	10	...........	1583.05
	266	2.66	7.72058E-001	1.22972E-003	0.00000E+000	3.70030E-001	0.00000E+000	10	...........	1583.05
	267	2.67	7.73729E-001	1.22974E-003	0.00000E+000	3.70030E-001	0.00000E+000	10	...........	1583.05
	268	2.68	7.75392E-001	1.22970E-003	0.00000E+000	3.70030E-001	0.00000E+000	10	...........	1583.05
	269	2.69	7.77048E-001	1.22974E-003	0.00000E+000	3.70030E-001	0.00000E+000	10	...........	1583.05
	270	2.7	7.78695E-001	1.22972E-003	0.00000E+000	3.70030E-001	0.00000E+000	10	...........	1583.05
	271	2.71	7.80359E-001	1.22977E-003	0.00000E+000	3.70030E-001	0.00000E+000	10	...........	1583.05
	272	2.72	7.81998E-001	1.22978E-003	0.00000E+000	3.70030E-001	0.00000E+000	10	...........	1583.05
	273	2.73	7.83603E-001	1.22971E-003	0.00000E+000	3.70030E-001	0.00000E+000	10	...........	1583.05
	274	2.74	7.85212E-001	1.22968E-003	0.00000E+000	3.70030E-001	0.00000E+000	10	...........	1583.05
	275	2.75	7.86841E-001	1.22969E-003	0.00000E+000	3.70030E-001	0.00000E+000	10	...........	1583.05
	276	2.76	7.88439E-001	1.22968E-003	0.00000E+000	3.70030E-001	0.00000E+000	10	...........	1583.05
	277	2.77	7.90031E-001	1.22969E-003	0.00000E+000	3.70030E-001	0.00000E+000	10	...........	1583.05
	278	2.78	7.91620E-001	1.22966E-003	0.00000E+000	3.70030E-001	0.00000E+000	10	...........	1583.05
	279	2.79	7.93211E-001	1.22966E-003	0.00000E+000	3.70030E-001	0.00000E+000	10	...........	1583.05
	280	2.8	7.94812E-001	1.22969E-003	0.00000E+000	3.70030E-001	0.00000E+000	10	...........	1583.05
	281	2.81	7.96386E-001	1.22966E-003	0.00000E+000	3.70030E-001	0.00000E+000	10	...........	1583.05
	282	2.82	7.97946E-001	1.22972E-003	0.00000E+000	3.70030E-001	0.00000E+000	10	...........	1583.05
	283	2.83	7.99477E-001	1.22962E-003	0.00000E+000	3.70030E-001	0.00000E+000	10	...........	1583.05
	284	2.84	8.01040E-001	1.22969E-003	0.00000E+000	3.70030E-001	0.00000E+000	10	...........	1583.05
	285	2.85	8.02589E-001	1.22973E-003	0.00000E+000	3.70030E-001	0.00000E+000	10	...........	1583.05
	286	2.86	8.04119E-001	1.22973E-003	0.00000E+000	3.70030E-001	0.00000E+000	10	...........	1583.05
	287	2.87	7.80670E-001	-1.22975E-003	0.00000E+000	-3.70030E-001	0.00000E+000	10	...........	1583.05
	288	2.88	7.76188E-001	-1.22982E-003	0.00000E+000	-3.70030E-001	0.00000E+000	10	...........	1583.05
	289	2.89	7.72417E-001	-1.22988E-003	0.00000E+000	-3.70030E-001	0.00000E+000	10	...........	1583.05
	290	2.9	7.68940E-001	-1.22986E-003	0.00000E+000	-3.70030E-001	0.00000E+000	10	...........	1583.05
	291	2.91	7.65689E-001	-1.22988E-003	0.00000E+000	-3.70030E-001	0.00000E+000	10	...........	1583.05
	292	2.92	7.62549E-001	-1.22995E-003	0.00000E+000	-3.70030E-001	0.00000E+000	10	...........	1583.05
	293	2.93	7.59524E-001	-1.22994E-003	0.00000E+000	-3.70030E-001	0.00000E+000	10	...........	1583.05
	294	2.94	7.56585E-001	-1.22995E-003	0.00000E+000	-3.70030E-001	0.00000E+000	10	...........	1583.05
	295	2.95	7.53692E-001	-1.22997E-003	0.00000E+000	-3.70030E-001	0.00000E+000	10	...........	1583.05
	296	2.96	7.50860E-001	-1.22995E-003	0.00000E+000	-3.70030E-001	0.00000E+000	10	...........	1583.05
	297	2.97	7.48088E-001	-1.22994E-003	0.00000E+000	-3.70030E-001	0.00000E+000	10	...........	1583.05
	298	2.98	7.45322E-001	-1.22995E-003	0.00000E+000	-3.70030E-001	0.00000E+000	10	...........	1583.05
	299	2.99	7.42580E-001	-1.22998E-003	0.00000E+000	-3.70030E-001	0.00000E+000	10	...........	1583.05
	300	3	7.39896E-001	-1.23002E-003	0.00000E+000	-3.70030E-001	0.00000E+000	10	...........	1583.05
	301	3.01	7.37238E-001	-1.22999E-003	0.00000E+000	-3.70030E-001	0.00000E+000	10	...........	1583.05
	302	3.02	7.34593E-001	-1.22998E-003	0.00000E+000	-3.70030E-001	0.00000E+000	10	...........	1583.05
	303	3.03	7.31963E-001	-1.22996E-003	0.00000E+000	-3.70030E-001	0.00000E+000	10	...........	1583.05
	304	3.04	7.29363E-001	-1.23002E-003	0.00000E+000	-3.70030E-001	0.00000E+000	10	...........	1583.05
	305	3.05	7.26760E-001	-1.23001E-003	0.00000E+000	-3.70030E-001	0.00000E+000	10	...........	1583.05
	306	3.06	7.24180E-001	-1.23001E-003	0.00000E+000	-3.70030E-001	0.00000E+000	10	...........	1583.05
	307	3.07	7.21617E-001	-1.23001E-003	0.00000E+000	-3.70030E-001	0.00000E+000	10	...........	1583.05
	308	3.08	7.19097E-001	-1.22995E-003	0.00000E+000	-3.70030E-001	0.00000E+000	10	...........	1583.05
	309	3.09	7.16520E-001	-1.22996E-003	0.00000E+000	-3.70030E-001	0.00000E+000	10	...........	1583.05
	310	3.1	7.13998E-001	-1.23002E-003	0.00000E+000	-3.70030E-001	0.00000E+000	10	...........	1583.05
	311	3.11	7.11451E-001	-1.23007E-003	0.00000E+000	-3.70030E-001	0.00000E+000	10	...........	1583.05
	312	3.12	7.08915E-001	-1.23009E-003	0.00000E+000	-3.70030E-001	0.00000E+000	10	...........	1583.05
	313	3.13	7.06424E-001	-1.23006E-003	0.00000E+000	-3.70030E-001	0.00000E+000	10	...........	1583.05
	314	3.14	7.03909E-001	-1.23008E-003	0.00000E+000	-3.70030E-001	0.00000E+000	10	...........	1583.05
	315	3.15	7.01430E-001	-1.23001E-003	0.00000E+000	-3.70030E-001	0.00000E+000	10	...........	1583.05
	316	3.16	6.98967E-001	-1.23002E-003	0.00000E+000	-3.70030E-001	0.00000E+000	10	...........	1583.05
	317	3.17	6.96480E-001	-1.23002E-003	0.00000E+000	-3.70030E-001	0.00000E+000	10	...........	1583.05
	318	3.18	6.94014E-001	-1.23003E-003	0.00000E+000	-3.70030E-001	0.00000E+000	10	...........	1583.05
	319	3.19	6.91530E-001	-1.23007E-003	0.00000E+000	-3.70030E-001	0.00000E+000	10	...........	1583.05
	320	3.2	6.89060E-001	-1.23004E-003	0.00000E+000	-3.70030E-001	0.00000E+000	10	...........	1583.05
	321	3.21	6.86601E-001	-1.23009E-003	0.00000E+000	-3.70030E-001	0.00000E+000	10	...........	1583.05
	322	3.22	6.84175E-001	-1.23004E-003	0.00000E+000	-3.70030E-001	0.00000E+000	10	...........	1583.05
	323	3.23	6.81738E-001	-1.23002E-003	0.00000E+000	-3.70030E-001	0.00000E+000	10	...........	1583.05
	324	3.24	6.79331E-001	-1.23001E-003	0.00000E+000	-3.70030E-001	0.00000E+000	10	...........	1583.05
	325	3.25	6.76879E-001	-1.23004E-003	0.00000E+000	-3.70030E-001	0.00000E+000	10	...........	1583.05
	326	3.26	6.74425E-001	-1.23006E-003	0.00000E+000	-3.70030E-001	0.00000E+000	10	...........	1583.05
	327	3.27	6.71992E-001	-1.23005E-003	0.00000E+000	-3.70030E-001	0.00000E+000	10	...........	1583.05
	328	3.28	6.69589E-001	-1.23011E-003	0.00000E+000	-3.70030E-001	0.00000E+000	10	...........	1583.05
	329	3.29	6.67165E-001	-1.23009E-003	0.00000E+000	-3.70030E-001	0.00000E+000	10	...........	1582.96
	330	3.3	6.64711E-001	-1.23009E-003	0.00000E+000	-3.70030E-001	0.00000E+000	10	...........	1582.96
	331	3.31	6.62308E-001	-1.23007E-003	0.00000E+000	-3.70030E-001	0.00000E+000	10	...........	1582.96
	332	3.32	6.59919E-001	-1.23004E-003	0.00000E+000	-3.70030E-001	0.00000E+000	10	...........	1582.96
	333	3.33	6.57534E-001	-1.23004E-003	0.00000E+000	-3.70030E-001	0.00000E+000	10	...........	1582.96
	334	3.34	6.55123E-001	-1.23012E-003	0.00000E+000	-3.70030E-001	0.00000E+000	10	...........	1582.96
	335	3.35	6.52707E-001	-1.23007E-003	0.00000E+000	-3.70030E-001	0.00000E+000	10	...........	1582.96
	336	3.36	6.50337E-001	-1.23013E-003	0.00000E+000	-3.70030E-001	0.00000E+000	10	...........	1582.96
	337	3.37	6.47937E-001	-1.23012E-003	0.00000E+000	-3.70030E-001	0.00000E+000	10	...........	1582.96
	338	3.38	6.45555E-001	-1.23007E-003	0.00000E+000	-3.70030E-001	0.00000E+000	10	...........	1582.96
	339	3.39	6.43174E-001	-1.23012E-003	0.00000E+000	-3.70030E-001	0.00000E+000	10	...........	1582.96
	340	3.4	6.40805E-001	-1.23009E-003	0.00000E+000	-3.70030E-001	0.00000E+000	10	...........	1582.96
	341	3.41	6.38395E-001	-1.23009E-003	0.00000E+000	-3.70030E-001	0.00000E+000	10	...........	1582.96
	342	3.42	6.36040E-001	-1.23009E-003	0.00000E+000	-3.70030E-001	0.00000E+000	10	...........	1582.96
	343	3.43	6.33676E-001	-1.23006E-003	0.00000E+000	-3.70030E-001	0.00000E+000	10	...........	1582.96
	344	3.44	6.31303E-001	-1.23005E-003	0.00000E+000	-3.70030E-001	0.00000E+000	10	...........	1582.96
	345	3.45	6.28968E-001	-1.23004E-003	0.00000E+000	-3.70030E-001	0.00000E+000	10	...........	1582.96
	346	3.46	6.26606E-001	-1.23001E-003	0.00000E+000	-3.70030E-001	0.00000E+000	10	...........	1582.96
	347	3.47	6.24240E-001	-1.23007E-003	0.00000E+000	-3.70030E-001	0.00000E+000	10	...........	1582.96
	348	3.48	6.21901E-001	-1.23009E-003	0.00000E+000	-3.70030E-001	0.00000E+000	10	...........	1582.96
	349	3.49	6.19556E-001	-1.23009E-003	0.00000E+000	-3.70030E-001	0.00000E+000	10	...........	1582.96
	350	3.5	6.17199E-001	-1.23012E-003	0.00000E+000	-3.70030E-001	0.00000E+000	10	...........	1582.96
	351	3.51	6.14845E-001	-1.23008E-003	0.00000E+000	-3.70030E-001	0.00000E+000	10	...........	1582.96
	352	3.52	6.12503E-001	-1.23006E-003	0.00000E+000	-3.70030E-001	0.00000E+000	10	...........	1582.96
	353	3.53	6.10180E-001	-1.23007E-003	0.00000E+000	-3.70030E-001	0.00000E+000	10	...........	1582.96
	354	3.54	6.07827E-001	-1.23007E-003	0.00000E+000	-3.70030E-001	0.00000E+000	10	...........	1582.96
	355	3.55	6.05504E-001	-1.23008E-003	0.00000E+000	-3.70030E-001	0.00000E+000	10	...........	1582.96
	356	3.56	6.03187E-001	-1.23011E-003	0.00000E+000	-3.70030E-001	0.00000E+000	10	...........	1582.96
	357	3.57	6.00855E-001	-1.23008E-003	0.00000E+000	-3.70030E-001	0.00000E+000	10	...........	1582.96
	358	3.58	5.98532E-001	-1.23004E-003	0.00000E+000	-3.70030E-001	0.00000E+000	10	...........	1582.96
	359	3.59	5.96221E-001	-1.23007E-003	0.00000E+000	-3.70030E-001	0.00000E+000	10	...........	1582.96
	360	3.6	5.93901E-001	-1.23006E-003	0.00000E+000	-3.70030E-001	0.00000E+000	10	...........	1582.96
	361	3.61	5.91595E-001	-1.23007E-003	0.00000E+000	-3.70030E-001	0.00000E+000	10	...........	1582.96
	362	3.62	5.89287E-001	-1.23002E-003	0.00000E+000	-3.70030E-001	0.00000E+000	10	...........	1582.96
	363	3.63	5.86970E-001	-1.23001E-003	0.00000E+000	-3.70030E-001	0.00000E+000	10	...........	1582.96
	364	3.64	5.84667E-001	-1.23006E-003	0.00000E+000	-3.70030E-001	0.00000E+000	10	...........	1582.96
	365	3.65	5.82378E-001	-1.23007E-003	0.00000E+000	-3.70030E-001	0.00000E+000	10	...........	1582.96
	366	3.66	5.80099E-001	-1.23005E-003	0.00000E+000	-3.70030E-001	0.00000E+000	10	...........	1582.96
	367	3.67	5.77805E-001	-1.23006E-003	0.00000E+000	-3.70030E-001	0.00000E+000	10	...........	1582.96
	368	3.68	5.75499E-001	-1.23003E-003	0.00000E+000	-3.70030E-001	0.00000E+000	10	...........	1582.96
	369	3.69	5.73214E-001	-1.23009E-003	0.00000E+000	-3.70030E-001	0.00000E+000	10	...........	1582.96
	370	3.7	5.70930E-001	-1.23007E-003	0.00000E+000	-3.70030E-001	0.00000E+000	10	...........	1582.96
	371	3.71	5.68652E-001	-1.23006E-003	0.00000E+000	-3.70030E-001	0.00000E+000	10	...........	1582.96
	372	3.72	5.66384E-001	-1.23008E-003	0.00000E+000	-3.70030E-001	0.00000E+000	10	...........	1582.96
	373	3.73	5.64127E-001	-1.23009E-003	0.00000E+000	-3.70030E-001	0.00000E+000	10	...........	1582.96
	374	3.74	5.61837E-001	-1.23009E-003	0.00000E+000	-3.70030E-001	0.00000E+000	10	...........	1582.96
	375	3.75	5.59553E-001	-1.23003E-003	0.00000E+000	-3.70030E-001	0.00000E+000	10	...........	1582.96
	376	3.76	5.57308E-001	-1.23008E-003	0.00000E+000	-3.70030E-001	0.00000E+000	10	...........	1582.96
	377	3.77	5.55049E-001	-1.23013E-003	0.00000E+000	-3.70030E-001	0.00000E+000	10	...........	1582.96
	378	3.78	5.52787E-001	-1.23012E-003	0.00000E+000	-3.70030E-001	0.00000E+000	10	...........	1582.96
	379	3.79	5.50542E-001	-1.23007E-003	0.00000E+000	-3.70030E-001	0.00000E+000	10	...........	1582.96
	380	3.8	5.48277E-001	-1.23009E-003	0.00000E+000	-3.70030E-001	0.00000E+000	10	...........	1582.96
	381	3.81	5.46037E-001	-1.23011E-003	0.00000E+000	-3.70030E-001	0.00000E+000	10	...........	1582.96
	382	3.82	5.43775E-001	-1.23015E-003	0.00000E+000	-3.70030E-001	0.00000E+000	10	...........	1582.96
	383	3.83	5.41535E-001	-1.23012E-003	0.00000E+000	-3.70030E-001	0.00000E+000	10	...........	1582.96
	384	3.84	5.39301E-001	-1.23007E-003	0.00000E+000	-3.70030E-001	0.00000E+000	10	...........	1582.96
	385	3.85	5.37029E-001	-1.23009E-003	0.00000E+000	-3.70030E-001	0.00000E+000	10	...........	1582.96
	386	3.86	5.34808E-001	-1.23011E-003	0.00000E+000	-3.70030E-001	0.00000E+000	10	...........	1582.96
	387	3.87	5.32568E-001	-1.23010E-003	0.00000E+000	-3.70030E-001	0.00000E+000	10	...........	1582.96
	388	3.88	5.30354E-001	-1.23011E-003	0.00000E+000	-3.70030E-001	0.00000E+000	10	...........	1582.96
	389	3.89	5.28141E-001	-1.23008E-003	0.00000E+000	-3.70030E-001	0.00000E+000	10	...........	1582.96
	390	3.9	5.25922E-001	-1.23011E-003	0.00000E+000	-3.70030E-001	0.00000E+000	10	...........	1582.96
	391	3.91	5.23686E-001	-1.23010E-003	0.00000E+000	-3.70030E-001	0.00000E+000	10	...........	1582.96
	392	3.92	5.21456E-001	-1.23014E-003	0.00000E+000	-3.70030E-001	0.00000E+000	10	...........	1582.96
	393	3.93	5.19235E-001	-1.23012E-003	0.00000E+000	-3.70030E-001	0.00000E+000	10	...........	1582.96
	394	3.94	5.17026E-001	-1.23010E-003	0.00000E+000	-3.70030E-001	0.00000E+000	10	...........	1582.96
	395	3.95	5.14844E-001	-1.23006E-003	0.00000E+000	-3.70030E-001	0.00000E+000	10	...........	1582.96
	396	3.96	5.12640E-001	-1.23008E-003	0.00000E+000	-3.70030E-001	0.00000E+000	10	...........	1582.96
	397	3.97	5.10406E-001	-1.23009E-003	0.00000E+000	-3.70030E-001	0.00000E+000	10	...........	1582.96
	398	3.98	5.08190E-001	-1.23008E-003	0.00000E+000	-3.70030E-001	0.00000E+000	10	...........	1582.96
	399	3.99	5.06014E-001	-1.23005E-003	0.00000E+000	-3.70030E-001	0.00000E+000	10	...........	1582.96
	400	4	5.03821E-001	-1.23010E-003	0.00000E+000	-3.70030E-001	0.00000E+000	10	...........	1582.96
	401	4.01	5.01623E-001	-1.23006E-003	0.00000E+000	-3.70030E-001	0.00000E+000	10	...........	1582.96
	402	4.02	4.99444E-001	-1.23010E-003	0.00000E+000	-3.70030E-001	0.00000E+000	10	...........	1582.96
	403	4.03	4.97242E-001	-1.23003E-003	0.00000E+000	-3.70030E-001	0.00000E+000	10	...........	1582.96
	404	4.04	4.95070E-001	-1.23007E-003	0.00000E+000	-3.70030E-001	0.00000E+000	10	...........	1582.96
	405	4.05	4.92892E-001	-1.23004E-003	0.00000E+000	-3.70030E-001	0.00000E+000	10	...........	1582.96
	406	4.06	4.90712E-001	-1.23005E-003	0.00000E+000	-3.70030E-001	0.00000E+000	10	...........	1582.96
	407	4.07	4.88543E-001	-1.23007E-003	0.00000E+000	-3.70030E-001	0.00000E+000	10	...........	1582.96
	408	4.08	4.86352E-001	-1.23006E-003	0.00000E+000	-3.70030E-001	0.00000E+000	10	...........	1582.96
	409	4.09	4.84187E-001	-1.23009E-003	0.00000E+000	-3.70030E-001	0.00000E+000	10	...........	1582.96
	410	4.1	4.82014E-001	-1.23005E-003	0.00000E+000	-3.70030E-001	0.00000E+000	10	...........	1582.96
	411	4.11	4.79848E-001	-1.23007E-003	0.00000E+000	-3.70030E-001	0.00000E+000	10	...........	1582.96
	412	4.12	4.77697E-001	-1.23004E-003	0.00000E+000	-3.70030E-001	0.00000E+000	10	...........	1582.96
	413	4.13	4.75554E-001	-1.23004E-003	0.00000E+000	-3.70030E-001	0.00000E+000	10	...........	1582.96
	414	4.14	4.73361E-001	-1.23011E-003	0.00000E+000	-3.70030E-001	0.00000E+000	10	...........	1582.96
	415	4.15	4.71196E-001	-1.23009E-003	0.00000E+000	-3.70030E-001	0.00000E+000	10	...........	1582.96
	416	4.16	4.69063E-001	-1.23008E-003	0.00000E+000	-3.70030E-001	0.00000E+000	10	...........	1582.96
	417	4.17	4.66920E-001	-1.23003E-003	0.00000E+000	-3.70030E-001	0.00000E+000	10	...........	1582.96
	418	4.18	4.64777E-001	-1.23005E-003	0.00000E+000	-3.70030E-001	0.00000E+000	10	...........	1582.96
	419	4.19	4.62636E-001	-1.23006E-003	0.00000E+000	-3.70030E-001	0.00000E+000	10	...........	1582.96
	420	4.2	4.60459E-001	-1.23006E-003	0.00000E+000	-3.70030E-001	0.00000E+000	10	...........	1582.96
	421	4.21	4.58331E-001	-1.23004E-003	0.00000E+000	-3.70030E-001	0.00000E+000	10	...........	1582.96
	422	4.22	4.56193E-001	-1.23002E-003	0.00000E+000	-3.70030E-001	0.00000E+000	10	...........	1582.96
	423	4.23	4.54071E-001	-1.23004E-003	0.00000E+000	-3.70030E-001	0.00000E+000	10	...........	1582.96
	424	4.24	4.51967E-001	-1.23003E-003	0.00000E+000	-3.70030E-001	0.00000E+000	10	...........	1582.96
	425	4.25	4.49808E-001	-1.23007E-003	0.00000E+000	-3.70030E-001	0.00000E+000	10	...........	1582.96
	426	4.26	4.47660E-001	-1.23010E-003	0.00000E+000	-3.70030E-001	0.00000E+000	10	...........	1582.96
	427	4.27	4.45546E-001	-1.23008E-003	0.00000E+000	-3.70030E-001	0.00000E+000	10	...........	1582.96
	428	4.28	4.43437E-001	-1.23007E-003	0.00000E+000	-3.70030E-001	0.00000E+000	10	...........	1582.96
	429	4.29	4.41309E-001	-1.23008E-003	0.00000E+000	-3.70030E-001	0.00000E+000	10	...........	1582.96
	430	4.3	4.39200E-001	-1.23006E-003	0.00000E+000	-3.70030E-001	0.00000E+000	10	...........	1582.96
	431	4.31	4.37100E-001	-1.23007E-003	0.00000E+000	-3.70030E-001	0.00000E+000	10	...........	1582.96
	432	4.32	4.34962E-001	-1.23001E-003	0.00000E+000	-3.70030E-001	0.00000E+000	10	...........	1582.96
	433	4.33	4.32855E-001	-1.23010E-003	0.00000E+000	-3.70030E-001	0.00000E+000	10	...........	1582.96
	434	4.34	4.30748E-001	-1.23003E-003	0.00000E+000	-3.70030E-001	0.00000E+000	10	...........	1582.96
	435	4.35	4.28625E-001	-1.23007E-003	0.00000E+000	-3.70030E-001	0.00000E+000	10	...........	1582.96
	436	4.36	4.26553E-001	-1.23005E-003	0.00000E+000	-3.70030E-001	0.00000E+000	10	...........	1582.96
	437	4.37	4.24447E-001	-1.23006E-003	0.00000E+000	-3.70030E-001	0.00000E+000	10	...........	1582.96
	438	4.38	4.22321E-001	-1.23007E-003	0.00000E+000	-3.70030E-001	0.00000E+000	10	...........	1582.96
	439	4.39	4.20228E-001	-1.23009E-003	0.00000E+000	-3.70030E-001	0.00000E+000	10	...........	1582.96
	440	4.4	4.18145E-001	-1.23005E-003	0.00000E+000	-3.70030E-001	0.00000E+000	10	...........	1582.96
	441	4.41	4.16063E-001	-1.23005E-003	0.00000E+000	-3.70030E-001	0.00000E+000	10	...........	1582.96
	442	4.42	4.13958E-001	-1.23006E-003	0.00000E+000	-3.70030E-001	0.00000E+000	10	...........	1582.96
	443	4.43	4.11868E-001	-1.23011E-003	0.00000E+000	-3.70030E-001	0.00000E+000	10	...........	1582.96
	444	4.44	4.09787E-001	-1.23010E-003	0.00000E+000	-3.70030E-001	0.00000E+000	10	...........	1582.96
	445	4.45	4.07676E-001	-1.23011E-003	0.00000E+000	-3.70030E-001	0.00000E+000	10	...........	1582.96
	446	4.46	4.05605E-001	-1.23010E-003	0.00000E+000	-3.70030E-001	0.00000E+000	10	...........	1582.96
	447	4.47	4.03545E-001	-1.23010E-003	0.00000E+000	-3.70030E-001	0.00000E+000	10	...........	1582.96
	448	4.48	4.01462E-001	-1.23010E-003	0.00000E+000	-3.70030E-001	0.00000E+000	10	...........	1582.96
	449	4.49	3.99394E-001	-1.23010E-003	0.00000E+000	-3.70030E-001	0.00000E+000	10	...........	1582.96
	450	4.5	3.97325E-001	-1.23008E-003	0.00000E+000	-3.70030E-001	0.00000E+000	10	...........	1582.96
	451	4.51	3.95231E-001	-1.23010E-003	0.00000E+000	-3.70030E-001	0.00000E+000	10	...........	1582.96
	452	4.52	3.93166E-001	-1.23009E-003	0.00000E+000	-3.70030E-001	0.00000E+000	10	...........	1582.96
	453	4.53	3.91106E-001	-1.23009E-003	0.00000E+000	-3.70030E-001	0.00000E+000	10	...........	1582.96
	454	4.54	3.89054E-001	-1.23011E-003	0.00000E+000	-3.70030E-001	0.00000E+000	10	...........	1582.96
	455	4.55	3.86983E-001	-1.23003E-003	0.00000E+000	-3.70030E-001	0.00000E+000	10	...........	1582.96
	456	4.56	3.84925E-001	-1.23008E-003	0.00000E+000	-3.70030E-001	0.00000E+000	10	...........	1582.96
	457	4.57	3.82855E-001	-1.23008E-003	0.00000E+000	-3.70030E-001	0.00000E+000	10	...........	1582.96
	458	4.58	3.80800E-001	-1.23010E-003	0.00000E+000	-3.70030E-001	0.00000E+000	10	...........	1582.96
	459	4.59	3.78765E-001	-1.23013E-003	0.00000E+000	-3.70030E-001	0.00000E+000	10	...........	1582.96
	460	4.6	3.76701E-001	-1.23009E-003	0.00000E+000	-3.70030E-001	0.00000E+000	10	...........	1582.96
	461	4.61	3.74663E-001	-1.23009E-003	0.00000E+000	-3.70030E-001	0.00000E+000	10	...........	1582.96
	462	4.62	3.72636E-001	-1.23011E-003	0.00000E+000	-3.70030E-001	0.00000E+000	10	...........	1582.96
	463	4.63	3.70550E-001	-1.23004E-003	0.00000E+000	-3.70030E-001	0.00000E+000	10	...........	1582.96
	464	4.64	3.68523E-001	-1.23004E-003	0.00000E+000	-3.70030E-001	0.00000E+000	10	...........	1582.96
	465	4.65	3.66485E-001	-1.23006E-003	0.00000E+000	-3.70030E-001	0.00000E+000	10	...........	1582.96
	466	4.66	3.64448E-001	-1.23003E-003	0.00000E+000	-3.70030E-001	0.00000E+000	10	...........	1582.96
	467	4.67	3.62410E-001	-1.23009E-003	0.00000E+000	-3.70030E-001	0.00000E+000	10	...........	1582.96
	468	4.68	3.60383E-001	-1.23009E-003	0.00000E+000	-3.70030E-001	0.00000E+000	10	...........	1582.96
	469	4.69	3.58309E-001	-1.23004E-003	0.00000E+000	-3.70030E-001	0.00000E+000	10	...........	1582.96
	470	4.7	3.56285E-001	-1.23010E-003	0.00000E+000	-3.70030E-001	0.00000E+000	10	...........	1582.96
	471	4.71	3.54272E-001	-1.23004E-003	0.00000E+000	-3.70030E-001	0.00000E+000	10	...........	1582.96
	472	4.72	3.52249E-001	-1.23006E-003	0.00000E+000	-3.70030E-001	0.00000E+000	10	...........	1582.96
	473	4.73	3.50234E-001	-1.23006E-003	0.00000E+000	-3.70030E-001	0.00000E+000	10	...........	1582.96
	474	4.74	3.48194E-001	-1.23011E-003	0.00000E+000	-3.70030E-001	0.00000E+000	10	...........	1582.96
	475	4.75	3.46169E-001	-1.23012E-003	0.00000E+000	-3.70030E-001	0.00000E+000	10	...........	1582.96
	476	4.76	3.44144E-001	-1.23014E-003	0.00000E+000	-3.70030E-001	0.00000E+000	10	...........	1582.96
	477	4.77	3.42129E-001	-1.23014E-003	0.00000E+000	-3.70030E-001	0.00000E+000	10	...........	1582.96
	478	4.78	3.40125E-001	-1.23013E-003	0.00000E+000	-3.70030E-001	0.00000E+000	10	...........	1582.96
	479	4.79	3.38124E-001	-1.23009E-003	0.00000E+000	-3.70030E-001	0.00000E+000	10	...........	1582.96
	480	4.8	3.36109E-001	-1.23005E-003	0.00000E+000	-3.70030E-001	0.00000E+000	10	...........	1582.96
	481	4.81	3.34102E-001	-1.23006E-003	0.00000E+000	-3.70030E-001	0.00000E+000	10	...........	1582.96
	482	4.82	3.32074E-001	-1.23002E-003	0.00000E+000	-3.70030E-001	0.00000E+000	10	...........	1582.96
	483	4.83	3.30061E-001	-1.23005E-003	0.00000E+000	-3.70030E-001	0.00000E+000	10	...........	1582.96
	484	4.84	3.28077E-001	-1.23007E-003	0.00000E+000	-3.70030E-001	0.00000E+000	10	...........	1582.96
	485	4.85	3.26062E-001	-1.23008E-003	0.00000E+000	-3.70030E-001	0.00000E+000	10	...........	1582.96
	486	4.86	3.24070E-001	-1.23004E-003	0.00000E+000	-3.70030E-001	0.00000E+000	10	...........	1582.96
	487	4.87	3.22090E-001	-1.23002E-003	0.00000E+000	-3.70030E-001	0.00000E+000	10	...........	1582.96
	488	4.88	3.20071E-001	-1.23007E-003	0.00000E+000	-3.70030E-001	0.00000E+000	10	...........	1582.96
	489	4.89	3.18062E-001	-1.23010E-003	0.00000E+000	-3.70030E-001	0.00000E+000	10	...........	1582.96
	490	4.9	3.16066E-001	-1.23010E-003	0.00000E+000	-3.70030E-001	0.00000E+000	10	...........	1582.96
	491	4.91	3.14088E-001	-1.23010E-003	0.00000E+000	-3.70030E-001	0.00000E+000	10	...........	1582.96
	492	4.92	3.12092E-001	-1.23009E-003	0.00000E+000	-3.70030E-001	0.00000E+000	10	...........	1582.96
	493	4.93	3.10098E-001	-1.23006E-003	0.00000E+000	-3.70030E-001	0.00000E+000	10	...........	1582.96
	494	4.94	3.08115E-001	-1.23009E-003	0.00000E+000	-3.70030E-001	0.00000E+000	10	...........	1582.96
	495	4.95	3.06095E-001	-1.23012E-003	0.00000E+000	-3.70030E-001	0.00000E+000	10	...........	1582.96
	496	4.96	3.04138E-001	-1.23008E-003	0.00000E+000	-3.70030E-001	0.00000E+000	10	...........	1582.96
	497	4.97	3.02149E-001	-1.23009E-003	0.00000E+000	-3.70030E-001	0.00000E+000	10	...........	1582.96
	498	4.98	3.00181E-001	-1.23004E-003	0.00000E+000	-3.70030E-001	0.00000E+000	10	...........	1582.96
	499	4.99	2.98231E-001	-1.23005E-003	0.00000E+000	-3.70030E-001	0.00000E+000	10	...........	1582.96
	500	5	2.96253E-001	-1.23006E-003	0.00000E+000	-3.70030E-001	0.00000E+000	10	...........	1582.96
	501	5.01	2.94246E-001	-1.23009E-003	0.00000E+000	-3.70030E-001	0.00000E+000	10	...........	1582.96
	502	5.02	2.92269E-001	-1.23012E-003	0.00000E+000	-3.70030E-001	0.00000E+000	10	...........	1582.96
	503	5.03	2.90293E-001	-1.23012E-003	0.00000E+000	-3.70030E-001	0.00000E+000	10	...........	1582.96
	504	5.04	2.88330E-001	-1.23014E-003	0.00000E+000	-3.70030E-001	0.00000E+000	10	...........	1582.96
	505	5.05	2.86359E-001	-1.23009E-003	0.00000E+000	-3.70030E-001	0.00000E+000	10	...........	1582.96
	506	5.06	2.84400E-001	-1.23008E-003	0.00000E+000	-3.70030E-001	0.00000E+000	10	...........	1582.96
	507	5.07	2.82461E-001	-1.23006E-003	0.00000E+000	-3.70030E-001	0.00000E+000	10	...........	1582.96
	508	5.08	2.80472E-001	-1.23009E-003	0.00000E+000	-3.70030E-001	0.00000E+000	10	...........	1582.96
	509	5.09	2.78510E-001	-1.23009E-003	0.00000E+000	-3.70030E-001	0.00000E+000	10	...........	1582.96
	510	5.1	2.76561E-001	-1.23009E-003	0.00000E+000	-3.70030E-001	0.00000E+000	10	...........	1582.96
	511	5.11	2.74596E-001	-1.23004E-003	0.00000E+000	-3.70030E-001	0.00000E+000	10	...........	1582.96
	512	5.12	2.72644E-001	-1.23004E-003	0.00000E+000	-3.70030E-001	0.00000E+000	10	...........	1582.96
	513	5.13	2.70711E-001	-1.23008E-003	0.00000E+000	-3.70030E-001	0.00000E+000	10	...........	1582.96
	514	5.14	2.68734E-001	-1.23010E-003	0.00000E+000	-3.70030E-001	0.00000E+000	10	...........	1582.96
	515	5.15	2.66797E-001	-1.23012E-003	0.00000E+000	-3.70030E-001	0.00000E+000	10	...........	1582.96
	516	5.16	2.64843E-001	-1.23009E-003	0.00000E+000	-3.70030E-001	0.00000E+000	10	...........	1582.96
	517	5.17	2.62907E-001	-1.23009E-003	0.00000E+000	-3.70030E-001	0.00000E+000	10	...........	1582.96
	518	5.18	2.60958E-001	-1.23006E-003	0.00000E+000	-3.70030E-001	0.00000E+000	10	...........	1582.96
	519	5.19	2.59017E-001	-1.23010E-003	0.00000E+000	-3.70030E-001	0.00000E+000	10	...........	1582.96
	520	5.2	2.57089E-001	-1.23007E-003	0.00000E+000	-3.70030E-001	0.00000E+000	10	...........	1582.96
	521	5.21	2.55124E-001	-1.23007E-003	0.00000E+000	-3.70030E-001	0.00000E+000	10	...........	1582.96
	522	5.22	2.53190E-001	-1.23014E-003	0.00000E+000	-3.70030E-001	0.00000E+000	10	...........	1582.96
	523	5.23	2.51253E-001	-1.23010E-003	0.00000E+000	-3.70030E-001	0.00000E+000	10	...........	1582.96
	524	5.24	2.49346E-001	-1.23006E-003	0.00000E+000	-3.70030E-001	0.00000E+000	10	...........	1582.96
	525	5.25	2.47422E-001	-1.23005E-003	0.00000E+000	-3.70030E-001	0.00000E+000	10	...........	1582.96
	526	5.26	2.45502E-001	-1.23005E-003	0.00000E+000	-3.70030E-001	0.00000E+000	10	...........	1582.96
	527	5.27	2.43568E-001	-1.23007E-003	0.00000E+000	-3.70030E-001	0.00000E+000	10	...........	1582.96
	528	5.28	2.41627E-001	-1.23009E-003	0.00000E+000	-3.70030E-001	0.00000E+000	10	...........	1582.96
	529	5.29	2.39748E-001	-1.23006E-003	0.00000E+000	-3.70030E-001	0.00000E+000	10	...........	1583.05
	530	5.3	2.37832E-001	-1.23009E-003	0.00000E+000	-3.70030E-001	0.00000E+000	10	...........	1583.05
	531	5.31	2.35914E-001	-1.23007E-003	0.00000E+000	-3.70030E-001	0.00000E+000	10	...........	1583.05
	532	5.32	2.34000E-001	-1.23007E-003	0.00000E+000	-3.70030E-001	0.00000E+000	10	...........	1583.05
	533	5.33	2.32089E-001	-1.23013E-003	0.00000E+000	-3.70030E-001	0.00000E+000	10	...........	1583.05
	534	5.34	2.30183E-001	-1.23010E-003	0.00000E+000	-3.70030E-001	0.00000E+000	10	...........	1583.05
	535	5.35	2.28277E-001	-1.23007E-003	0.00000E+000	-3.70030E-001	0.00000E+000	10	...........	1583.05
	536	5.36	2.26372E-001	-1.23007E-003	0.00000E+000	-3.70030E-001	0.00000E+000	10	...........	1583.05
	537	5.37	2.24472E-001	-1.23009E-003	0.00000E+000	-3.70030E-001	0.00000E+000	10	...........	1583.05
	538	5.38	2.22573E-001	-1.23010E-003	0.00000E+000	-3.70030E-001	0.00000E+000	10	...........	1583.05
	539	5.39	2.20681E-001	-1.23010E-003	0.00000E+000	-3.70030E-001	0.00000E+000	10	...........	1583.05
	540	5.4	2.18787E-001	-1.23006E-003	0.00000E+000	-3.70030E-001	0.00000E+000	10	...........	1583.05
	541	5.41	2.16899E-001	-1.23004E-003	0.00000E+000	-3.70030E-001	0.00000E+000	10	...........	1583.05
	542	5.42	2.15012E-001	-1.23005E-003	0.00000E+000	-3.70030E-001	0.00000E+000	10	...........	1583.05
	543	5.43	2.13130E-001	-1.23008E-003	0.00000E+000	-3.70030E-001	0.00000E+000	10	...........	1583.05
	544	5.44	2.11249E-001	-1.23011E-003	0.00000E+000	-3.70030E-001	0.00000E+000	10	...........	1583.05
	545	5.45	2.09371E-001	-1.23011E-003	0.00000E+000	-3.70030E-001	0.00000E+000	10	...........	1583.05
	546	5.46	2.07500E-001	-1.23008E-003	0.00000E+000	-3.70030E-001	0.00000E+000	10	...........	1583.05
	547	5.47	2.05628E-001	-1.23004E-003	0.00000E+000	-3.70030E-001	0.00000E+000	10	...........	1583.05
	548	5.48	2.03763E-001	-1.23004E-003	0.00000E+000	-3.70030E-001	0.00000E+000	10	...........	1583.05
	549	5.49	2.01896E-001	-1.23010E-003	0.00000E+000	-3.70030E-001	0.00000E+000	10	...........	1583.05
	550	5.5	2.00031E-001	-1.23012E-003	0.00000E+000	-3.70030E-001	0.00000E+000	10	...........	1583.05
	551	5.51	1.98170E-001	-1.23016E-003	0.00000E+000	-3.70030E-001	0.00000E+000	10	...........	1583.05
	552	5.52	1.96308E-001	-1.23016E-003	0.00000E+000	-3.70030E-001	0.00000E+000	10	...........	1583.05
	553	5.53	1.94461E-001	-1.23013E-003	0.00000E+000	-3.70030E-001	0.00000E+000	10	...........	1583.05
	554	5.54	1.92610E-001	-1.23014E-003	0.00000E+000	-3.70030E-001	0.00000E+000	10	...........	1583.05
	555	5.55	1.90764E-001	-1.23008E-003	0.00000E+000	-3.70030E-001	0.00000E+000	10	...........	1583.05
	556	5.56	1.88925E-001	-1.23009E-003	0.00000E+000	-3.70030E-001	0.00000E+000	10	...........	1583.05
	557	5.57	1.87081E-001	-1.23011E-003	0.00000E+000	-3.70030E-001	0.00000E+000	10	...........	1583.05
	558	5.58	1.85246E-001	-1.23008E-003	0.00000E+000	-3.70030E-001	0.00000E+000	10	...........	1583.05
	559	5.59	1.83414E-001	-1.23010E-003	0.00000E+000	-3.70030E-001	0.00000E+000	10	...........	1583.05
	560	5.6	1.81585E-001	-1.23011E-003	0.00000E+000	-3.70030E-001	0.00000E+000	10	...........	1583.05
	561	5.61	1.79764E-001	-1.23001E-003	0.00000E+000	-3.70030E-001	0.00000E+000	10	...........	1583.05
	562	5.62	1.77944E-001	-1.23000E-003	0.00000E+000	-3.70030E-001	0.00000E+000	10	...........	1583.05
	563	5.63	1.76129E-001	-1.23001E-003	0.00000E+000	-3.70030E-001	0.00000E+000	10	...........	1583.05
	564	5.64	1.74314E-001	-1.23003E-003	0.00000E+000	-3.70030E-001	0.00000E+000	10	...........	1583.05
	565	5.65	1.72503E-001	-1.23008E-003	0.00000E+000	-3.70030E-001	0.00000E+000	10	...........	1583.05
	566	5.66	1.70697E-001	-1.23004E-003	0.00000E+000	-3.70030E-001	0.00000E+000	10	...........	1583.05
	567	5.67	1.68892E-001	-1.23009E-003	0.00000E+000	-3.70030E-001	0.00000E+000	10	...........	1583.05
	568	5.68	1.67094E-001	-1.23006E-003	0.00000E+000	-3.70030E-001	0.00000E+000	10	...........	1583.05
	569	5.69	1.65301E-001	-1.23009E-003	0.00000E+000	-3.70030E-001	0.00000E+000	10	...........	1583.05
	570	5.7	1.63514E-001	-1.23006E-003	0.00000E+000	-3.70030E-001	0.00000E+000	10	...........	1583.05
	571	5.71	1.61731E-001	-1.23006E-003	0.00000E+000	-3.70030E-001	0.00000E+000	10	...........	1583.05
	572	5.72	1.59948E-001	-1.23002E-003	0.00000E+000	-3.70030E-001	0.00000E+000	10	...........	1583.05
	573	5.73	1.58168E-001	-1.23005E-003	0.00000E+000	-3.70030E-001	0.00000E+000	10	...........	1583.05
	574	5.74	1.56401E-001	-1.23007E-003	0.00000E+000	-3.70030E-001	0.00000E+000	10	...........	1583.05
	575	5.75	1.54631E-001	-1.23009E-003	0.00000E+000	-3.70030E-001	0.00000E+000	10	...........	1583.05
	576	5.76	1.52865E-001	-1.23008E-003	0.00000E+000	-3.70030E-001	0.00000E+000	10	...........	1583.05
	577	5.77	1.51104E-001	-1.23010E-003	0.00000E+000	-3.70030E-001	0.00000E+000	10	...........	1583.05
	578	5.78	1.49352E-001	-1.23011E-003	0.00000E+000	-3.70030E-001	0.00000E+000	10	...........	1583.05
	579	5.79	1.47600E-001	-1.23006E-003	0.00000E+000	-3.70030E-001	0.00000E+000	10	...........	1583.05
	580	5.8	1.45857E-001	-1.23002E-003	0.00000E+000	-3.70030E-001	0.00000E+000	10	...........	1583.05
	581	5.81	1.44115E-001	-1.23004E-003	0.00000E+000	-3.70030E-001	0.00000E+000	10	...........	1583.05
	582	5.82	1.42376E-001	-1.23003E-003	0.00000E+000	-3.70030E-001	0.00000E+000	10	...........	1583.05
	583	5.83	1.40646E-001	-1.23006E-003	0.00000E+000	-3.70030E-001	0.00000E+000	10	...........	1583.05
	584	5.84	1.38915E-001	-1.23006E-003	0.00000E+000	-3.70030E-001	0.00000E+000	10	...........	1583.05
	585	5.85	1.37193E-001	-1.23009E-003	0.00000E+000	-3.70030E-001	0.00000E+000	10	...........	1583.05
	586	5.86	1.35472E-001	-1.23008E-003	0.00000E+000	-3.70030E-001	0.00000E+000	10	...........	1583.05
	587	5.87	1.33760E-001	-1.23009E-003	0.00000E+000	-3.70030E-001	0.00000E+000	10	...........	1583.05
	588	5.88	1.32052E-001	-1.23013E-003	0.00000E+000	-3.70030E-001	0.00000E+000	10	...........	1583.05
	589	5.89	1.30344E-001	-1.23011E-003	0.00000E+000	-3.70030E-001	0.00000E+000	10	...........	1583.05
	590	5.9	1.28647E-001	-1.23011E-003	0.00000E+000	-3.70030E-001	0.00000E+000	10	...........	1583.05
	591	5.91	1.26950E-001	-1.23009E-003	0.00000E+000	-3.70030E-001	0.00000E+000	10	...........	1583.05
	592	5.92	1.25261E-001	-1.23009E-003	0.00000E+000	-3.70030E-001	0.00000E+000	10	...........	1583.05
	593	5.93	1.23576E-001	-1.23009E-003	0.00000E+000	-3.70030E-001	0.00000E+000	10	...........	1583.05
	594	5.94	1.21894E-001	-1.23008E-003	0.00000E+000	-3.70030E-001	0.00000E+000	10	...........	1583.05
	595	5.95	1.20216E-001	-1.23012E-003	0.00000E+000	-3.70030E-001	0.00000E+000	10	...........	1583.05
	596	5.96	1.18546E-001	-1.23007E-003	0.00000E+000	-3.70030E-001	0.00000E+000	10	...........	1583.05
	597	5.97	1.16878E-001	-1.23007E-003	0.00000E+000	-3.70030E-001	0.00000E+000	10	...........	1583.05
	598	5.98	1.15221E-001	-1.23004E-003	0.00000E+000	-3.70030E-001	0.00000E+000	10	...........	1583.05
	599	5.99	1.13568E-001	-1.23004E-003	0.00000E+000	-3.70030E-001	0.00000E+000	10	...........	1583.05
	600	6	1.11915E-001	-1.22999E-003	0.00000E+000	-3.70030E-001	0.00000E+000	10	...........	1583.05
	601	6.01	1.10274E-001	-1.23000E-003	0.00000E+000	-3.70030E-001	0.00000E+000	10	...........	1583.05
	602	6.02	1.08630E-001	-1.23003E-003	0.00000E+000	-3.70030E-001	0.00000E+000	10	...........	1583.05
	603	6.03	1.06993E-001	-1.23004E-003	0.00000E+000	-3.70030E-001	0.00000E+000	10	...........	1583.05
	604	6.04	1.05363E-001	-1.23008E-003	0.00000E+000	-3.70030E-001	0.00000E+000	10	...........	1583.05
	605	6.05	1.03737E-001	-1.23011E-003	0.00000E+000	-3.70030E-001	0.00000E+000	10	...........	1583.05
	606	6.06	1.02111E-001	-1.23009E-003	0.00000E+000	-3.70030E-001	0.00000E+000	10	...........	1583.05
	607	6.07	1.00497E-001	-1.23009E-003	0.00000E+000	-3.70030E-001	0.00000E+000	10	...........	1583.05
	608	6.08	9.88834E-002	-1.23007E-003	0.00000E+000	-3.70030E-001	0.00000E+000	10	...........	1583.05
	609	6.09	9.72778E-002	-1.23012E-003	0.00000E+000	-3.70030E-001	0.00000E+000	10	...........	1583.05
	610	6.1	9.56740E-002	-1.23009E-003	0.00000E+000	-3.70030E-001	0.00000E+000	10	...........	1583.05
	611	6.11	9.40799E-002	-1.23016E-003	0.00000E+000	-3.70030E-001	0.00000E+000	10	...........	1583.05
	612	6.12	9.24918E-002	-1.23008E-003	0.00000E+000	-3.70030E-001	0.00000E+000	10	...........	1583.05
	613	6.13	9.09050E-002	-1.23010E-003	0.00000E+000	-3.70030E-001	0.00000E+000	10	...........	1583.05
	614	6.14	8.93240E-002	-1.23008E-003	0.00000E+000	-3.70030E-001	0.00000E+000	10	...........	1583.05
	615	6.15	8.77464E-002	-1.23005E-003	0.00000E+000	-3.70030E-001	0.00000E+000	10	...........	1583.05
	616	6.16	8.61736E-002	-1.23006E-003	0.00000E+000	-3.70030E-001	0.00000E+000	10	...........	1583.05
	617	6.17	8.46099E-002	-1.23009E-003	0.00000E+000	-3.70030E-001	0.00000E+000	10	...........	1583.05
	618	6.18	8.30459E-002	-1.23007E-003	0.00000E+000	-3.70030E-001	0.00000E+000	10	...........	1583.05
	619	6.19	8.14921E-002	-1.23009E-003	0.00000E+000	-3.70030E-001	0.00000E+000	10	...........	1583.05
	620	6.2	7.99402E-002	-1.23003E-003	0.00000E+000	-3.70030E-001	0.00000E+000	10	...........	1583.05
	621	6.21	7.83920E-002	-1.23009E-003	0.00000E+000	-3.70030E-001	0.00000E+000	10	...........	1583.05
	622	6.22	7.68531E-002	-1.23009E-003	0.00000E+000	-3.70030E-001	0.00000E+000	10	...........	1583.05
	623	6.23	7.53128E-002	-1.23007E-003	0.00000E+000	-3.70030E-001	0.00000E+000	10	...........	1583.05
	624	6.24	7.37810E-002	-1.23006E-003	0.00000E+000	-3.70030E-001	0.00000E+000	10	...........	1583.05
	625	6.25	7.22557E-002	-1.23010E-003	0.00000E+000	-3.70030E-001	0.00000E+000	10	...........	1583.05
	626	6.26	7.07354E-002	-1.23006E-003	0.00000E+000	-3.70030E-001	0.00000E+000	10	...........	1583.05
	627	6.27	6.92180E-002	-1.23007E-003	0.00000E+000	-3.70030E-001	0.00000E+000	10	...........	1583.05
	628	6.28	6.77075E-002	-1.23002E-003	0.00000E+000	-3.70030E-001	0.00000E+000	10	...........	1583.05
	629	6.29	6.61982E-002	-1.23006E-003	0.00000E+000	-3.70030E-001	0.00000E+000	10	...........	1583.15
	630	6.3	6.46980E-002	-1.23006E-003	0.00000E+000	-3.70030E-001	0.00000E+000	10	...........	1583.15
	631	6.31	6.31996E-002	-1.23009E-003	0.00000E+000	-3.70030E-001	0.00000E+000	10	...........	1583.15
	632	6.32	6.17105E-002	-1.23004E-003	0.00000E+000	-3.70030E-001	0.00000E+000	10	...........	1583.15
	633	6.33	6.02195E-002	-1.23007E-003	0.00000E+000	-3.70030E-001	0.00000E+000	10	...........	1583.15
	634	6.34	5.87359E-002	-1.23006E-003	0.00000E+000	-3.70030E-001	0.00000E+000	10	...........	1583.15
	635	6.35	5.72576E-002	-1.23008E-003	0.00000E+000	-3.70030E-001	0.00000E+000	10	...........	1583.15
	636	6.36	5.57850E-002	-1.23011E-003	0.00000E+000	-3.70030E-001	0.00000E+000	10	...........	1583.15
	637	6.37	5.43189E-002	-1.23004E-003	0.00000E+000	-3.70030E-001	0.00000E+000	10	...........	1583.15
	638	6.38	5.28583E-002	-1.23008E-003	0.00000E+000	-3.70030E-001	0.00000E+000	10	...........	1583.15
	639	6.39	5.13958E-002	-1.23003E-003	0.00000E+000	-3.70030E-001	0.00000E+000	10	...........	1583.15
	640	6.4	4.99424E-002	-1.23008E-003	0.00000E+000	-3.70030E-001	0.00000E+000	10	...........	1583.15
	641	6.41	4.84909E-002	-1.23003E-003	0.00000E+000	-3.70030E-001	0.00000E+000	10	...........	1583.15
	642	6.42	4.70494E-002	-1.23004E-003	0.00000E+000	-3.70030E-001	0.00000E+000	10	...........	1583.15
	643	6.43	4.56122E-002	-1.23007E-003	0.00000E+000	-3.70030E-001	0.00000E+000	10	...........	1583.15
	644	6.44	4.41788E-002	-1.23003E-003	0.00000E+000	-3.70030E-001	0.00000E+000	10	...........	1583.15
	645	6.45	4.27515E-002	-1.23008E-003	0.00000E+000	-3.70030E-001	0.00000E+000	10	...........	1583.15
	646	6.46	4.13269E-002	-1.23007E-003	0.00000E+000	-3.70030E-001	0.00000E+000	10	...........	1583.15
	647	6.47	3.99041E-002	-1.23010E-003	0.00000E+000	-3.70030E-001	0.00000E+000	10	...........	1583.15
	648	6.48	3.84923E-002	-1.23008E-003	0.00000E+000	-3.70030E-001	0.00000E+000	10	...........	1583.15
	649	6.49	3.70809E-002	-1.23006E-003	0.00000E+000	-3.70030E-001	0.00000E+000	10	...........	1583.15
	650	6.5	3.56745E-002	-1.23007E-003	0.00000E+000	-3.70030E-001	0.00000E+000	10	...........	1583.15
	651	6.51	3.42684E-002	-1.23009E-003	0.00000E+000	-3.70030E-001	0.00000E+000	10	...........	1583.15
	652	6.52	3.28731E-002	-1.23007E-003	0.00000E+000	-3.70030E-001	0.00000E+000	10	...........	1583.15
	653	6.53	3.14821E-002	-1.23005E-003	0.00000E+000	-3.70030E-001	0.00000E+000	10	...........	1583.15
	654	6.54	3.00982E-002	-1.23008E-003	0.00000E+000	-3.70030E-001	0.00000E+000	10	...........	1583.15
	655	6.55	2.87125E-002	-1.23009E-003	0.00000E+000	-3.70030E-001	0.00000E+000	10	...........	1583.15
	656	6.56	2.73334E-002	-1.23006E-003	0.00000E+000	-3.70030E-001	0.00000E+000	10	...........	1583.15
	657	6.57	2.59587E-002	-1.23014E-003	0.00000E+000	-3.70030E-001	0.00000E+000	10	...........	1583.15
	658	6.58	2.45887E-002	-1.23013E-003	0.00000E+000	-3.70030E-001	0.00000E+000	10	...........	1583.15
	659	6.59	2.32265E-002	-1.23009E-003	0.00000E+000	-3.70030E-001	0.00000E+000	10	...........	1583.15
	660	6.6	2.18711E-002	-1.23011E-003	0.00000E+000	-3.70030E-001	0.00000E+000	10	...........	1583.15
	661	6.61	2.05152E-002	-1.23012E-003	0.00000E+000	-3.70030E-001	0.00000E+000	10	...........	1583.15
	662	6.62	1.91667E-002	-1.23014E-003	0.00000E+000	-3.70030E-001	0.00000E+000	10	...........	1583.15
	663	6.63	1.78176E-002	-1.23017E-003	0.00000E+000	-3.70030E-001	0.00000E+000	10	...........	1583.15
	664	6.64	1.64785E-002	-1.23012E-003	0.00000E+000	-3.70030E-001	0.00000E+000	10	...........	1583.15
	665	6.65	1.51369E-002	-1.23015E-003	0.00000E+000	-3.70030E-001	0.00000E+000	10	...........	1583.15
	666	6.66	1.38063E-002	-1.23012E-003	0.00000E+000	-3.70030E-001	0.00000E+000	10	...........	1583.15
	667	6.67	1.24728E-002	-1.23013E-003	0.00000E+000	-3.70030E-001	0.00000E+000	10	...........	1583.15
	668	6.68	1.11499E-002	-1.23013E-003	0.00000E+000	-3.70030E-001	0.00000E+000	10	...........	1583.15
	669	6.69	9.82702E-003	-1.23013E-003	0.00000E+000	-3.70030E-001	0.00000E+000	10	...........	1583.15
	670	6.7	8.51071E-003	-1.23011E-003	0.00000E+000	-3.70030E-001	0.00000E+000	10	...........	1583.15
	671	6.71	7.19823E-003	-1.23012E-003	0.00000E+000	-3.70030E-001	0.00000E+000	10	...........	1583.15
	672	6.72	5.89091E-003	-1.23011E-003	0.00000E+000	-3.70030E-001	0.00000E+000	10	...........	1583.15
	673	6.73	4.58425E-003	-1.23010E-003	0.00000E+000	-3.70030E-001	0.00000E+000	10	...........	1583.15
	674	6.74	3.28637E-003	-1.23016E-003	0.00000E+000	-3.70030E-001	0.00000E+000	10	...........	1583.15
	675	6.75	1.99303E-003	-1.23013E-003	0.00000E+000	-3.70030E-001	0.00000E+000	10	...........	1583.15
	676	6.76	7.02030E-004	-1.23015E-003	0.00000E+000	-3.70030E-001	0.00000E+000	10	...........	1583.15
	677	6.77	-5.86035E-004	-1.23014E-003	0.00000E+000	-3.70030E-001	0.00000E+000	10	...........	1583.15
