EXPLAIN
TAG	CHRONOP
TITLE	LABEL	Chronopotentiometry Scan	Test Identifier
DATE	LABEL	22/1/2025	Date
TIME	LABEL	23:23:30	Time
NOTES	NOTES	1	Notes...
	
PSTAT	PSTAT	IFC1010-42004	Potentiostat
IPRESTEP	QUANT	0.00000E+000	Pre-step Current(A)
TPRESTEP	QUANT	0.00000E+000	Pre-step Delay Time (s)
ISTEP1	QUANT	1.23000E-003	Step 1 Current (A)
TSTEP1	QUANT	5.00000E+003	Step 1 Time (s)
ISTEP2	QUANT	-1.23000E-003	Step 2 Current (A)
TSTEP2	QUANT	5.00000E+003	Step 2 Time (s)
SAMPLETIME	QUANT	1.00000E-002	Sample Period (s)
DECIMATE	TOGGLE	F	Decimate
VLIMITLOWER	QUANT	0.00000E+000	Lower Limit V (V)
VLIMITUPPER	QUANT	8.00000E-001	Upper Limit V (V)
EQDELAY	QUANT	1.00000E+000	Equil. Time (s)
SAMPLINGMODE	SELECTOR	1	Sampling Mode
AREA	QUANT	2.00000E+000	Sample Area (cm^2)
ELECTRODETYPE	SELECTOR	0	Electrode Type
STRIPPING	TOGGLE	F	Used for Stripping
SEQUENCER	TOGGLE	TRUE	Run as Sequence
PSTATMODEL	IQUANT	64	Pstat Model
PSTATSECTION	LABEL	IFC1010-42004	Pstat Section
PSTATSERIALNO	LABEL	42004	Pstat Serial Number
CTRLMODE	IQUANT	0	Control Mode
ELECTROMETER	IQUANT	0	RE=0 or CS=1
IESTAB	IQUANT	0	I/E Stability
CASPEED	IQUANT	4	Control Amp Speed
CONVENTION	IQUANT	1	Current Convention
ICHRANGE	IQUANT	2	Ich Range
ICHRANGEMODE	TOGGLE	T	Ich Auto Range
ICHOFFSETENABLE	TOGGLE	F	Ich Offset Enable
ICHOFFSET	QUANT	0	Ich Offset (V)
ICHFILTER	IQUANT	3	Ich Filter
VCHRANGE	IQUANT	3	Vch Range
VCHRANGEMODE	TOGGLE	T	Vch Auto Range
VCHOFFSETENABLE	TOGGLE	F	Vch Offset Enable
VCHOFFSET	QUANT	0	Vch Offset (V)
VCHFILTER	IQUANT	3	Vch Filter
IERANGELOWERLIMIT	IQUANT	4	I/E Range Lower Limit
IERANGEMODE	TOGGLE	F	I/E AutoRange
IERANGE	IQUANT	11	I/E Range
ACHSELECT	IQUANT	0	Ach Select
ACHRANGE	IQUANT	2	Ach Range
ACHOFFSETENABLE	TOGGLE	F	Ach Offset Enable
ACHOFFSET	QUANT	0	Ach Offset (V)
ACHFILTER	IQUANT	1	Ach Filter
SENSECABLEID	IQUANT	14	Sense Cable ID
PWRCABLEID	IQUANT	14	Power Cable ID
DCCALDATE	LABEL	1/22/2025	DC Calibration Date
ACCALDATE	LABEL	11/15/2024	AC Calibration Date
FRAMEWORKVERSION	LABEL	7.10.4	Framework Version
INSTRUMENTVERSION	LABEL	4.91	Instrument Version
COMMVERSION	LABEL	3.10	Communications Version
CPUPLDVERSION	LABEL	2.54	CPU PLD Version
CTRLPLDVERSION	LABEL	0.00	CTRL PLD Version
PSTATPLDVERSION	LABEL	0.00	PSTAT PLD Version
CURVE	TABLE	659
	Pt	T	Vf	Im	Vu	Sig	Ach	IERange	Over	Temp
	#	s	V vs. Ref.	A	V	V	V	#	bits	deg C
	0	0	2.29830E-001	-2.78070E-008	0.00000E+000	0.00000E+000	0.00000E+000	10	...........	1583.15
	1	0.01	2.42794E-001	1.22964E-003	0.00000E+000	3.70030E-001	0.00000E+000	10	...........	1583.15
	2	0.02	2.45392E-001	1.22969E-003	0.00000E+000	3.70030E-001	0.00000E+000	10	...........	1583.15
	3	0.03	2.47675E-001	1.22969E-003	0.00000E+000	3.70030E-001	0.00000E+000	10	...........	1583.15
	4	0.04	2.49871E-001	1.22969E-003	0.00000E+000	3.70030E-001	0.00000E+000	10	...........	1583.15
	5	0.05	2.52021E-001	1.22971E-003	0.00000E+000	3.70030E-001	0.00000E+000	10	...........	1583.15
	6	0.06	2.54149E-001	1.22971E-003	0.00000E+000	3.70030E-001	0.00000E+000	10	...........	1583.15
	7	0.07	2.56261E-001	1.22974E-003	0.00000E+000	3.70030E-001	0.00000E+000	10	...........	1583.15
	8	0.08	2.58360E-001	1.22972E-003	0.00000E+000	3.70030E-001	0.00000E+000	10	...........	1583.15
	9	0.09	2.60455E-001	1.22971E-003	0.00000E+000	3.70030E-001	0.00000E+000	10	...........	1583.15
	10	0.1	2.62542E-001	1.22974E-003	0.00000E+000	3.70030E-001	0.00000E+000	10	...........	1583.15
	11	0.11	2.64626E-001	1.22968E-003	0.00000E+000	3.70030E-001	0.00000E+000	10	...........	1583.15
	12	0.12	2.66708E-001	1.22973E-003	0.00000E+000	3.70030E-001	0.00000E+000	10	...........	1583.15
	13	0.13	2.68767E-001	1.22970E-003	0.00000E+000	3.70030E-001	0.00000E+000	10	...........	1583.15
	14	0.14	2.70852E-001	1.22973E-003	0.00000E+000	3.70030E-001	0.00000E+000	10	...........	1583.15
	15	0.15	2.72936E-001	1.22973E-003	0.00000E+000	3.70030E-001	0.00000E+000	10	...........	1583.15
	16	0.16	2.75004E-001	1.22974E-003	0.00000E+000	3.70030E-001	0.00000E+000	10	...........	1583.15
	17	0.17	2.77067E-001	1.22972E-003	0.00000E+000	3.70030E-001	0.00000E+000	10	...........	1583.15
	18	0.18	2.79156E-001	1.22974E-003	0.00000E+000	3.70030E-001	0.00000E+000	10	...........	1583.15
	19	0.19	2.81224E-001	1.22973E-003	0.00000E+000	3.70030E-001	0.00000E+000	10	...........	1583.15
	20	0.2	2.83321E-001	1.22971E-003	0.00000E+000	3.70030E-001	0.00000E+000	10	...........	1583.15
	21	0.21	2.85401E-001	1.22977E-003	0.00000E+000	3.70030E-001	0.00000E+000	10	...........	1583.15
	22	0.22	2.87463E-001	1.22976E-003	0.00000E+000	3.70030E-001	0.00000E+000	10	...........	1583.15
	23	0.23	2.89555E-001	1.22980E-003	0.00000E+000	3.70030E-001	0.00000E+000	10	...........	1583.15
	24	0.24	2.91612E-001	1.22973E-003	0.00000E+000	3.70030E-001	0.00000E+000	10	...........	1583.15
	25	0.25	2.93673E-001	1.22973E-003	0.00000E+000	3.70030E-001	0.00000E+000	10	...........	1583.15
	26	0.26	2.95767E-001	1.22972E-003	0.00000E+000	3.70030E-001	0.00000E+000	10	...........	1583.15
	27	0.27	2.97850E-001	1.22970E-003	0.00000E+000	3.70030E-001	0.00000E+000	10	...........	1583.15
	28	0.28	2.99916E-001	1.22977E-003	0.00000E+000	3.70030E-001	0.00000E+000	10	...........	1583.15
	29	0.29	3.01993E-001	1.22973E-003	0.00000E+000	3.70030E-001	0.00000E+000	10	...........	1583.15
	30	0.3	3.04049E-001	1.22971E-003	0.00000E+000	3.70030E-001	0.00000E+000	10	...........	1583.15
	31	0.31	3.06138E-001	1.22976E-003	0.00000E+000	3.70030E-001	0.00000E+000	10	...........	1583.15
	32	0.32	3.08265E-001	1.22978E-003	0.00000E+000	3.70030E-001	0.00000E+000	10	...........	1583.15
	33	0.33	3.10339E-001	1.22984E-003	0.00000E+000	3.70030E-001	0.00000E+000	10	...........	1583.15
	34	0.34	3.12410E-001	1.22975E-003	0.00000E+000	3.70030E-001	0.00000E+000	10	...........	1583.15
	35	0.35	3.14466E-001	1.22975E-003	0.00000E+000	3.70030E-001	0.00000E+000	10	...........	1583.15
	36	0.36	3.16542E-001	1.22971E-003	0.00000E+000	3.70030E-001	0.00000E+000	10	...........	1583.15
	37	0.37	3.18609E-001	1.22974E-003	0.00000E+000	3.70030E-001	0.00000E+000	10	...........	1583.15
	38	0.38	3.20719E-001	1.22973E-003	0.00000E+000	3.70030E-001	0.00000E+000	10	...........	1583.15
	39	0.39	3.22783E-001	1.22973E-003	0.00000E+000	3.70030E-001	0.00000E+000	10	...........	1583.15
	40	0.4	3.24857E-001	1.22975E-003	0.00000E+000	3.70030E-001	0.00000E+000	10	...........	1583.15
	41	0.41	3.26955E-001	1.22978E-003	0.00000E+000	3.70030E-001	0.00000E+000	10	...........	1583.15
	42	0.42	3.29043E-001	1.22978E-003	0.00000E+000	3.70030E-001	0.00000E+000	10	...........	1583.15
	43	0.43	3.31105E-001	1.22975E-003	0.00000E+000	3.70030E-001	0.00000E+000	10	...........	1583.15
	44	0.44	3.33223E-001	1.22977E-003	0.00000E+000	3.70030E-001	0.00000E+000	10	...........	1583.15
	45	0.45	3.35308E-001	1.22974E-003	0.00000E+000	3.70030E-001	0.00000E+000	10	...........	1583.53
	46	0.46	3.37393E-001	1.22977E-003	0.00000E+000	3.70030E-001	0.00000E+000	10	...........	1583.53
	47	0.47	3.39485E-001	1.22977E-003	0.00000E+000	3.70030E-001	0.00000E+000	10	...........	1583.53
	48	0.48	3.41532E-001	1.22974E-003	0.00000E+000	3.70030E-001	0.00000E+000	10	...........	1583.53
	49	0.49	3.43639E-001	1.22973E-003	0.00000E+000	3.70030E-001	0.00000E+000	10	...........	1583.53
	50	0.5	3.45714E-001	1.22973E-003	0.00000E+000	3.70030E-001	0.00000E+000	10	...........	1583.53
	51	0.51	3.47812E-001	1.22979E-003	0.00000E+000	3.70030E-001	0.00000E+000	10	...........	1583.53
	52	0.52	3.49877E-001	1.22974E-003	0.00000E+000	3.70030E-001	0.00000E+000	10	...........	1583.53
	53	0.53	3.51976E-001	1.22975E-003	0.00000E+000	3.70030E-001	0.00000E+000	10	...........	1583.53
	54	0.54	3.54063E-001	1.22971E-003	0.00000E+000	3.70030E-001	0.00000E+000	10	...........	1583.53
	55	0.55	3.56139E-001	1.22976E-003	0.00000E+000	3.70030E-001	0.00000E+000	10	...........	1583.53
	56	0.56	3.58215E-001	1.22969E-003	0.00000E+000	3.70030E-001	0.00000E+000	10	...........	1583.53
	57	0.57	3.60345E-001	1.22976E-003	0.00000E+000	3.70030E-001	0.00000E+000	10	...........	1583.53
	58	0.58	3.62431E-001	1.22975E-003	0.00000E+000	3.70030E-001	0.00000E+000	10	...........	1583.53
	59	0.59	3.64531E-001	1.22971E-003	0.00000E+000	3.70030E-001	0.00000E+000	10	...........	1583.53
	60	0.6	3.66615E-001	1.22975E-003	0.00000E+000	3.70030E-001	0.00000E+000	10	...........	1583.53
	61	0.61	3.68709E-001	1.22976E-003	0.00000E+000	3.70030E-001	0.00000E+000	10	...........	1583.53
	62	0.62	3.70794E-001	1.22976E-003	0.00000E+000	3.70030E-001	0.00000E+000	10	...........	1583.53
	63	0.63	3.72907E-001	1.22978E-003	0.00000E+000	3.70030E-001	0.00000E+000	10	...........	1583.53
	64	0.64	3.74971E-001	1.22973E-003	0.00000E+000	3.70030E-001	0.00000E+000	10	...........	1583.53
	65	0.65	3.77073E-001	1.22973E-003	0.00000E+000	3.70030E-001	0.00000E+000	10	...........	1583.53
	66	0.66	3.79197E-001	1.22980E-003	0.00000E+000	3.70030E-001	0.00000E+000	10	...........	1583.53
	67	0.67	3.81263E-001	1.22974E-003	0.00000E+000	3.70030E-001	0.00000E+000	10	...........	1583.53
	68	0.68	3.83352E-001	1.22973E-003	0.00000E+000	3.70030E-001	0.00000E+000	10	...........	1583.53
	69	0.69	3.85466E-001	1.22968E-003	0.00000E+000	3.70030E-001	0.00000E+000	10	...........	1583.53
	70	0.7	3.87554E-001	1.22971E-003	0.00000E+000	3.70030E-001	0.00000E+000	10	...........	1583.53
	71	0.71	3.89647E-001	1.22972E-003	0.00000E+000	3.70030E-001	0.00000E+000	10	...........	1583.53
	72	0.72	3.91741E-001	1.22971E-003	0.00000E+000	3.70030E-001	0.00000E+000	10	...........	1583.53
	73	0.73	3.93857E-001	1.22975E-003	0.00000E+000	3.70030E-001	0.00000E+000	10	...........	1583.53
	74	0.74	3.95930E-001	1.22972E-003	0.00000E+000	3.70030E-001	0.00000E+000	10	...........	1583.53
	75	0.75	3.98053E-001	1.22981E-003	0.00000E+000	3.70030E-001	0.00000E+000	10	...........	1583.53
	76	0.76	4.00163E-001	1.22976E-003	0.00000E+000	3.70030E-001	0.00000E+000	10	...........	1583.53
	77	0.77	4.02259E-001	1.22974E-003	0.00000E+000	3.70030E-001	0.00000E+000	10	...........	1583.53
	78	0.78	4.04344E-001	1.22974E-003	0.00000E+000	3.70030E-001	0.00000E+000	10	...........	1583.53
	79	0.79	4.06435E-001	1.22978E-003	0.00000E+000	3.70030E-001	0.00000E+000	10	...........	1583.53
	80	0.8	4.08544E-001	1.22969E-003	0.00000E+000	3.70030E-001	0.00000E+000	10	...........	1583.53
	81	0.81	4.10670E-001	1.22970E-003	0.00000E+000	3.70030E-001	0.00000E+000	10	...........	1583.53
	82	0.82	4.12757E-001	1.22965E-003	0.00000E+000	3.70030E-001	0.00000E+000	10	...........	1583.53
	83	0.83	4.14836E-001	1.22964E-003	0.00000E+000	3.70030E-001	0.00000E+000	10	...........	1583.53
	84	0.84	4.16937E-001	1.22962E-003	0.00000E+000	3.70030E-001	0.00000E+000	10	...........	1583.53
	85	0.85	4.19042E-001	1.22970E-003	0.00000E+000	3.70030E-001	0.00000E+000	10	...........	1583.53
	86	0.86	4.21151E-001	1.22968E-003	0.00000E+000	3.70030E-001	0.00000E+000	10	...........	1583.53
	87	0.87	4.23295E-001	1.22977E-003	0.00000E+000	3.70030E-001	0.00000E+000	10	...........	1583.53
	88	0.88	4.25392E-001	1.22975E-003	0.00000E+000	3.70030E-001	0.00000E+000	10	...........	1583.53
	89	0.89	4.27487E-001	1.22970E-003	0.00000E+000	3.70030E-001	0.00000E+000	10	...........	1583.53
	90	0.9	4.29593E-001	1.22965E-003	0.00000E+000	3.70030E-001	0.00000E+000	10	...........	1583.53
	91	0.91	4.31675E-001	1.22968E-003	0.00000E+000	3.70030E-001	0.00000E+000	10	...........	1583.53
	92	0.92	4.33767E-001	1.22966E-003	0.00000E+000	3.70030E-001	0.00000E+000	10	...........	1583.53
	93	0.93	4.35907E-001	1.22970E-003	0.00000E+000	3.70030E-001	0.00000E+000	10	...........	1583.53
	94	0.94	4.38011E-001	1.22971E-003	0.00000E+000	3.70030E-001	0.00000E+000	10	...........	1583.53
	95	0.95	4.40123E-001	1.22968E-003	0.00000E+000	3.70030E-001	0.00000E+000	10	...........	1583.53
	96	0.96	4.42232E-001	1.22969E-003	0.00000E+000	3.70030E-001	0.00000E+000	10	...........	1583.53
	97	0.97	4.44327E-001	1.22971E-003	0.00000E+000	3.70030E-001	0.00000E+000	10	...........	1583.53
	98	0.98	4.46433E-001	1.22967E-003	0.00000E+000	3.70030E-001	0.00000E+000	10	...........	1583.53
	99	0.99	4.48545E-001	1.22971E-003	0.00000E+000	3.70030E-001	0.00000E+000	10	...........	1583.53
	100	1	4.50649E-001	1.22976E-003	0.00000E+000	3.70030E-001	0.00000E+000	10	...........	1583.53
	101	1.01	4.52760E-001	1.22971E-003	0.00000E+000	3.70030E-001	0.00000E+000	10	...........	1583.53
	102	1.02	4.54870E-001	1.22971E-003	0.00000E+000	3.70030E-001	0.00000E+000	10	...........	1583.53
	103	1.03	4.56983E-001	1.22972E-003	0.00000E+000	3.70030E-001	0.00000E+000	10	...........	1583.53
	104	1.04	4.59081E-001	1.22981E-003	0.00000E+000	3.70030E-001	0.00000E+000	10	...........	1583.53
	105	1.05	4.61237E-001	1.22977E-003	0.00000E+000	3.70030E-001	0.00000E+000	10	...........	1583.53
	106	1.06	4.63343E-001	1.22981E-003	0.00000E+000	3.70030E-001	0.00000E+000	10	...........	1583.53
	107	1.07	4.65446E-001	1.22977E-003	0.00000E+000	3.70030E-001	0.00000E+000	10	...........	1583.53
	108	1.08	4.67544E-001	1.22971E-003	0.00000E+000	3.70030E-001	0.00000E+000	10	...........	1583.53
	109	1.09	4.69651E-001	1.22973E-003	0.00000E+000	3.70030E-001	0.00000E+000	10	...........	1583.53
	110	1.1	4.71762E-001	1.22975E-003	0.00000E+000	3.70030E-001	0.00000E+000	10	...........	1583.53
	111	1.11	4.73892E-001	1.22976E-003	0.00000E+000	3.70030E-001	0.00000E+000	10	...........	1583.53
	112	1.12	4.76016E-001	1.22975E-003	0.00000E+000	3.70030E-001	0.00000E+000	10	...........	1583.53
	113	1.13	4.78114E-001	1.22973E-003	0.00000E+000	3.70030E-001	0.00000E+000	10	...........	1583.53
	114	1.14	4.80248E-001	1.22977E-003	0.00000E+000	3.70030E-001	0.00000E+000	10	...........	1583.53
	115	1.15	4.82358E-001	1.22975E-003	0.00000E+000	3.70030E-001	0.00000E+000	10	...........	1583.53
	116	1.16	4.84464E-001	1.22975E-003	0.00000E+000	3.70030E-001	0.00000E+000	10	...........	1583.53
	117	1.17	4.86600E-001	1.22981E-003	0.00000E+000	3.70030E-001	0.00000E+000	10	...........	1583.53
	118	1.18	4.88724E-001	1.22978E-003	0.00000E+000	3.70030E-001	0.00000E+000	10	...........	1583.53
	119	1.19	4.90815E-001	1.22968E-003	0.00000E+000	3.70030E-001	0.00000E+000	10	...........	1583.53
	120	1.2	4.92911E-001	1.22965E-003	0.00000E+000	3.70030E-001	0.00000E+000	10	...........	1583.53
	121	1.21	4.95005E-001	1.22968E-003	0.00000E+000	3.70030E-001	0.00000E+000	10	...........	1583.53
	122	1.22	4.97155E-001	1.22973E-003	0.00000E+000	3.70030E-001	0.00000E+000	10	...........	1583.53
	123	1.23	4.99269E-001	1.22974E-003	0.00000E+000	3.70030E-001	0.00000E+000	10	...........	1583.53
	124	1.24	5.01414E-001	1.22979E-003	0.00000E+000	3.70030E-001	0.00000E+000	10	...........	1583.53
	125	1.25	5.03522E-001	1.22976E-003	0.00000E+000	3.70030E-001	0.00000E+000	10	...........	1583.53
	126	1.26	5.05613E-001	1.22971E-003	0.00000E+000	3.70030E-001	0.00000E+000	10	...........	1583.53
	127	1.27	5.07739E-001	1.22967E-003	0.00000E+000	3.70030E-001	0.00000E+000	10	...........	1583.53
	128	1.28	5.09860E-001	1.22973E-003	0.00000E+000	3.70030E-001	0.00000E+000	10	...........	1583.53
	129	1.29	5.11981E-001	1.22973E-003	0.00000E+000	3.70030E-001	0.00000E+000	10	...........	1583.53
	130	1.3	5.14132E-001	1.22977E-003	0.00000E+000	3.70030E-001	0.00000E+000	10	...........	1583.53
	131	1.31	5.16252E-001	1.22979E-003	0.00000E+000	3.70030E-001	0.00000E+000	10	...........	1583.53
	132	1.32	5.18356E-001	1.22971E-003	0.00000E+000	3.70030E-001	0.00000E+000	10	...........	1583.53
	133	1.33	5.20459E-001	1.22966E-003	0.00000E+000	3.70030E-001	0.00000E+000	10	...........	1583.53
	134	1.34	5.22567E-001	1.22968E-003	0.00000E+000	3.70030E-001	0.00000E+000	10	...........	1583.53
	135	1.35	5.24675E-001	1.22968E-003	0.00000E+000	3.70030E-001	0.00000E+000	10	...........	1583.53
	136	1.36	5.26814E-001	1.22967E-003	0.00000E+000	3.70030E-001	0.00000E+000	10	...........	1583.53
	137	1.37	5.28942E-001	1.22971E-003	0.00000E+000	3.70030E-001	0.00000E+000	10	...........	1583.53
	138	1.38	5.31021E-001	1.22969E-003	0.00000E+000	3.70030E-001	0.00000E+000	10	...........	1583.53
	139	1.39	5.33162E-001	1.22968E-003	0.00000E+000	3.70030E-001	0.00000E+000	10	...........	1583.53
	140	1.4	5.35279E-001	1.22975E-003	0.00000E+000	3.70030E-001	0.00000E+000	10	...........	1583.53
	141	1.41	5.37395E-001	1.22973E-003	0.00000E+000	3.70030E-001	0.00000E+000	10	...........	1583.53
	142	1.42	5.39536E-001	1.22973E-003	0.00000E+000	3.70030E-001	0.00000E+000	10	...........	1583.53
	143	1.43	5.41646E-001	1.22976E-003	0.00000E+000	3.70030E-001	0.00000E+000	10	...........	1583.53
	144	1.44	5.43756E-001	1.22973E-003	0.00000E+000	3.70030E-001	0.00000E+000	10	...........	1583.53
	145	1.45	5.45885E-001	1.22970E-003	0.00000E+000	3.70030E-001	0.00000E+000	10	...........	1583.15
	146	1.46	5.47988E-001	1.22972E-003	0.00000E+000	3.70030E-001	0.00000E+000	10	...........	1583.15
	147	1.47	5.50092E-001	1.22971E-003	0.00000E+000	3.70030E-001	0.00000E+000	10	...........	1583.15
	148	1.48	5.52235E-001	1.22976E-003	0.00000E+000	3.70030E-001	0.00000E+000	10	...........	1583.15
	149	1.49	5.54349E-001	1.22974E-003	0.00000E+000	3.70030E-001	0.00000E+000	10	...........	1583.15
	150	1.5	5.56462E-001	1.22975E-003	0.00000E+000	3.70030E-001	0.00000E+000	10	...........	1583.15
	151	1.51	5.58560E-001	1.22978E-003	0.00000E+000	3.70030E-001	0.00000E+000	10	...........	1583.15
	152	1.52	5.60681E-001	1.22971E-003	0.00000E+000	3.70030E-001	0.00000E+000	10	...........	1583.15
	153	1.53	5.62798E-001	1.22974E-003	0.00000E+000	3.70030E-001	0.00000E+000	10	...........	1583.15
	154	1.54	5.64938E-001	1.22971E-003	0.00000E+000	3.70030E-001	0.00000E+000	10	...........	1583.15
	155	1.55	5.67048E-001	1.22974E-003	0.00000E+000	3.70030E-001	0.00000E+000	10	...........	1583.15
	156	1.56	5.69139E-001	1.22973E-003	0.00000E+000	3.70030E-001	0.00000E+000	10	...........	1583.15
	157	1.57	5.71254E-001	1.22969E-003	0.00000E+000	3.70030E-001	0.00000E+000	10	...........	1583.15
	158	1.58	5.73370E-001	1.22968E-003	0.00000E+000	3.70030E-001	0.00000E+000	10	...........	1583.15
	159	1.59	5.75470E-001	1.22968E-003	0.00000E+000	3.70030E-001	0.00000E+000	10	...........	1583.15
	160	1.6	5.77591E-001	1.22964E-003	0.00000E+000	3.70030E-001	0.00000E+000	10	...........	1583.15
	161	1.61	5.79694E-001	1.22963E-003	0.00000E+000	3.70030E-001	0.00000E+000	10	...........	1583.15
	162	1.62	5.81783E-001	1.22968E-003	0.00000E+000	3.70030E-001	0.00000E+000	10	...........	1583.15
	163	1.63	5.83906E-001	1.22972E-003	0.00000E+000	3.70030E-001	0.00000E+000	10	...........	1583.15
	164	1.64	5.86018E-001	1.22966E-003	0.00000E+000	3.70030E-001	0.00000E+000	10	...........	1583.15
	165	1.65	5.88102E-001	1.22970E-003	0.00000E+000	3.70030E-001	0.00000E+000	10	...........	1583.15
	166	1.66	5.90246E-001	1.22973E-003	0.00000E+000	3.70030E-001	0.00000E+000	10	...........	1583.15
	167	1.67	5.92339E-001	1.22971E-003	0.00000E+000	3.70030E-001	0.00000E+000	10	...........	1583.15
	168	1.68	5.94437E-001	1.22972E-003	0.00000E+000	3.70030E-001	0.00000E+000	10	...........	1583.15
	169	1.69	5.96552E-001	1.22967E-003	0.00000E+000	3.70030E-001	0.00000E+000	10	...........	1583.15
	170	1.7	5.98632E-001	1.22969E-003	0.00000E+000	3.70030E-001	0.00000E+000	10	...........	1583.15
	171	1.71	6.00738E-001	1.22970E-003	0.00000E+000	3.70030E-001	0.00000E+000	10	...........	1583.15
	172	1.72	6.02859E-001	1.22969E-003	0.00000E+000	3.70030E-001	0.00000E+000	10	...........	1583.15
	173	1.73	6.04943E-001	1.22972E-003	0.00000E+000	3.70030E-001	0.00000E+000	10	...........	1583.15
	174	1.74	6.07045E-001	1.22973E-003	0.00000E+000	3.70030E-001	0.00000E+000	10	...........	1583.15
	175	1.75	6.09159E-001	1.22974E-003	0.00000E+000	3.70030E-001	0.00000E+000	10	...........	1583.15
	176	1.76	6.11226E-001	1.22974E-003	0.00000E+000	3.70030E-001	0.00000E+000	10	...........	1583.15
	177	1.77	6.13313E-001	1.22970E-003	0.00000E+000	3.70030E-001	0.00000E+000	10	...........	1583.15
	178	1.78	6.15442E-001	1.22969E-003	0.00000E+000	3.70030E-001	0.00000E+000	10	...........	1583.15
	179	1.79	6.17532E-001	1.22967E-003	0.00000E+000	3.70030E-001	0.00000E+000	10	...........	1583.15
	180	1.8	6.19622E-001	1.22974E-003	0.00000E+000	3.70030E-001	0.00000E+000	10	...........	1583.15
	181	1.81	6.21726E-001	1.22979E-003	0.00000E+000	3.70030E-001	0.00000E+000	10	...........	1583.15
	182	1.82	6.23792E-001	1.22976E-003	0.00000E+000	3.70030E-001	0.00000E+000	10	...........	1583.15
	183	1.83	6.25879E-001	1.22979E-003	0.00000E+000	3.70030E-001	0.00000E+000	10	...........	1583.15
	184	1.84	6.27988E-001	1.22972E-003	0.00000E+000	3.70030E-001	0.00000E+000	10	...........	1583.15
	185	1.85	6.30050E-001	1.22974E-003	0.00000E+000	3.70030E-001	0.00000E+000	10	...........	1583.15
	186	1.86	6.32134E-001	1.22975E-003	0.00000E+000	3.70030E-001	0.00000E+000	10	...........	1583.15
	187	1.87	6.34197E-001	1.22969E-003	0.00000E+000	3.70030E-001	0.00000E+000	10	...........	1583.15
	188	1.88	6.36248E-001	1.22965E-003	0.00000E+000	3.70030E-001	0.00000E+000	10	...........	1583.15
	189	1.89	6.38333E-001	1.22970E-003	0.00000E+000	3.70030E-001	0.00000E+000	10	...........	1583.15
	190	1.9	6.40426E-001	1.22965E-003	0.00000E+000	3.70030E-001	0.00000E+000	10	...........	1583.15
	191	1.91	6.42498E-001	1.22969E-003	0.00000E+000	3.70030E-001	0.00000E+000	10	...........	1583.15
	192	1.92	6.44541E-001	1.22971E-003	0.00000E+000	3.70030E-001	0.00000E+000	10	...........	1583.15
	193	1.93	6.46600E-001	1.22971E-003	0.00000E+000	3.70030E-001	0.00000E+000	10	...........	1583.15
	194	1.94	6.48664E-001	1.22972E-003	0.00000E+000	3.70030E-001	0.00000E+000	10	...........	1583.15
	195	1.95	6.50722E-001	1.22971E-003	0.00000E+000	3.70030E-001	0.00000E+000	10	...........	1583.15
	196	1.96	6.52777E-001	1.22969E-003	0.00000E+000	3.70030E-001	0.00000E+000	10	...........	1583.15
	197	1.97	6.54847E-001	1.22976E-003	0.00000E+000	3.70030E-001	0.00000E+000	10	...........	1583.15
	198	1.98	6.56902E-001	1.22977E-003	0.00000E+000	3.70030E-001	0.00000E+000	10	...........	1583.15
	199	1.99	6.58957E-001	1.22976E-003	0.00000E+000	3.70030E-001	0.00000E+000	10	...........	1583.15
	200	2	6.60997E-001	1.22979E-003	0.00000E+000	3.70030E-001	0.00000E+000	10	...........	1583.15
	201	2.01	6.63028E-001	1.22971E-003	0.00000E+000	3.70030E-001	0.00000E+000	10	...........	1583.15
	202	2.02	6.65054E-001	1.22974E-003	0.00000E+000	3.70030E-001	0.00000E+000	10	...........	1583.15
	203	2.03	6.67114E-001	1.22970E-003	0.00000E+000	3.70030E-001	0.00000E+000	10	...........	1583.15
	204	2.04	6.69143E-001	1.22969E-003	0.00000E+000	3.70030E-001	0.00000E+000	10	...........	1583.15
	205	2.05	6.71178E-001	1.22971E-003	0.00000E+000	3.70030E-001	0.00000E+000	10	...........	1583.15
	206	2.06	6.73196E-001	1.22972E-003	0.00000E+000	3.70030E-001	0.00000E+000	10	...........	1583.15
	207	2.07	6.75228E-001	1.22973E-003	0.00000E+000	3.70030E-001	0.00000E+000	10	...........	1583.15
	208	2.08	6.77237E-001	1.22972E-003	0.00000E+000	3.70030E-001	0.00000E+000	10	...........	1583.15
	209	2.09	6.79281E-001	1.22974E-003	0.00000E+000	3.70030E-001	0.00000E+000	10	...........	1583.15
	210	2.1	6.81269E-001	1.22971E-003	0.00000E+000	3.70030E-001	0.00000E+000	10	...........	1583.15
	211	2.11	6.83283E-001	1.22968E-003	0.00000E+000	3.70030E-001	0.00000E+000	10	...........	1583.15
	212	2.12	6.85289E-001	1.22969E-003	0.00000E+000	3.70030E-001	0.00000E+000	10	...........	1583.15
	213	2.13	6.87275E-001	1.22967E-003	0.00000E+000	3.70030E-001	0.00000E+000	10	...........	1583.15
	214	2.14	6.89291E-001	1.22968E-003	0.00000E+000	3.70030E-001	0.00000E+000	10	...........	1583.15
	215	2.15	6.91267E-001	1.22975E-003	0.00000E+000	3.70030E-001	0.00000E+000	10	...........	1583.15
	216	2.16	6.93303E-001	1.22971E-003	0.00000E+000	3.70030E-001	0.00000E+000	10	...........	1583.15
	217	2.17	6.95285E-001	1.22970E-003	0.00000E+000	3.70030E-001	0.00000E+000	10	...........	1583.15
	218	2.18	6.97259E-001	1.22972E-003	0.00000E+000	3.70030E-001	0.00000E+000	10	...........	1583.15
	219	2.19	6.99247E-001	1.22973E-003	0.00000E+000	3.70030E-001	0.00000E+000	10	...........	1583.15
	220	2.2	7.01215E-001	1.22973E-003	0.00000E+000	3.70030E-001	0.00000E+000	10	...........	1583.15
	221	2.21	7.03180E-001	1.22975E-003	0.00000E+000	3.70030E-001	0.00000E+000	10	...........	1583.15
	222	2.22	7.05178E-001	1.22977E-003	0.00000E+000	3.70030E-001	0.00000E+000	10	...........	1583.15
	223	2.23	7.07132E-001	1.22971E-003	0.00000E+000	3.70030E-001	0.00000E+000	10	...........	1583.15
	224	2.24	7.09082E-001	1.22977E-003	0.00000E+000	3.70030E-001	0.00000E+000	10	...........	1583.15
	225	2.25	7.11035E-001	1.22975E-003	0.00000E+000	3.70030E-001	0.00000E+000	10	...........	1583.15
	226	2.26	7.12993E-001	1.22978E-003	0.00000E+000	3.70030E-001	0.00000E+000	10	...........	1583.15
	227	2.27	7.14922E-001	1.22981E-003	0.00000E+000	3.70030E-001	0.00000E+000	10	...........	1583.15
	228	2.28	7.16855E-001	1.22980E-003	0.00000E+000	3.70030E-001	0.00000E+000	10	...........	1583.15
	229	2.29	7.18848E-001	1.22980E-003	0.00000E+000	3.70030E-001	0.00000E+000	10	...........	1583.15
	230	2.3	7.20745E-001	1.22975E-003	0.00000E+000	3.70030E-001	0.00000E+000	10	...........	1583.15
	231	2.31	7.22655E-001	1.22973E-003	0.00000E+000	3.70030E-001	0.00000E+000	10	...........	1583.15
	232	2.32	7.24576E-001	1.22974E-003	0.00000E+000	3.70030E-001	0.00000E+000	10	...........	1583.15
	233	2.33	7.26474E-001	1.22974E-003	0.00000E+000	3.70030E-001	0.00000E+000	10	...........	1583.15
	234	2.34	7.28381E-001	1.22971E-003	0.00000E+000	3.70030E-001	0.00000E+000	10	...........	1583.15
	235	2.35	7.30309E-001	1.22974E-003	0.00000E+000	3.70030E-001	0.00000E+000	10	...........	1583.15
	236	2.36	7.32206E-001	1.22975E-003	0.00000E+000	3.70030E-001	0.00000E+000	10	...........	1583.15
	237	2.37	7.34088E-001	1.22969E-003	0.00000E+000	3.70030E-001	0.00000E+000	10	...........	1583.15
	238	2.38	7.35960E-001	1.22972E-003	0.00000E+000	3.70030E-001	0.00000E+000	10	...........	1583.15
	239	2.39	7.37834E-001	1.22972E-003	0.00000E+000	3.70030E-001	0.00000E+000	10	...........	1583.15
	240	2.4	7.39708E-001	1.22972E-003	0.00000E+000	3.70030E-001	0.00000E+000	10	...........	1583.15
	241	2.41	7.41578E-001	1.22973E-003	0.00000E+000	3.70030E-001	0.00000E+000	10	...........	1583.15
	242	2.42	7.43482E-001	1.22978E-003	0.00000E+000	3.70030E-001	0.00000E+000	10	...........	1583.15
	243	2.43	7.45342E-001	1.22973E-003	0.00000E+000	3.70030E-001	0.00000E+000	10	...........	1583.15
	244	2.44	7.47185E-001	1.22971E-003	0.00000E+000	3.70030E-001	0.00000E+000	10	...........	1583.15
	245	2.45	7.49004E-001	1.22969E-003	0.00000E+000	3.70030E-001	0.00000E+000	10	...........	1583.05
	246	2.46	7.50831E-001	1.22969E-003	0.00000E+000	3.70030E-001	0.00000E+000	10	...........	1583.05
	247	2.47	7.52694E-001	1.22983E-003	0.00000E+000	3.70030E-001	0.00000E+000	10	...........	1583.05
	248	2.48	7.54519E-001	1.22980E-003	0.00000E+000	3.70030E-001	0.00000E+000	10	...........	1583.05
	249	2.49	7.56349E-001	1.22980E-003	0.00000E+000	3.70030E-001	0.00000E+000	10	...........	1583.05
	250	2.5	7.58148E-001	1.22970E-003	0.00000E+000	3.70030E-001	0.00000E+000	10	...........	1583.05
	251	2.51	7.59923E-001	1.22973E-003	0.00000E+000	3.70030E-001	0.00000E+000	10	...........	1583.05
	252	2.52	7.61716E-001	1.22963E-003	0.00000E+000	3.70030E-001	0.00000E+000	10	...........	1583.05
	253	2.53	7.63512E-001	1.22969E-003	0.00000E+000	3.70030E-001	0.00000E+000	10	...........	1583.05
	254	2.54	7.65302E-001	1.22969E-003	0.00000E+000	3.70030E-001	0.00000E+000	10	...........	1583.05
	255	2.55	7.67065E-001	1.22966E-003	0.00000E+000	3.70030E-001	0.00000E+000	10	...........	1583.05
	256	2.56	7.68849E-001	1.22967E-003	0.00000E+000	3.70030E-001	0.00000E+000	10	...........	1583.05
	257	2.57	7.70630E-001	1.22971E-003	0.00000E+000	3.70030E-001	0.00000E+000	10	...........	1583.05
	258	2.58	7.72391E-001	1.22969E-003	0.00000E+000	3.70030E-001	0.00000E+000	10	...........	1583.05
	259	2.59	7.74136E-001	1.22969E-003	0.00000E+000	3.70030E-001	0.00000E+000	10	...........	1583.05
	260	2.6	7.75877E-001	1.22971E-003	0.00000E+000	3.70030E-001	0.00000E+000	10	...........	1583.05
	261	2.61	7.77597E-001	1.22972E-003	0.00000E+000	3.70030E-001	0.00000E+000	10	...........	1583.05
	262	2.62	7.79331E-001	1.22968E-003	0.00000E+000	3.70030E-001	0.00000E+000	10	...........	1583.05
	263	2.63	7.81045E-001	1.22969E-003	0.00000E+000	3.70030E-001	0.00000E+000	10	...........	1583.05
	264	2.64	7.82759E-001	1.22976E-003	0.00000E+000	3.70030E-001	0.00000E+000	10	...........	1583.05
	265	2.65	7.84467E-001	1.22971E-003	0.00000E+000	3.70030E-001	0.00000E+000	10	...........	1583.05
	266	2.66	7.86173E-001	1.22976E-003	0.00000E+000	3.70030E-001	0.00000E+000	10	...........	1583.05
	267	2.67	7.87859E-001	1.22971E-003	0.00000E+000	3.70030E-001	0.00000E+000	10	...........	1583.05
	268	2.68	7.89528E-001	1.22973E-003	0.00000E+000	3.70030E-001	0.00000E+000	10	...........	1583.05
	269	2.69	7.91194E-001	1.22977E-003	0.00000E+000	3.70030E-001	0.00000E+000	10	...........	1583.05
	270	2.7	7.92864E-001	1.22978E-003	0.00000E+000	3.70030E-001	0.00000E+000	10	...........	1583.05
	271	2.71	7.94529E-001	1.22975E-003	0.00000E+000	3.70030E-001	0.00000E+000	10	...........	1583.05
	272	2.72	7.96183E-001	1.22971E-003	0.00000E+000	3.70030E-001	0.00000E+000	10	...........	1583.05
	273	2.73	7.97828E-001	1.22972E-003	0.00000E+000	3.70030E-001	0.00000E+000	10	...........	1583.05
	274	2.74	7.99434E-001	1.22972E-003	0.00000E+000	3.70030E-001	0.00000E+000	10	...........	1583.05
	275	2.75	8.01066E-001	1.22978E-003	0.00000E+000	3.70030E-001	0.00000E+000	10	...........	1583.05
	276	2.76	8.02680E-001	1.22975E-003	0.00000E+000	3.70030E-001	0.00000E+000	10	...........	1583.05
	277	2.77	8.04281E-001	1.22976E-003	0.00000E+000	3.70030E-001	0.00000E+000	10	...........	1583.05
	278	2.78	7.79572E-001	-1.22977E-003	0.00000E+000	-3.70030E-001	0.00000E+000	10	...........	1583.05
	279	2.79	7.74912E-001	-1.22982E-003	0.00000E+000	-3.70030E-001	0.00000E+000	10	...........	1583.05
	280	2.8	7.70971E-001	-1.22985E-003	0.00000E+000	-3.70030E-001	0.00000E+000	10	...........	1583.05
	281	2.81	7.67351E-001	-1.22990E-003	0.00000E+000	-3.70030E-001	0.00000E+000	10	...........	1583.05
	282	2.82	7.63985E-001	-1.22993E-003	0.00000E+000	-3.70030E-001	0.00000E+000	10	...........	1583.05
	283	2.83	7.60742E-001	-1.22991E-003	0.00000E+000	-3.70030E-001	0.00000E+000	10	...........	1583.05
	284	2.84	7.57614E-001	-1.22995E-003	0.00000E+000	-3.70030E-001	0.00000E+000	10	...........	1583.05
	285	2.85	7.54536E-001	-1.22994E-003	0.00000E+000	-3.70030E-001	0.00000E+000	10	...........	1583.05
	286	2.86	7.51559E-001	-1.22993E-003	0.00000E+000	-3.70030E-001	0.00000E+000	10	...........	1583.05
	287	2.87	7.48601E-001	-1.22997E-003	0.00000E+000	-3.70030E-001	0.00000E+000	10	...........	1583.05
	288	2.88	7.45706E-001	-1.22997E-003	0.00000E+000	-3.70030E-001	0.00000E+000	10	...........	1583.05
	289	2.89	7.42825E-001	-1.22995E-003	0.00000E+000	-3.70030E-001	0.00000E+000	10	...........	1583.05
	290	2.9	7.39994E-001	-1.22996E-003	0.00000E+000	-3.70030E-001	0.00000E+000	10	...........	1583.05
	291	2.91	7.37221E-001	-1.22994E-003	0.00000E+000	-3.70030E-001	0.00000E+000	10	...........	1583.05
	292	2.92	7.34425E-001	-1.23001E-003	0.00000E+000	-3.70030E-001	0.00000E+000	10	...........	1583.05
	293	2.93	7.31658E-001	-1.23004E-003	0.00000E+000	-3.70030E-001	0.00000E+000	10	...........	1583.05
	294	2.94	7.28894E-001	-1.23002E-003	0.00000E+000	-3.70030E-001	0.00000E+000	10	...........	1583.05
	295	2.95	7.26183E-001	-1.23000E-003	0.00000E+000	-3.70030E-001	0.00000E+000	10	...........	1583.05
	296	2.96	7.23494E-001	-1.23000E-003	0.00000E+000	-3.70030E-001	0.00000E+000	10	...........	1583.05
	297	2.97	7.20792E-001	-1.23001E-003	0.00000E+000	-3.70030E-001	0.00000E+000	10	...........	1583.05
	298	2.98	7.18095E-001	-1.23002E-003	0.00000E+000	-3.70030E-001	0.00000E+000	10	...........	1583.05
	299	2.99	7.15393E-001	-1.23004E-003	0.00000E+000	-3.70030E-001	0.00000E+000	10	...........	1583.05
	300	3	7.12762E-001	-1.22996E-003	0.00000E+000	-3.70030E-001	0.00000E+000	10	...........	1583.05
	301	3.01	7.10111E-001	-1.23000E-003	0.00000E+000	-3.70030E-001	0.00000E+000	10	...........	1583.05
	302	3.02	7.07479E-001	-1.23005E-003	0.00000E+000	-3.70030E-001	0.00000E+000	10	...........	1583.05
	303	3.03	7.04830E-001	-1.23003E-003	0.00000E+000	-3.70030E-001	0.00000E+000	10	...........	1583.05
	304	3.04	7.02174E-001	-1.23000E-003	0.00000E+000	-3.70030E-001	0.00000E+000	10	...........	1583.05
	305	3.05	6.99562E-001	-1.23006E-003	0.00000E+000	-3.70030E-001	0.00000E+000	10	...........	1583.05
	306	3.06	6.96954E-001	-1.23001E-003	0.00000E+000	-3.70030E-001	0.00000E+000	10	...........	1583.05
	307	3.07	6.94362E-001	-1.23001E-003	0.00000E+000	-3.70030E-001	0.00000E+000	10	...........	1583.05
	308	3.08	6.91746E-001	-1.23002E-003	0.00000E+000	-3.70030E-001	0.00000E+000	10	...........	1583.05
	309	3.09	6.89136E-001	-1.23001E-003	0.00000E+000	-3.70030E-001	0.00000E+000	10	...........	1583.05
	310	3.1	6.86541E-001	-1.23002E-003	0.00000E+000	-3.70030E-001	0.00000E+000	10	...........	1583.05
	311	3.11	6.83969E-001	-1.23003E-003	0.00000E+000	-3.70030E-001	0.00000E+000	10	...........	1583.05
	312	3.12	6.81386E-001	-1.22999E-003	0.00000E+000	-3.70030E-001	0.00000E+000	10	...........	1583.05
	313	3.13	6.78815E-001	-1.23003E-003	0.00000E+000	-3.70030E-001	0.00000E+000	10	...........	1583.05
	314	3.14	6.76227E-001	-1.23000E-003	0.00000E+000	-3.70030E-001	0.00000E+000	10	...........	1583.05
	315	3.15	6.73665E-001	-1.23003E-003	0.00000E+000	-3.70030E-001	0.00000E+000	10	...........	1583.05
	316	3.16	6.71114E-001	-1.23004E-003	0.00000E+000	-3.70030E-001	0.00000E+000	10	...........	1583.05
	317	3.17	6.68547E-001	-1.23006E-003	0.00000E+000	-3.70030E-001	0.00000E+000	10	...........	1583.05
	318	3.18	6.65983E-001	-1.23001E-003	0.00000E+000	-3.70030E-001	0.00000E+000	10	...........	1583.05
	319	3.19	6.63420E-001	-1.23004E-003	0.00000E+000	-3.70030E-001	0.00000E+000	10	...........	1583.05
	320	3.2	6.60892E-001	-1.23002E-003	0.00000E+000	-3.70030E-001	0.00000E+000	10	...........	1583.05
	321	3.21	6.58337E-001	-1.23007E-003	0.00000E+000	-3.70030E-001	0.00000E+000	10	...........	1583.05
	322	3.22	6.55799E-001	-1.23006E-003	0.00000E+000	-3.70030E-001	0.00000E+000	10	...........	1583.05
	323	3.23	6.53274E-001	-1.23006E-003	0.00000E+000	-3.70030E-001	0.00000E+000	10	...........	1583.05
	324	3.24	6.50736E-001	-1.23008E-003	0.00000E+000	-3.70030E-001	0.00000E+000	10	...........	1583.05
	325	3.25	6.48206E-001	-1.23008E-003	0.00000E+000	-3.70030E-001	0.00000E+000	10	...........	1583.05
	326	3.26	6.45697E-001	-1.23007E-003	0.00000E+000	-3.70030E-001	0.00000E+000	10	...........	1583.05
	327	3.27	6.43192E-001	-1.23006E-003	0.00000E+000	-3.70030E-001	0.00000E+000	10	...........	1583.05
	328	3.28	6.40668E-001	-1.23012E-003	0.00000E+000	-3.70030E-001	0.00000E+000	10	...........	1583.05
	329	3.29	6.38126E-001	-1.23009E-003	0.00000E+000	-3.70030E-001	0.00000E+000	10	...........	1583.05
	330	3.3	6.35641E-001	-1.23009E-003	0.00000E+000	-3.70030E-001	0.00000E+000	10	...........	1583.05
	331	3.31	6.33138E-001	-1.23011E-003	0.00000E+000	-3.70030E-001	0.00000E+000	10	...........	1583.05
	332	3.32	6.30652E-001	-1.23006E-003	0.00000E+000	-3.70030E-001	0.00000E+000	10	...........	1583.05
	333	3.33	6.28172E-001	-1.23007E-003	0.00000E+000	-3.70030E-001	0.00000E+000	10	...........	1583.05
	334	3.34	6.25643E-001	-1.23007E-003	0.00000E+000	-3.70030E-001	0.00000E+000	10	...........	1583.05
	335	3.35	6.23147E-001	-1.23009E-003	0.00000E+000	-3.70030E-001	0.00000E+000	10	...........	1583.05
	336	3.36	6.20676E-001	-1.23009E-003	0.00000E+000	-3.70030E-001	0.00000E+000	10	...........	1583.05
	337	3.37	6.18194E-001	-1.23011E-003	0.00000E+000	-3.70030E-001	0.00000E+000	10	...........	1583.05
	338	3.38	6.15720E-001	-1.23009E-003	0.00000E+000	-3.70030E-001	0.00000E+000	10	...........	1583.05
	339	3.39	6.13208E-001	-1.23009E-003	0.00000E+000	-3.70030E-001	0.00000E+000	10	...........	1583.05
	340	3.4	6.10738E-001	-1.23007E-003	0.00000E+000	-3.70030E-001	0.00000E+000	10	...........	1583.05
	341	3.41	6.08290E-001	-1.23006E-003	0.00000E+000	-3.70030E-001	0.00000E+000	10	...........	1583.05
	342	3.42	6.05823E-001	-1.23007E-003	0.00000E+000	-3.70030E-001	0.00000E+000	10	...........	1583.05
	343	3.43	6.03384E-001	-1.23004E-003	0.00000E+000	-3.70030E-001	0.00000E+000	10	...........	1583.05
	344	3.44	6.00903E-001	-1.23009E-003	0.00000E+000	-3.70030E-001	0.00000E+000	10	...........	1583.05
	345	3.45	5.98444E-001	-1.23007E-003	0.00000E+000	-3.70030E-001	0.00000E+000	10	...........	1583.05
	346	3.46	5.96016E-001	-1.23009E-003	0.00000E+000	-3.70030E-001	0.00000E+000	10	...........	1583.05
	347	3.47	5.93561E-001	-1.23009E-003	0.00000E+000	-3.70030E-001	0.00000E+000	10	...........	1583.05
	348	3.48	5.91137E-001	-1.23010E-003	0.00000E+000	-3.70030E-001	0.00000E+000	10	...........	1583.05
	349	3.49	5.88665E-001	-1.23008E-003	0.00000E+000	-3.70030E-001	0.00000E+000	10	...........	1583.05
	350	3.5	5.86236E-001	-1.23009E-003	0.00000E+000	-3.70030E-001	0.00000E+000	10	...........	1583.05
	351	3.51	5.83812E-001	-1.23005E-003	0.00000E+000	-3.70030E-001	0.00000E+000	10	...........	1583.05
	352	3.52	5.81393E-001	-1.23006E-003	0.00000E+000	-3.70030E-001	0.00000E+000	10	...........	1583.05
	353	3.53	5.78970E-001	-1.23007E-003	0.00000E+000	-3.70030E-001	0.00000E+000	10	...........	1583.05
	354	3.54	5.76566E-001	-1.23006E-003	0.00000E+000	-3.70030E-001	0.00000E+000	10	...........	1583.05
	355	3.55	5.74126E-001	-1.22999E-003	0.00000E+000	-3.70030E-001	0.00000E+000	10	...........	1583.05
	356	3.56	5.71733E-001	-1.23007E-003	0.00000E+000	-3.70030E-001	0.00000E+000	10	...........	1583.05
	357	3.57	5.69323E-001	-1.23005E-003	0.00000E+000	-3.70030E-001	0.00000E+000	10	...........	1583.05
	358	3.58	5.66943E-001	-1.23003E-003	0.00000E+000	-3.70030E-001	0.00000E+000	10	...........	1583.05
	359	3.59	5.64537E-001	-1.23003E-003	0.00000E+000	-3.70030E-001	0.00000E+000	10	...........	1583.05
	360	3.6	5.62109E-001	-1.23003E-003	0.00000E+000	-3.70030E-001	0.00000E+000	10	...........	1583.05
	361	3.61	5.59743E-001	-1.23003E-003	0.00000E+000	-3.70030E-001	0.00000E+000	10	...........	1583.05
	362	3.62	5.57361E-001	-1.23001E-003	0.00000E+000	-3.70030E-001	0.00000E+000	10	...........	1583.05
	363	3.63	5.54985E-001	-1.23001E-003	0.00000E+000	-3.70030E-001	0.00000E+000	10	...........	1583.05
	364	3.64	5.52588E-001	-1.23007E-003	0.00000E+000	-3.70030E-001	0.00000E+000	10	...........	1583.05
	365	3.65	5.50207E-001	-1.23007E-003	0.00000E+000	-3.70030E-001	0.00000E+000	10	...........	1583.05
	366	3.66	5.47846E-001	-1.23010E-003	0.00000E+000	-3.70030E-001	0.00000E+000	10	...........	1583.05
	367	3.67	5.45478E-001	-1.23010E-003	0.00000E+000	-3.70030E-001	0.00000E+000	10	...........	1583.05
	368	3.68	5.43127E-001	-1.23001E-003	0.00000E+000	-3.70030E-001	0.00000E+000	10	...........	1583.05
	369	3.69	5.40783E-001	-1.23002E-003	0.00000E+000	-3.70030E-001	0.00000E+000	10	...........	1583.05
	370	3.7	5.38422E-001	-1.23007E-003	0.00000E+000	-3.70030E-001	0.00000E+000	10	...........	1583.05
	371	3.71	5.36022E-001	-1.23014E-003	0.00000E+000	-3.70030E-001	0.00000E+000	10	...........	1583.05
	372	3.72	5.33674E-001	-1.23011E-003	0.00000E+000	-3.70030E-001	0.00000E+000	10	...........	1583.05
	373	3.73	5.31361E-001	-1.23009E-003	0.00000E+000	-3.70030E-001	0.00000E+000	10	...........	1583.05
	374	3.74	5.29027E-001	-1.23005E-003	0.00000E+000	-3.70030E-001	0.00000E+000	10	...........	1583.05
	375	3.75	5.26683E-001	-1.23006E-003	0.00000E+000	-3.70030E-001	0.00000E+000	10	...........	1583.05
	376	3.76	5.24323E-001	-1.23007E-003	0.00000E+000	-3.70030E-001	0.00000E+000	10	...........	1583.05
	377	3.77	5.22014E-001	-1.23004E-003	0.00000E+000	-3.70030E-001	0.00000E+000	10	...........	1583.05
	378	3.78	5.19687E-001	-1.23007E-003	0.00000E+000	-3.70030E-001	0.00000E+000	10	...........	1583.05
	379	3.79	5.17372E-001	-1.23002E-003	0.00000E+000	-3.70030E-001	0.00000E+000	10	...........	1583.05
	380	3.8	5.15053E-001	-1.23005E-003	0.00000E+000	-3.70030E-001	0.00000E+000	10	...........	1583.05
	381	3.81	5.12744E-001	-1.23005E-003	0.00000E+000	-3.70030E-001	0.00000E+000	10	...........	1583.05
	382	3.82	5.10404E-001	-1.23010E-003	0.00000E+000	-3.70030E-001	0.00000E+000	10	...........	1583.05
	383	3.83	5.08103E-001	-1.23004E-003	0.00000E+000	-3.70030E-001	0.00000E+000	10	...........	1583.05
	384	3.84	5.05815E-001	-1.23006E-003	0.00000E+000	-3.70030E-001	0.00000E+000	10	...........	1583.05
	385	3.85	5.03526E-001	-1.23004E-003	0.00000E+000	-3.70030E-001	0.00000E+000	10	...........	1583.05
	386	3.86	5.01251E-001	-1.23004E-003	0.00000E+000	-3.70030E-001	0.00000E+000	10	...........	1583.05
	387	3.87	4.98929E-001	-1.23005E-003	0.00000E+000	-3.70030E-001	0.00000E+000	10	...........	1583.05
	388	3.88	4.96648E-001	-1.23003E-003	0.00000E+000	-3.70030E-001	0.00000E+000	10	...........	1583.05
	389	3.89	4.94358E-001	-1.23004E-003	0.00000E+000	-3.70030E-001	0.00000E+000	10	...........	1583.05
	390	3.9	4.92082E-001	-1.23007E-003	0.00000E+000	-3.70030E-001	0.00000E+000	10	...........	1583.05
	391	3.91	4.89803E-001	-1.23004E-003	0.00000E+000	-3.70030E-001	0.00000E+000	10	...........	1583.05
	392	3.92	4.87533E-001	-1.23005E-003	0.00000E+000	-3.70030E-001	0.00000E+000	10	...........	1583.05
	393	3.93	4.85243E-001	-1.23007E-003	0.00000E+000	-3.70030E-001	0.00000E+000	10	...........	1583.05
	394	3.94	4.82995E-001	-1.23001E-003	0.00000E+000	-3.70030E-001	0.00000E+000	10	...........	1583.05
	395	3.95	4.80729E-001	-1.23008E-003	0.00000E+000	-3.70030E-001	0.00000E+000	10	...........	1583.05
	396	3.96	4.78468E-001	-1.23006E-003	0.00000E+000	-3.70030E-001	0.00000E+000	10	...........	1583.05
	397	3.97	4.76219E-001	-1.23004E-003	0.00000E+000	-3.70030E-001	0.00000E+000	10	...........	1583.05
	398	3.98	4.73972E-001	-1.23008E-003	0.00000E+000	-3.70030E-001	0.00000E+000	10	...........	1583.05
	399	3.99	4.71708E-001	-1.23002E-003	0.00000E+000	-3.70030E-001	0.00000E+000	10	...........	1583.05
	400	4	4.69477E-001	-1.23009E-003	0.00000E+000	-3.70030E-001	0.00000E+000	10	...........	1583.05
	401	4.01	4.67211E-001	-1.23009E-003	0.00000E+000	-3.70030E-001	0.00000E+000	10	...........	1583.05
	402	4.02	4.65006E-001	-1.23005E-003	0.00000E+000	-3.70030E-001	0.00000E+000	10	...........	1583.05
	403	4.03	4.62784E-001	-1.23003E-003	0.00000E+000	-3.70030E-001	0.00000E+000	10	...........	1583.05
	404	4.04	4.60522E-001	-1.23005E-003	0.00000E+000	-3.70030E-001	0.00000E+000	10	...........	1583.05
	405	4.05	4.58319E-001	-1.23004E-003	0.00000E+000	-3.70030E-001	0.00000E+000	10	...........	1583.05
	406	4.06	4.56061E-001	-1.23015E-003	0.00000E+000	-3.70030E-001	0.00000E+000	10	...........	1583.05
	407	4.07	4.53843E-001	-1.23011E-003	0.00000E+000	-3.70030E-001	0.00000E+000	10	...........	1583.05
	408	4.08	4.51655E-001	-1.23006E-003	0.00000E+000	-3.70030E-001	0.00000E+000	10	...........	1583.05
	409	4.09	4.49429E-001	-1.23006E-003	0.00000E+000	-3.70030E-001	0.00000E+000	10	...........	1583.05
	410	4.1	4.47215E-001	-1.23006E-003	0.00000E+000	-3.70030E-001	0.00000E+000	10	...........	1583.05
	411	4.11	4.45004E-001	-1.23007E-003	0.00000E+000	-3.70030E-001	0.00000E+000	10	...........	1583.05
	412	4.12	4.42806E-001	-1.23007E-003	0.00000E+000	-3.70030E-001	0.00000E+000	10	...........	1583.05
	413	4.13	4.40604E-001	-1.23007E-003	0.00000E+000	-3.70030E-001	0.00000E+000	10	...........	1583.05
	414	4.14	4.38402E-001	-1.23007E-003	0.00000E+000	-3.70030E-001	0.00000E+000	10	...........	1583.05
	415	4.15	4.36235E-001	-1.23011E-003	0.00000E+000	-3.70030E-001	0.00000E+000	10	...........	1583.05
	416	4.16	4.33998E-001	-1.23010E-003	0.00000E+000	-3.70030E-001	0.00000E+000	10	...........	1583.05
	417	4.17	4.31835E-001	-1.23001E-003	0.00000E+000	-3.70030E-001	0.00000E+000	10	...........	1583.05
	418	4.18	4.29657E-001	-1.23002E-003	0.00000E+000	-3.70030E-001	0.00000E+000	10	...........	1583.05
	419	4.19	4.27459E-001	-1.23005E-003	0.00000E+000	-3.70030E-001	0.00000E+000	10	...........	1583.05
	420	4.2	4.25291E-001	-1.23007E-003	0.00000E+000	-3.70030E-001	0.00000E+000	10	...........	1583.05
	421	4.21	4.23121E-001	-1.23005E-003	0.00000E+000	-3.70030E-001	0.00000E+000	10	...........	1583.05
	422	4.22	4.20943E-001	-1.23007E-003	0.00000E+000	-3.70030E-001	0.00000E+000	10	...........	1583.05
	423	4.23	4.18793E-001	-1.23007E-003	0.00000E+000	-3.70030E-001	0.00000E+000	10	...........	1583.05
	424	4.24	4.16631E-001	-1.23001E-003	0.00000E+000	-3.70030E-001	0.00000E+000	10	...........	1583.05
	425	4.25	4.14468E-001	-1.22999E-003	0.00000E+000	-3.70030E-001	0.00000E+000	10	...........	1583.05
	426	4.26	4.12333E-001	-1.22993E-003	0.00000E+000	-3.70030E-001	0.00000E+000	10	...........	1583.05
	427	4.27	4.10188E-001	-1.22996E-003	0.00000E+000	-3.70030E-001	0.00000E+000	10	...........	1583.05
	428	4.28	4.07982E-001	-1.22999E-003	0.00000E+000	-3.70030E-001	0.00000E+000	10	...........	1583.05
	429	4.29	4.05827E-001	-1.23003E-003	0.00000E+000	-3.70030E-001	0.00000E+000	10	...........	1583.05
	430	4.3	4.03683E-001	-1.23011E-003	0.00000E+000	-3.70030E-001	0.00000E+000	10	...........	1583.05
	431	4.31	4.01549E-001	-1.23007E-003	0.00000E+000	-3.70030E-001	0.00000E+000	10	...........	1583.05
	432	4.32	3.99424E-001	-1.23000E-003	0.00000E+000	-3.70030E-001	0.00000E+000	10	...........	1583.05
	433	4.33	3.97306E-001	-1.22999E-003	0.00000E+000	-3.70030E-001	0.00000E+000	10	...........	1583.05
	434	4.34	3.95136E-001	-1.23006E-003	0.00000E+000	-3.70030E-001	0.00000E+000	10	...........	1583.05
	435	4.35	3.93016E-001	-1.23009E-003	0.00000E+000	-3.70030E-001	0.00000E+000	10	...........	1583.05
	436	4.36	3.90871E-001	-1.23005E-003	0.00000E+000	-3.70030E-001	0.00000E+000	10	...........	1583.05
	437	4.37	3.88766E-001	-1.23007E-003	0.00000E+000	-3.70030E-001	0.00000E+000	10	...........	1583.05
	438	4.38	3.86664E-001	-1.23005E-003	0.00000E+000	-3.70030E-001	0.00000E+000	10	...........	1583.05
	439	4.39	3.84519E-001	-1.23002E-003	0.00000E+000	-3.70030E-001	0.00000E+000	10	...........	1583.05
	440	4.4	3.82403E-001	-1.23009E-003	0.00000E+000	-3.70030E-001	0.00000E+000	10	...........	1583.05
	441	4.41	3.80288E-001	-1.23002E-003	0.00000E+000	-3.70030E-001	0.00000E+000	10	...........	1583.05
	442	4.42	3.78189E-001	-1.23004E-003	0.00000E+000	-3.70030E-001	0.00000E+000	10	...........	1583.05
	443	4.43	3.76075E-001	-1.23003E-003	0.00000E+000	-3.70030E-001	0.00000E+000	10	...........	1583.05
	444	4.44	3.73977E-001	-1.23000E-003	0.00000E+000	-3.70030E-001	0.00000E+000	10	...........	1583.05
	445	4.45	3.71903E-001	-1.23002E-003	0.00000E+000	-3.70030E-001	0.00000E+000	10	...........	1583.25
	446	4.46	3.69778E-001	-1.23006E-003	0.00000E+000	-3.70030E-001	0.00000E+000	10	...........	1583.25
	447	4.47	3.67675E-001	-1.23008E-003	0.00000E+000	-3.70030E-001	0.00000E+000	10	...........	1583.25
	448	4.48	3.65580E-001	-1.23007E-003	0.00000E+000	-3.70030E-001	0.00000E+000	10	...........	1583.25
	449	4.49	3.63500E-001	-1.23006E-003	0.00000E+000	-3.70030E-001	0.00000E+000	10	...........	1583.25
	450	4.5	3.61413E-001	-1.23003E-003	0.00000E+000	-3.70030E-001	0.00000E+000	10	...........	1583.25
	451	4.51	3.59340E-001	-1.22997E-003	0.00000E+000	-3.70030E-001	0.00000E+000	10	...........	1583.25
	452	4.52	3.57225E-001	-1.23004E-003	0.00000E+000	-3.70030E-001	0.00000E+000	10	...........	1583.25
	453	4.53	3.55156E-001	-1.23004E-003	0.00000E+000	-3.70030E-001	0.00000E+000	10	...........	1583.25
	454	4.54	3.53087E-001	-1.23001E-003	0.00000E+000	-3.70030E-001	0.00000E+000	10	...........	1583.25
	455	4.55	3.51013E-001	-1.23004E-003	0.00000E+000	-3.70030E-001	0.00000E+000	10	...........	1583.25
	456	4.56	3.48955E-001	-1.23006E-003	0.00000E+000	-3.70030E-001	0.00000E+000	10	...........	1583.25
	457	4.57	3.46890E-001	-1.23005E-003	0.00000E+000	-3.70030E-001	0.00000E+000	10	...........	1583.25
	458	4.58	3.44817E-001	-1.23004E-003	0.00000E+000	-3.70030E-001	0.00000E+000	10	...........	1583.25
	459	4.59	3.42762E-001	-1.23002E-003	0.00000E+000	-3.70030E-001	0.00000E+000	10	...........	1583.25
	460	4.6	3.40696E-001	-1.23005E-003	0.00000E+000	-3.70030E-001	0.00000E+000	10	...........	1583.25
	461	4.61	3.38645E-001	-1.23004E-003	0.00000E+000	-3.70030E-001	0.00000E+000	10	...........	1583.25
	462	4.62	3.36593E-001	-1.23004E-003	0.00000E+000	-3.70030E-001	0.00000E+000	10	...........	1583.25
	463	4.63	3.34551E-001	-1.23001E-003	0.00000E+000	-3.70030E-001	0.00000E+000	10	...........	1583.25
	464	4.64	3.32468E-001	-1.23002E-003	0.00000E+000	-3.70030E-001	0.00000E+000	10	...........	1583.25
	465	4.65	3.30434E-001	-1.23002E-003	0.00000E+000	-3.70030E-001	0.00000E+000	10	...........	1583.25
	466	4.66	3.28403E-001	-1.23001E-003	0.00000E+000	-3.70030E-001	0.00000E+000	10	...........	1583.25
	467	4.67	3.26369E-001	-1.23003E-003	0.00000E+000	-3.70030E-001	0.00000E+000	10	...........	1583.25
	468	4.68	3.24328E-001	-1.23001E-003	0.00000E+000	-3.70030E-001	0.00000E+000	10	...........	1583.25
	469	4.69	3.22296E-001	-1.23008E-003	0.00000E+000	-3.70030E-001	0.00000E+000	10	...........	1583.25
	470	4.7	3.20269E-001	-1.23001E-003	0.00000E+000	-3.70030E-001	0.00000E+000	10	...........	1583.25
	471	4.71	3.18235E-001	-1.23003E-003	0.00000E+000	-3.70030E-001	0.00000E+000	10	...........	1583.25
	472	4.72	3.16201E-001	-1.23001E-003	0.00000E+000	-3.70030E-001	0.00000E+000	10	...........	1583.25
	473	4.73	3.14212E-001	-1.22998E-003	0.00000E+000	-3.70030E-001	0.00000E+000	10	...........	1583.25
	474	4.74	3.12180E-001	-1.23001E-003	0.00000E+000	-3.70030E-001	0.00000E+000	10	...........	1583.25
	475	4.75	3.10146E-001	-1.23000E-003	0.00000E+000	-3.70030E-001	0.00000E+000	10	...........	1583.25
	476	4.76	3.08136E-001	-1.23003E-003	0.00000E+000	-3.70030E-001	0.00000E+000	10	...........	1583.25
	477	4.77	3.06084E-001	-1.23003E-003	0.00000E+000	-3.70030E-001	0.00000E+000	10	...........	1583.25
	478	4.78	3.04100E-001	-1.23000E-003	0.00000E+000	-3.70030E-001	0.00000E+000	10	...........	1583.25
	479	4.79	3.02103E-001	-1.22997E-003	0.00000E+000	-3.70030E-001	0.00000E+000	10	...........	1583.25
	480	4.8	3.00086E-001	-1.23001E-003	0.00000E+000	-3.70030E-001	0.00000E+000	10	...........	1583.25
	481	4.81	2.98108E-001	-1.22996E-003	0.00000E+000	-3.70030E-001	0.00000E+000	10	...........	1583.25
	482	4.82	2.96095E-001	-1.23002E-003	0.00000E+000	-3.70030E-001	0.00000E+000	10	...........	1583.25
	483	4.83	2.94075E-001	-1.23000E-003	0.00000E+000	-3.70030E-001	0.00000E+000	10	...........	1583.25
	484	4.84	2.92079E-001	-1.23003E-003	0.00000E+000	-3.70030E-001	0.00000E+000	10	...........	1583.25
	485	4.85	2.90088E-001	-1.23006E-003	0.00000E+000	-3.70030E-001	0.00000E+000	10	...........	1583.25
	486	4.86	2.88094E-001	-1.23007E-003	0.00000E+000	-3.70030E-001	0.00000E+000	10	...........	1583.25
	487	4.87	2.86113E-001	-1.23006E-003	0.00000E+000	-3.70030E-001	0.00000E+000	10	...........	1583.25
	488	4.88	2.84166E-001	-1.23004E-003	0.00000E+000	-3.70030E-001	0.00000E+000	10	...........	1583.25
	489	4.89	2.82182E-001	-1.23000E-003	0.00000E+000	-3.70030E-001	0.00000E+000	10	...........	1583.25
	490	4.9	2.80167E-001	-1.23001E-003	0.00000E+000	-3.70030E-001	0.00000E+000	10	...........	1583.25
	491	4.91	2.78175E-001	-1.23008E-003	0.00000E+000	-3.70030E-001	0.00000E+000	10	...........	1583.25
	492	4.92	2.76227E-001	-1.23002E-003	0.00000E+000	-3.70030E-001	0.00000E+000	10	...........	1583.25
	493	4.93	2.74255E-001	-1.23002E-003	0.00000E+000	-3.70030E-001	0.00000E+000	10	...........	1583.25
	494	4.94	2.72309E-001	-1.23001E-003	0.00000E+000	-3.70030E-001	0.00000E+000	10	...........	1583.25
	495	4.95	2.70337E-001	-1.23004E-003	0.00000E+000	-3.70030E-001	0.00000E+000	10	...........	1583.25
	496	4.96	2.68357E-001	-1.23003E-003	0.00000E+000	-3.70030E-001	0.00000E+000	10	...........	1583.25
	497	4.97	2.66404E-001	-1.23007E-003	0.00000E+000	-3.70030E-001	0.00000E+000	10	...........	1583.25
	498	4.98	2.64442E-001	-1.23003E-003	0.00000E+000	-3.70030E-001	0.00000E+000	10	...........	1583.25
	499	4.99	2.62488E-001	-1.23006E-003	0.00000E+000	-3.70030E-001	0.00000E+000	10	...........	1583.25
	500	5	2.60545E-001	-1.23003E-003	0.00000E+000	-3.70030E-001	0.00000E+000	10	...........	1583.25
	501	5.01	2.58596E-001	-1.23006E-003	0.00000E+000	-3.70030E-001	0.00000E+000	10	...........	1583.25
	502	5.02	2.56658E-001	-1.23003E-003	0.00000E+000	-3.70030E-001	0.00000E+000	10	...........	1583.25
	503	5.03	2.54690E-001	-1.23004E-003	0.00000E+000	-3.70030E-001	0.00000E+000	10	...........	1583.25
	504	5.04	2.52741E-001	-1.23006E-003	0.00000E+000	-3.70030E-001	0.00000E+000	10	...........	1583.25
	505	5.05	2.50821E-001	-1.23009E-003	0.00000E+000	-3.70030E-001	0.00000E+000	10	...........	1583.25
	506	5.06	2.48892E-001	-1.23001E-003	0.00000E+000	-3.70030E-001	0.00000E+000	10	...........	1583.25
	507	5.07	2.46959E-001	-1.23002E-003	0.00000E+000	-3.70030E-001	0.00000E+000	10	...........	1583.25
	508	5.08	2.45036E-001	-1.23002E-003	0.00000E+000	-3.70030E-001	0.00000E+000	10	...........	1583.25
	509	5.09	2.43096E-001	-1.23004E-003	0.00000E+000	-3.70030E-001	0.00000E+000	10	...........	1583.25
	510	5.1	2.41195E-001	-1.23008E-003	0.00000E+000	-3.70030E-001	0.00000E+000	10	...........	1583.25
	511	5.11	2.39270E-001	-1.23006E-003	0.00000E+000	-3.70030E-001	0.00000E+000	10	...........	1583.25
	512	5.12	2.37351E-001	-1.23000E-003	0.00000E+000	-3.70030E-001	0.00000E+000	10	...........	1583.25
	513	5.13	2.35434E-001	-1.23012E-003	0.00000E+000	-3.70030E-001	0.00000E+000	10	...........	1583.25
	514	5.14	2.33522E-001	-1.23009E-003	0.00000E+000	-3.70030E-001	0.00000E+000	10	...........	1583.25
	515	5.15	2.31609E-001	-1.23010E-003	0.00000E+000	-3.70030E-001	0.00000E+000	10	...........	1583.25
	516	5.16	2.29702E-001	-1.23009E-003	0.00000E+000	-3.70030E-001	0.00000E+000	10	...........	1583.25
	517	5.17	2.27800E-001	-1.23009E-003	0.00000E+000	-3.70030E-001	0.00000E+000	10	...........	1583.25
	518	5.18	2.25899E-001	-1.23007E-003	0.00000E+000	-3.70030E-001	0.00000E+000	10	...........	1583.25
	519	5.19	2.24000E-001	-1.23007E-003	0.00000E+000	-3.70030E-001	0.00000E+000	10	...........	1583.25
	520	5.2	2.22107E-001	-1.23007E-003	0.00000E+000	-3.70030E-001	0.00000E+000	10	...........	1583.25
	521	5.21	2.20219E-001	-1.23000E-003	0.00000E+000	-3.70030E-001	0.00000E+000	10	...........	1583.25
	522	5.22	2.18331E-001	-1.23003E-003	0.00000E+000	-3.70030E-001	0.00000E+000	10	...........	1583.25
	523	5.23	2.16443E-001	-1.23002E-003	0.00000E+000	-3.70030E-001	0.00000E+000	10	...........	1583.25
	524	5.24	2.14561E-001	-1.23002E-003	0.00000E+000	-3.70030E-001	0.00000E+000	10	...........	1583.25
	525	5.25	2.12685E-001	-1.23006E-003	0.00000E+000	-3.70030E-001	0.00000E+000	10	...........	1583.25
	526	5.26	2.10810E-001	-1.23007E-003	0.00000E+000	-3.70030E-001	0.00000E+000	10	...........	1583.25
	527	5.27	2.08937E-001	-1.23001E-003	0.00000E+000	-3.70030E-001	0.00000E+000	10	...........	1583.25
	528	5.28	2.07064E-001	-1.23004E-003	0.00000E+000	-3.70030E-001	0.00000E+000	10	...........	1583.25
	529	5.29	2.05203E-001	-1.23007E-003	0.00000E+000	-3.70030E-001	0.00000E+000	10	...........	1583.25
	530	5.3	2.03335E-001	-1.23006E-003	0.00000E+000	-3.70030E-001	0.00000E+000	10	...........	1583.25
	531	5.31	2.01476E-001	-1.23006E-003	0.00000E+000	-3.70030E-001	0.00000E+000	10	...........	1583.25
	532	5.32	1.99618E-001	-1.23005E-003	0.00000E+000	-3.70030E-001	0.00000E+000	10	...........	1583.25
	533	5.33	1.97767E-001	-1.23007E-003	0.00000E+000	-3.70030E-001	0.00000E+000	10	...........	1583.25
	534	5.34	1.95914E-001	-1.23014E-003	0.00000E+000	-3.70030E-001	0.00000E+000	10	...........	1583.25
	535	5.35	1.94069E-001	-1.23007E-003	0.00000E+000	-3.70030E-001	0.00000E+000	10	...........	1583.25
	536	5.36	1.92229E-001	-1.23004E-003	0.00000E+000	-3.70030E-001	0.00000E+000	10	...........	1583.25
	537	5.37	1.90389E-001	-1.23005E-003	0.00000E+000	-3.70030E-001	0.00000E+000	10	...........	1583.25
	538	5.38	1.88553E-001	-1.23003E-003	0.00000E+000	-3.70030E-001	0.00000E+000	10	...........	1583.25
	539	5.39	1.86721E-001	-1.23002E-003	0.00000E+000	-3.70030E-001	0.00000E+000	10	...........	1583.25
	540	5.4	1.84895E-001	-1.23008E-003	0.00000E+000	-3.70030E-001	0.00000E+000	10	...........	1583.25
	541	5.41	1.83069E-001	-1.23005E-003	0.00000E+000	-3.70030E-001	0.00000E+000	10	...........	1583.25
	542	5.42	1.81246E-001	-1.23006E-003	0.00000E+000	-3.70030E-001	0.00000E+000	10	...........	1583.25
	543	5.43	1.79433E-001	-1.23004E-003	0.00000E+000	-3.70030E-001	0.00000E+000	10	...........	1583.25
	544	5.44	1.77615E-001	-1.23005E-003	0.00000E+000	-3.70030E-001	0.00000E+000	10	...........	1583.25
	545	5.45	1.75805E-001	-1.23004E-003	0.00000E+000	-3.70030E-001	0.00000E+000	10	...........	1583.05
	546	5.46	1.73996E-001	-1.23006E-003	0.00000E+000	-3.70030E-001	0.00000E+000	10	...........	1583.05
	547	5.47	1.72191E-001	-1.23007E-003	0.00000E+000	-3.70030E-001	0.00000E+000	10	...........	1583.05
	548	5.48	1.70393E-001	-1.23006E-003	0.00000E+000	-3.70030E-001	0.00000E+000	10	...........	1583.05
	549	5.49	1.68594E-001	-1.23003E-003	0.00000E+000	-3.70030E-001	0.00000E+000	10	...........	1583.05
	550	5.5	1.66805E-001	-1.23002E-003	0.00000E+000	-3.70030E-001	0.00000E+000	10	...........	1583.05
	551	5.51	1.65020E-001	-1.23005E-003	0.00000E+000	-3.70030E-001	0.00000E+000	10	...........	1583.05
	552	5.52	1.63242E-001	-1.23002E-003	0.00000E+000	-3.70030E-001	0.00000E+000	10	...........	1583.05
	553	5.53	1.61464E-001	-1.23002E-003	0.00000E+000	-3.70030E-001	0.00000E+000	10	...........	1583.05
	554	5.54	1.59689E-001	-1.22999E-003	0.00000E+000	-3.70030E-001	0.00000E+000	10	...........	1583.05
	555	5.55	1.57916E-001	-1.23006E-003	0.00000E+000	-3.70030E-001	0.00000E+000	10	...........	1583.05
	556	5.56	1.56148E-001	-1.23002E-003	0.00000E+000	-3.70030E-001	0.00000E+000	10	...........	1583.05
	557	5.57	1.54386E-001	-1.22998E-003	0.00000E+000	-3.70030E-001	0.00000E+000	10	...........	1583.05
	558	5.58	1.52628E-001	-1.22997E-003	0.00000E+000	-3.70030E-001	0.00000E+000	10	...........	1583.05
	559	5.59	1.50874E-001	-1.23000E-003	0.00000E+000	-3.70030E-001	0.00000E+000	10	...........	1583.05
	560	5.6	1.49125E-001	-1.22998E-003	0.00000E+000	-3.70030E-001	0.00000E+000	10	...........	1583.05
	561	5.61	1.47381E-001	-1.23000E-003	0.00000E+000	-3.70030E-001	0.00000E+000	10	...........	1583.05
	562	5.62	1.45635E-001	-1.23006E-003	0.00000E+000	-3.70030E-001	0.00000E+000	10	...........	1583.05
	563	5.63	1.43897E-001	-1.23003E-003	0.00000E+000	-3.70030E-001	0.00000E+000	10	...........	1583.05
	564	5.64	1.42163E-001	-1.23003E-003	0.00000E+000	-3.70030E-001	0.00000E+000	10	...........	1583.05
	565	5.65	1.40433E-001	-1.23007E-003	0.00000E+000	-3.70030E-001	0.00000E+000	10	...........	1583.05
	566	5.66	1.38706E-001	-1.23008E-003	0.00000E+000	-3.70030E-001	0.00000E+000	10	...........	1583.05
	567	5.67	1.36987E-001	-1.23004E-003	0.00000E+000	-3.70030E-001	0.00000E+000	10	...........	1583.05
	568	5.68	1.35270E-001	-1.23006E-003	0.00000E+000	-3.70030E-001	0.00000E+000	10	...........	1583.05
	569	5.69	1.33562E-001	-1.23001E-003	0.00000E+000	-3.70030E-001	0.00000E+000	10	...........	1583.05
	570	5.7	1.31852E-001	-1.23002E-003	0.00000E+000	-3.70030E-001	0.00000E+000	10	...........	1583.05
	571	5.71	1.30151E-001	-1.22998E-003	0.00000E+000	-3.70030E-001	0.00000E+000	10	...........	1583.05
	572	5.72	1.28451E-001	-1.23004E-003	0.00000E+000	-3.70030E-001	0.00000E+000	10	...........	1583.05
	573	5.73	1.26756E-001	-1.23006E-003	0.00000E+000	-3.70030E-001	0.00000E+000	10	...........	1583.05
	574	5.74	1.25061E-001	-1.23006E-003	0.00000E+000	-3.70030E-001	0.00000E+000	10	...........	1583.05
	575	5.75	1.23378E-001	-1.23004E-003	0.00000E+000	-3.70030E-001	0.00000E+000	10	...........	1583.05
	576	5.76	1.21700E-001	-1.23006E-003	0.00000E+000	-3.70030E-001	0.00000E+000	10	...........	1583.05
	577	5.77	1.20021E-001	-1.23005E-003	0.00000E+000	-3.70030E-001	0.00000E+000	10	...........	1583.05
	578	5.78	1.18350E-001	-1.23002E-003	0.00000E+000	-3.70030E-001	0.00000E+000	10	...........	1583.05
	579	5.79	1.16682E-001	-1.23000E-003	0.00000E+000	-3.70030E-001	0.00000E+000	10	...........	1583.05
	580	5.8	1.15018E-001	-1.23002E-003	0.00000E+000	-3.70030E-001	0.00000E+000	10	...........	1583.05
	581	5.81	1.13358E-001	-1.23010E-003	0.00000E+000	-3.70030E-001	0.00000E+000	10	...........	1583.05
	582	5.82	1.11705E-001	-1.23008E-003	0.00000E+000	-3.70030E-001	0.00000E+000	10	...........	1583.05
	583	5.83	1.10058E-001	-1.23004E-003	0.00000E+000	-3.70030E-001	0.00000E+000	10	...........	1583.05
	584	5.84	1.08413E-001	-1.23006E-003	0.00000E+000	-3.70030E-001	0.00000E+000	10	...........	1583.05
	585	5.85	1.06771E-001	-1.23008E-003	0.00000E+000	-3.70030E-001	0.00000E+000	10	...........	1583.05
	586	5.86	1.05136E-001	-1.23007E-003	0.00000E+000	-3.70030E-001	0.00000E+000	10	...........	1583.05
	587	5.87	1.03505E-001	-1.23007E-003	0.00000E+000	-3.70030E-001	0.00000E+000	10	...........	1583.05
	588	5.88	1.01876E-001	-1.23003E-003	0.00000E+000	-3.70030E-001	0.00000E+000	10	...........	1583.05
	589	5.89	1.00257E-001	-1.23001E-003	0.00000E+000	-3.70030E-001	0.00000E+000	10	...........	1583.05
	590	5.9	9.86425E-002	-1.23009E-003	0.00000E+000	-3.70030E-001	0.00000E+000	10	...........	1583.05
	591	5.91	9.70278E-002	-1.23005E-003	0.00000E+000	-3.70030E-001	0.00000E+000	10	...........	1583.05
	592	5.92	9.54202E-002	-1.23002E-003	0.00000E+000	-3.70030E-001	0.00000E+000	10	...........	1583.05
	593	5.93	9.38179E-002	-1.23001E-003	0.00000E+000	-3.70030E-001	0.00000E+000	10	...........	1583.05
	594	5.94	9.22215E-002	-1.23004E-003	0.00000E+000	-3.70030E-001	0.00000E+000	10	...........	1583.05
	595	5.95	9.06287E-002	-1.23005E-003	0.00000E+000	-3.70030E-001	0.00000E+000	10	...........	1583.05
	596	5.96	8.90363E-002	-1.23008E-003	0.00000E+000	-3.70030E-001	0.00000E+000	10	...........	1583.05
	597	5.97	8.74567E-002	-1.23006E-003	0.00000E+000	-3.70030E-001	0.00000E+000	10	...........	1583.05
	598	5.98	8.58785E-002	-1.23004E-003	0.00000E+000	-3.70030E-001	0.00000E+000	10	...........	1583.05
	599	5.99	8.43013E-002	-1.23007E-003	0.00000E+000	-3.70030E-001	0.00000E+000	10	...........	1583.05
	600	6	8.27299E-002	-1.23009E-003	0.00000E+000	-3.70030E-001	0.00000E+000	10	...........	1583.05
	601	6.01	8.11702E-002	-1.23009E-003	0.00000E+000	-3.70030E-001	0.00000E+000	10	...........	1583.05
	602	6.02	7.96093E-002	-1.23002E-003	0.00000E+000	-3.70030E-001	0.00000E+000	10	...........	1583.05
	603	6.03	7.80509E-002	-1.23005E-003	0.00000E+000	-3.70030E-001	0.00000E+000	10	...........	1583.05
	604	6.04	7.64962E-002	-1.23006E-003	0.00000E+000	-3.70030E-001	0.00000E+000	10	...........	1583.05
	605	6.05	7.49508E-002	-1.23007E-003	0.00000E+000	-3.70030E-001	0.00000E+000	10	...........	1583.05
	606	6.06	7.34097E-002	-1.23007E-003	0.00000E+000	-3.70030E-001	0.00000E+000	10	...........	1583.05
	607	6.07	7.18732E-002	-1.23007E-003	0.00000E+000	-3.70030E-001	0.00000E+000	10	...........	1583.05
	608	6.08	7.03386E-002	-1.23004E-003	0.00000E+000	-3.70030E-001	0.00000E+000	10	...........	1583.05
	609	6.09	6.88121E-002	-1.23004E-003	0.00000E+000	-3.70030E-001	0.00000E+000	10	...........	1583.05
	610	6.1	6.72916E-002	-1.23003E-003	0.00000E+000	-3.70030E-001	0.00000E+000	10	...........	1583.05
	611	6.11	6.57715E-002	-1.23005E-003	0.00000E+000	-3.70030E-001	0.00000E+000	10	...........	1583.05
	612	6.12	6.42574E-002	-1.23008E-003	0.00000E+000	-3.70030E-001	0.00000E+000	10	...........	1583.05
	613	6.13	6.27513E-002	-1.23010E-003	0.00000E+000	-3.70030E-001	0.00000E+000	10	...........	1583.05
	614	6.14	6.12453E-002	-1.23012E-003	0.00000E+000	-3.70030E-001	0.00000E+000	10	...........	1583.05
	615	6.15	5.97449E-002	-1.23010E-003	0.00000E+000	-3.70030E-001	0.00000E+000	10	...........	1583.05
	616	6.16	5.82486E-002	-1.23011E-003	0.00000E+000	-3.70030E-001	0.00000E+000	10	...........	1583.05
	617	6.17	5.67549E-002	-1.23012E-003	0.00000E+000	-3.70030E-001	0.00000E+000	10	...........	1583.05
	618	6.18	5.52747E-002	-1.23011E-003	0.00000E+000	-3.70030E-001	0.00000E+000	10	...........	1583.05
	619	6.19	5.37908E-002	-1.23008E-003	0.00000E+000	-3.70030E-001	0.00000E+000	10	...........	1583.05
	620	6.2	5.23136E-002	-1.23009E-003	0.00000E+000	-3.70030E-001	0.00000E+000	10	...........	1583.05
	621	6.21	5.08409E-002	-1.23011E-003	0.00000E+000	-3.70030E-001	0.00000E+000	10	...........	1583.05
	622	6.22	4.93746E-002	-1.23008E-003	0.00000E+000	-3.70030E-001	0.00000E+000	10	...........	1583.05
	623	6.23	4.79131E-002	-1.23005E-003	0.00000E+000	-3.70030E-001	0.00000E+000	10	...........	1583.05
	624	6.24	4.64539E-002	-1.23006E-003	0.00000E+000	-3.70030E-001	0.00000E+000	10	...........	1583.05
	625	6.25	4.50048E-002	-1.23007E-003	0.00000E+000	-3.70030E-001	0.00000E+000	10	...........	1583.05
	626	6.26	4.35547E-002	-1.23007E-003	0.00000E+000	-3.70030E-001	0.00000E+000	10	...........	1583.05
	627	6.27	4.21091E-002	-1.23005E-003	0.00000E+000	-3.70030E-001	0.00000E+000	10	...........	1583.05
	628	6.28	4.06718E-002	-1.22999E-003	0.00000E+000	-3.70030E-001	0.00000E+000	10	...........	1583.05
	629	6.29	3.92364E-002	-1.23001E-003	0.00000E+000	-3.70030E-001	0.00000E+000	10	...........	1583.05
	630	6.3	3.78052E-002	-1.23008E-003	0.00000E+000	-3.70030E-001	0.00000E+000	10	...........	1583.05
	631	6.31	3.63832E-002	-1.23005E-003	0.00000E+000	-3.70030E-001	0.00000E+000	10	...........	1583.05
	632	6.32	3.49606E-002	-1.23006E-003	0.00000E+000	-3.70030E-001	0.00000E+000	10	...........	1583.05
	633	6.33	3.35470E-002	-1.23009E-003	0.00000E+000	-3.70030E-001	0.00000E+000	10	...........	1583.05
	634	6.34	3.21370E-002	-1.23002E-003	0.00000E+000	-3.70030E-001	0.00000E+000	10	...........	1583.05
	635	6.35	3.07327E-002	-1.23004E-003	0.00000E+000	-3.70030E-001	0.00000E+000	10	...........	1583.05
	636	6.36	2.93306E-002	-1.23004E-003	0.00000E+000	-3.70030E-001	0.00000E+000	10	...........	1583.05
	637	6.37	2.79292E-002	-1.23003E-003	0.00000E+000	-3.70030E-001	0.00000E+000	10	...........	1583.05
	638	6.38	2.65350E-002	-1.23005E-003	0.00000E+000	-3.70030E-001	0.00000E+000	10	...........	1583.05
	639	6.39	2.51450E-002	-1.23006E-003	0.00000E+000	-3.70030E-001	0.00000E+000	10	...........	1583.05
	640	6.4	2.37634E-002	-1.23004E-003	0.00000E+000	-3.70030E-001	0.00000E+000	10	...........	1583.05
	641	6.41	2.23885E-002	-1.23003E-003	0.00000E+000	-3.70030E-001	0.00000E+000	10	...........	1583.05
	642	6.42	2.10115E-002	-1.23007E-003	0.00000E+000	-3.70030E-001	0.00000E+000	10	...........	1583.05
	643	6.43	1.96420E-002	-1.23006E-003	0.00000E+000	-3.70030E-001	0.00000E+000	10	...........	1583.05
	644	6.44	1.82750E-002	-1.23009E-003	0.00000E+000	-3.70030E-001	0.00000E+000	10	...........	1583.05
	645	6.45	1.69143E-002	-1.23004E-003	0.00000E+000	-3.70030E-001	0.00000E+000	10	...........	1583.15
	646	6.46	1.55570E-002	-1.23013E-003	0.00000E+000	-3.70030E-001	0.00000E+000	10	...........	1583.15
	647	6.47	1.42065E-002	-1.23007E-003	0.00000E+000	-3.70030E-001	0.00000E+000	10	...........	1583.15
	648	6.48	1.28558E-002	-1.23004E-003	0.00000E+000	-3.70030E-001	0.00000E+000	10	...........	1583.15
	649	6.49	1.15116E-002	-1.23001E-003	0.00000E+000	-3.70030E-001	0.00000E+000	10	...........	1583.15
	650	6.5	1.01734E-002	-1.23002E-003	0.00000E+000	-3.70030E-001	0.00000E+000	10	...........	1583.15
	651	6.51	8.83708E-003	-1.23005E-003	0.00000E+000	-3.70030E-001	0.00000E+000	10	...........	1583.15
	652	6.52	7.50377E-003	-1.23004E-003	0.00000E+000	-3.70030E-001	0.00000E+000	10	...........	1583.15
	653	6.53	6.17968E-003	-1.23006E-003	0.00000E+000	-3.70030E-001	0.00000E+000	10	...........	1583.15
	654	6.54	4.85592E-003	-1.23010E-003	0.00000E+000	-3.70030E-001	0.00000E+000	10	...........	1583.15
	655	6.55	3.53625E-003	-1.23008E-003	0.00000E+000	-3.70030E-001	0.00000E+000	10	...........	1583.15
	656	6.56	2.22593E-003	-1.23007E-003	0.00000E+000	-3.70030E-001	0.00000E+000	10	...........	1583.15
	657	6.57	9.14675E-004	-1.23009E-003	0.00000E+000	-3.70030E-001	0.00000E+000	10	...........	1583.15
	658	6.58	-3.91716E-004	-1.23006E-003	0.00000E+000	-3.70030E-001	0.00000E+000	10	...........	1583.15
