EXPLAIN
TAG	CORPOT
TITLE	LABEL	Open Circuit Potential	Test Identifier
DATE	LABEL	23/6/2025	Date
TIME	LABEL	11:44:13	Time
NOTES	NOTES	1	Notes...
	
PSTAT	PSTAT	IFC1000-07087	Potentiostat
TIMEOUT	QUANT	1.20000E+002	Total Time (s)
SAMPLETIME	QUANT	5.00000E-001	Sample Period (s)
STABILITY	QUANT	0.00000E+000	Stability (mV/s)
AREA	QUANT	1.00000E+000	Sample Area (cm^2)
SEQUENCER	TOGGLE	TRUE	Run as Sequence
PSTATMODEL	IQUANT	48	Pstat Model
PSTATSECTION	LABEL	IFC1000-07087	Pstat Section
PSTATSERIALNO	LABEL	07087	Pstat Serial Number
CTRLMODE	IQUANT	1	Control Mode
ELECTROMETER	IQUANT	0	RE=0 or CS=1
IESTAB	IQUANT	2	I/E Stability
CASPEED	IQUANT	4	Control Amp Speed
CONVENTION	IQUANT	1	Current Convention
ICHRANGE	IQUANT	2	Ich Range
ICHRANGEMODE	TOGGLE	T	Ich Auto Range
ICHOFFSETENABLE	TOGGLE	F	Ich Offset Enable
ICHOFFSET	QUANT	0	Ich Offset (V)
ICHFILTER	IQUANT	4	Ich Filter
VCHRANGE	IQUANT	3	Vch Range
VCHRANGEMODE	TOGGLE	T	Vch Auto Range
VCHOFFSETENABLE	TOGGLE	F	Vch Offset Enable
VCHOFFSET	QUANT	0	Vch Offset (V)
VCHFILTER	IQUANT	4	Vch Filter
IERANGELOWERLIMIT	IQUANT	4	I/E Range Lower Limit
IERANGEMODE	TOGGLE	F	I/E AutoRange
IERANGE	IQUANT	11	I/E Range
ACHSELECT	IQUANT	0	Ach Select
ACHRANGE	IQUANT	2	Ach Range
ACHOFFSETENABLE	TOGGLE	F	Ach Offset Enable
ACHOFFSET	QUANT	0	Ach Offset (V)
ACHFILTER	IQUANT	1	Ach Filter
SENSECABLEID	IQUANT	14	Sense Cable ID
PWRCABLEID	IQUANT	14	Power Cable ID
DCCALDATE	LABEL	2/11/2025	DC Calibration Date
ACCALDATE	LABEL	7/17/2019	AC Calibration Date
FRAMEWORKVERSION	LABEL	7.10.3	Framework Version
INSTRUMENTVERSION	LABEL	4.91	Instrument Version
COMMVERSION	LABEL	3.10	Communications Version
CPUPLDVERSION	LABEL	1.10	CPU PLD Version
CTRLPLDVERSION	LABEL	0.00	CTRL PLD Version
PSTATPLDVERSION	LABEL	0.00	PSTAT PLD Version
CURVE	TABLE	236
	Pt	T	Vf	Vm	Ach	Over	Temp
	#	s	V vs. Ref.	V	V	bits	deg C
	0	0.508333	4.42888E-001	4.42888E-001	0.00000E+000	...........	 0.00
	1	1.01667	4.42524E-001	4.23863E-001	0.00000E+000	...........	 0.00
	2	1.525	4.40371E-001	4.09912E-001	0.00000E+000	...........	 0.00
	3	2.03333	4.34586E-001	3.99105E-001	0.00000E+000	...........	 0.00
	4	2.54167	4.24987E-001	3.90434E-001	0.00000E+000	...........	 0.00
	5	3.05	4.13479E-001	3.83299E-001	0.00000E+000	...........	 0.00
	6	3.55833	4.02304E-001	3.77318E-001	0.00000E+000	...........	 0.00
	7	4.06667	3.92682E-001	3.72206E-001	0.00000E+000	...........	 0.00
	8	4.575	3.84809E-001	3.67766E-001	0.00000E+000	...........	 0.00
	9	5.08333	3.78386E-001	3.63872E-001	0.00000E+000	...........	 0.00
	10	5.59167	3.73035E-001	3.60434E-001	0.00000E+000	...........	 0.00
	11	6.1	3.68461E-001	3.57319E-001	0.00000E+000	...........	 0.00
	12	6.60833	3.64470E-001	3.54511E-001	0.00000E+000	...........	 0.00
	13	7.11667	3.60934E-001	3.51955E-001	0.00000E+000	...........	 0.00
	14	7.625	3.57768E-001	3.49642E-001	0.00000E+000	...........	 0.00
	15	8.13333	3.54910E-001	3.47493E-001	0.00000E+000	...........	 0.00
	16	8.64167	3.52317E-001	3.45496E-001	0.00000E+000	...........	 0.00
	17	9.15	3.49947E-001	3.43634E-001	0.00000E+000	...........	 0.00
	18	9.6583	3.47766E-001	3.41893E-001	0.00000E+000	...........	 0.00
	19	10.1667	3.45746E-001	3.40261E-001	0.00000E+000	...........	 0.00
	20	10.675	3.43864E-001	3.38680E-001	0.00000E+000	...........	 0.00
	21	11.1833	3.42101E-001	3.37188E-001	0.00000E+000	...........	 0.00
	22	11.6917	3.40437E-001	3.35762E-001	0.00000E+000	...........	 0.00
	23	12.2	3.38858E-001	3.34407E-001	0.00000E+000	...........	 0.00
	24	12.7083	3.37353E-001	3.33025E-001	0.00000E+000	...........	 0.00
	25	13.2167	3.35912E-001	3.31736E-001	0.00000E+000	...........	 0.00
	26	13.725	3.34522E-001	3.30521E-001	0.00000E+000	...........	 0.00
	27	14.2333	3.33179E-001	3.29333E-001	0.00000E+000	...........	 0.00
	28	14.7417	3.31887E-001	3.28184E-001	0.00000E+000	...........	 0.00
	29	15.25	3.30646E-001	3.27053E-001	0.00000E+000	...........	 0.00
	30	15.7583	3.29449E-001	3.25948E-001	0.00000E+000	...........	 0.00
	31	16.2667	3.28289E-001	3.24872E-001	0.00000E+000	...........	 0.00
	32	16.775	3.27158E-001	3.23830E-001	0.00000E+000	...........	 0.00
	33	17.2833	3.26055E-001	3.22807E-001	0.00000E+000	...........	 0.00
	34	17.7917	3.24978E-001	3.21814E-001	0.00000E+000	...........	 0.00
	35	18.3	3.23929E-001	3.20856E-001	0.00000E+000	...........	 0.00
	36	18.8083	3.22907E-001	3.19870E-001	0.00000E+000	...........	 0.00
	37	19.3167	3.21908E-001	3.18925E-001	0.00000E+000	...........	 0.00
	38	19.825	3.20928E-001	3.17995E-001	0.00000E+000	...........	 0.00
	39	20.3333	3.19963E-001	3.17096E-001	0.00000E+000	...........	 0.00
	40	20.8417	3.19015E-001	3.16190E-001	0.00000E+000	...........	 0.00
	41	21.35	3.18084E-001	3.15300E-001	0.00000E+000	...........	 0.00
	42	21.8583	3.17169E-001	3.14416E-001	0.00000E+000	...........	 0.00
	43	22.3667	3.16267E-001	3.13522E-001	0.00000E+000	...........	 0.00
	44	22.875	3.15372E-001	3.12639E-001	0.00000E+000	...........	 0.00
	45	23.3833	3.14482E-001	3.11758E-001	0.00000E+000	...........	 0.00
	46	23.8917	3.13595E-001	3.10896E-001	0.00000E+000	...........	 0.00
	47	24.4	3.12713E-001	3.10050E-001	0.00000E+000	...........	 0.00
	48	24.9083	3.11839E-001	3.09225E-001	0.00000E+000	...........	 0.00
	49	25.4167	3.10977E-001	3.08390E-001	0.00000E+000	...........	 0.00
	50	25.925	3.10127E-001	3.07533E-001	0.00000E+000	...........	 0.00
	51	26.4333	3.09285E-001	3.06706E-001	0.00000E+000	...........	 0.00
	52	26.9417	3.08447E-001	3.05903E-001	0.00000E+000	...........	 0.00
	53	27.45	3.07612E-001	3.05082E-001	0.00000E+000	...........	 0.00
	54	27.9583	3.06784E-001	3.04294E-001	0.00000E+000	...........	 0.00
	55	28.4667	3.05966E-001	3.03495E-001	0.00000E+000	...........	 0.00
	56	28.975	3.05157E-001	3.02691E-001	0.00000E+000	...........	 0.00
	57	29.4833	3.04354E-001	3.01898E-001	0.00000E+000	...........	 0.00
	58	29.9917	3.03555E-001	3.01104E-001	0.00000E+000	...........	 0.00
	59	30.5	3.02757E-001	3.00326E-001	0.00000E+000	...........	 0.00
	60	31.0083	3.01963E-001	2.99554E-001	0.00000E+000	...........	 0.00
	61	31.5167	3.01174E-001	2.98777E-001	0.00000E+000	...........	 0.00
	62	32.025	3.00391E-001	2.97985E-001	0.00000E+000	...........	 0.00
	63	32.5333	2.99611E-001	2.97217E-001	0.00000E+000	...........	 0.00
	64	33.0417	2.98832E-001	2.96439E-001	0.00000E+000	...........	 0.00
	65	33.55	2.98054E-001	2.95675E-001	0.00000E+000	...........	 0.00
	66	34.0583	2.97277E-001	2.94867E-001	0.00000E+000	...........	 0.00
	67	34.5667	2.96499E-001	2.94065E-001	0.00000E+000	...........	 0.00
	68	35.075	2.95716E-001	2.93273E-001	0.00000E+000	...........	 0.00
	69	35.5833	2.94927E-001	2.92490E-001	0.00000E+000	...........	 0.00
	70	36.0917	2.94134E-001	2.91734E-001	0.00000E+000	...........	 0.00
	71	36.6	2.93345E-001	2.90958E-001	0.00000E+000	...........	 0.00
	72	37.1083	2.92563E-001	2.90196E-001	0.00000E+000	...........	 0.00
	73	37.6167	2.91790E-001	2.89431E-001	0.00000E+000	...........	 0.00
	74	38.125	2.91021E-001	2.88661E-001	0.00000E+000	...........	 0.00
	75	38.6333	2.90254E-001	2.87873E-001	0.00000E+000	...........	 0.00
	76	39.1417	2.89485E-001	2.87094E-001	0.00000E+000	...........	 0.00
	77	39.65	2.88712E-001	2.86305E-001	0.00000E+000	...........	 0.00
	78	40.1583	2.87934E-001	2.85524E-001	0.00000E+000	...........	 0.00
	79	40.6667	2.87152E-001	2.84729E-001	0.00000E+000	...........	 0.00
	80	41.175	2.86367E-001	2.83952E-001	0.00000E+000	...........	 0.00
	81	41.6833	2.85582E-001	2.83164E-001	0.00000E+000	...........	 0.00
	82	42.1917	2.84796E-001	2.82382E-001	0.00000E+000	...........	 0.00
	83	42.7	2.84011E-001	2.81600E-001	0.00000E+000	...........	 0.00
	84	43.2083	2.83227E-001	2.80819E-001	0.00000E+000	...........	 0.00
	85	43.7167	2.82444E-001	2.80040E-001	0.00000E+000	...........	 0.00
	86	44.225	2.81662E-001	2.79256E-001	0.00000E+000	...........	 0.00
	87	44.7333	2.80880E-001	2.78471E-001	0.00000E+000	...........	 0.00
	88	45.2417	2.80099E-001	2.77716E-001	0.00000E+000	...........	 0.00
	89	45.75	2.79319E-001	2.76940E-001	0.00000E+000	...........	 0.00
	90	46.2583	2.78543E-001	2.76152E-001	0.00000E+000	...........	 0.00
	91	46.7667	2.77768E-001	2.75372E-001	0.00000E+000	...........	 0.00
	92	47.275	2.76992E-001	2.74585E-001	0.00000E+000	...........	 0.00
	93	47.7833	2.76213E-001	2.73786E-001	0.00000E+000	...........	 0.00
	94	48.2917	2.75429E-001	2.73005E-001	0.00000E+000	...........	 0.00
	95	48.8	2.74642E-001	2.72232E-001	0.00000E+000	...........	 0.00
	96	49.3083	2.73856E-001	2.71455E-001	0.00000E+000	...........	 0.00
	97	49.8167	2.73072E-001	2.70674E-001	0.00000E+000	...........	 0.00
	98	50.325	2.72292E-001	2.69908E-001	0.00000E+000	...........	 0.00
	99	50.8333	2.71514E-001	2.69099E-001	0.00000E+000	...........	 0.00
	100	51.3417	2.70735E-001	2.68318E-001	0.00000E+000	...........	 0.00
	101	51.85	2.69953E-001	2.67531E-001	0.00000E+000	...........	 0.00
	102	52.3583	2.69167E-001	2.66746E-001	0.00000E+000	...........	 0.00
	103	52.8667	2.68380E-001	2.65961E-001	0.00000E+000	...........	 0.00
	104	53.375	2.67593E-001	2.65167E-001	0.00000E+000	...........	 0.00
	105	53.8833	2.66807E-001	2.64383E-001	0.00000E+000	...........	 0.00
	106	54.3917	2.66019E-001	2.63593E-001	0.00000E+000	...........	 0.00
	107	54.9	2.65231E-001	2.62807E-001	0.00000E+000	...........	 0.00
	108	55.4083	2.64443E-001	2.62015E-001	0.00000E+000	...........	 0.00
	109	55.9167	2.63655E-001	2.61236E-001	0.00000E+000	...........	 0.00
	110	56.425	2.62867E-001	2.60455E-001	0.00000E+000	...........	 0.00
	111	56.9333	2.62081E-001	2.59660E-001	0.00000E+000	...........	 0.00
	112	57.4417	2.61296E-001	2.58864E-001	0.00000E+000	...........	 0.00
	113	57.95	2.60509E-001	2.58072E-001	0.00000E+000	...........	 0.00
	114	58.4583	2.59719E-001	2.57279E-001	0.00000E+000	...........	 0.00
	115	58.9667	2.58927E-001	2.56464E-001	0.00000E+000	...........	 0.00
	116	59.475	2.58131E-001	2.55657E-001	0.00000E+000	...........	 0.00
	117	59.9833	2.57331E-001	2.54845E-001	0.00000E+000	...........	 0.00
	118	60.4917	2.56527E-001	2.54053E-001	0.00000E+000	...........	 0.00
	119	61	2.55721E-001	2.53249E-001	0.00000E+000	...........	 0.00
	120	61.5083	2.54916E-001	2.52448E-001	0.00000E+000	...........	 0.00
	121	62.0167	2.54113E-001	2.51648E-001	0.00000E+000	...........	 0.00
	122	62.525	2.53311E-001	2.50841E-001	0.00000E+000	...........	 0.00
	123	63.0333	2.52510E-001	2.50036E-001	0.00000E+000	...........	 0.00
	124	63.5417	2.51707E-001	2.49222E-001	0.00000E+000	...........	 0.00
	125	64.05	2.50903E-001	2.48431E-001	0.00000E+000	...........	 0.00
	126	64.5583	2.50097E-001	2.47627E-001	0.00000E+000	...........	 0.00
	127	65.0667	2.49293E-001	2.46806E-001	0.00000E+000	...........	 0.00
	128	65.575	2.48488E-001	2.45999E-001	0.00000E+000	...........	 0.00
	129	66.0833	2.47681E-001	2.45176E-001	0.00000E+000	...........	 0.00
	130	66.5917	2.46871E-001	2.44352E-001	0.00000E+000	...........	 0.00
	131	67.1	2.46055E-001	2.43489E-001	0.00000E+000	...........	 0.00
	132	67.6083	2.45238E-001	2.42910E-001	0.00000E+000	...........	 0.00
	133	68.1167	2.44431E-001	2.42074E-001	0.00000E+000	...........	 0.00
	134	68.625	2.43650E-001	2.41241E-001	0.00000E+000	...........	 0.00
	135	69.1333	2.42881E-001	2.40412E-001	0.00000E+000	...........	 0.00
	136	69.6417	2.42101E-001	2.39586E-001	0.00000E+000	...........	 0.00
	137	70.15	2.41299E-001	2.38747E-001	0.00000E+000	...........	 0.00
	138	70.6583	2.40478E-001	2.37910E-001	0.00000E+000	...........	 0.00
	139	71.1667	2.39647E-001	2.37068E-001	0.00000E+000	...........	 0.00
	140	71.675	2.38811E-001	2.36194E-001	0.00000E+000	...........	 0.00
	141	72.1833	2.37969E-001	2.35334E-001	0.00000E+000	...........	 0.00
	142	72.6917	2.37120E-001	2.34489E-001	0.00000E+000	...........	 0.00
	143	73.2	2.36265E-001	2.33648E-001	0.00000E+000	...........	 0.00
	144	73.7083	2.35411E-001	2.32804E-001	0.00000E+000	...........	 0.00
	145	74.2167	2.34560E-001	2.31969E-001	0.00000E+000	...........	 0.00
	146	74.725	2.33715E-001	2.31145E-001	0.00000E+000	...........	 0.00
	147	75.2333	2.32875E-001	2.30325E-001	0.00000E+000	...........	 0.00
	148	75.7417	2.32041E-001	2.29506E-001	0.00000E+000	...........	 0.00
	149	76.25	2.31213E-001	2.28683E-001	0.00000E+000	...........	 0.00
	150	76.7583	2.30389E-001	2.27868E-001	0.00000E+000	...........	 0.00
	151	77.2667	2.29569E-001	2.27050E-001	0.00000E+000	...........	 0.00
	152	77.775	2.28749E-001	2.26236E-001	0.00000E+000	...........	 0.00
	153	78.2833	2.27932E-001	2.25425E-001	0.00000E+000	...........	 0.00
	154	78.7917	2.27116E-001	2.24609E-001	0.00000E+000	...........	 0.00
	155	79.3	2.26301E-001	2.23791E-001	0.00000E+000	...........	 0.00
	156	79.8083	2.25486E-001	2.22980E-001	0.00000E+000	...........	 0.00
	157	80.3167	2.24672E-001	2.22169E-001	0.00000E+000	...........	 0.00
	158	80.825	2.23858E-001	2.21359E-001	0.00000E+000	...........	 0.00
	159	81.3333	2.23045E-001	2.20556E-001	0.00000E+000	...........	 0.00
	160	81.8417	2.22234E-001	2.19742E-001	0.00000E+000	...........	 0.00
	161	82.35	2.21424E-001	2.18929E-001	0.00000E+000	...........	 0.00
	162	82.8583	2.20615E-001	2.18123E-001	0.00000E+000	...........	 0.00
	163	83.3667	2.19805E-001	2.17316E-001	0.00000E+000	...........	 0.00
	164	83.875	2.18995E-001	2.16497E-001	0.00000E+000	...........	 0.00
	165	84.3833	2.18185E-001	2.15679E-001	0.00000E+000	...........	 0.00
	166	84.8917	2.17373E-001	2.14857E-001	0.00000E+000	...........	 0.00
	167	85.4	2.16558E-001	2.14037E-001	0.00000E+000	...........	 0.00
	168	85.9083	2.15741E-001	2.13218E-001	0.00000E+000	...........	 0.00
	169	86.4167	2.14921E-001	2.12395E-001	0.00000E+000	...........	 0.00
	170	86.925	2.14101E-001	2.11582E-001	0.00000E+000	...........	 0.00
	171	87.4333	2.13281E-001	2.10756E-001	0.00000E+000	...........	 0.00
	172	87.9417	2.12461E-001	2.09936E-001	0.00000E+000	...........	 0.00
	173	88.45	2.11642E-001	2.09128E-001	0.00000E+000	...........	 0.00
	174	88.9583	2.10822E-001	2.08314E-001	0.00000E+000	...........	 0.00
	175	89.4667	2.10005E-001	2.07508E-001	0.00000E+000	...........	 0.00
	176	89.975	2.09191E-001	2.06695E-001	0.00000E+000	...........	 0.00
	177	90.4833	2.08379E-001	2.05892E-001	0.00000E+000	...........	 0.00
	178	90.9917	2.07570E-001	2.05087E-001	0.00000E+000	...........	 0.00
	179	91.5	2.06761E-001	2.04282E-001	0.00000E+000	...........	 0.00
	180	92.0083	2.05955E-001	2.03482E-001	0.00000E+000	...........	 0.00
	181	92.5167	2.05150E-001	2.02689E-001	0.00000E+000	...........	 0.00
	182	93.025	2.04348E-001	2.01903E-001	0.00000E+000	...........	 0.00
	183	93.5333	2.03549E-001	2.01116E-001	0.00000E+000	...........	 0.00
	184	94.0417	2.02755E-001	2.00328E-001	0.00000E+000	...........	 0.00
	185	94.55	2.01965E-001	1.99536E-001	0.00000E+000	...........	 0.00
	186	95.058	2.01176E-001	1.98737E-001	0.00000E+000	...........	 0.00
	187	95.567	2.00386E-001	1.97946E-001	0.00000E+000	...........	 0.00
	188	96.075	1.99594E-001	1.97156E-001	0.00000E+000	...........	 0.00
	189	96.583	1.98801E-001	1.96340E-001	0.00000E+000	...........	 0.00
	190	97.092	1.98006E-001	1.95520E-001	0.00000E+000	...........	 0.00
	191	97.6	1.97205E-001	1.94707E-001	0.00000E+000	...........	 0.00
	192	98.108	1.96398E-001	1.93892E-001	0.00000E+000	...........	 0.00
	193	98.617	1.95586E-001	1.93073E-001	0.00000E+000	...........	 0.00
	194	99.125	1.94771E-001	1.92266E-001	0.00000E+000	...........	 0.00
	195	99.633	1.93956E-001	1.91465E-001	0.00000E+000	...........	 0.00
	196	100.142	1.93143E-001	1.90664E-001	0.00000E+000	...........	 0.00
	197	100.65	1.92333E-001	1.89851E-001	0.00000E+000	...........	 0.00
	198	101.158	1.91527E-001	1.89038E-001	0.00000E+000	...........	 0.00
	199	101.667	1.90720E-001	1.88232E-001	0.00000E+000	...........	 0.00
	200	102.175	1.89913E-001	1.87432E-001	0.00000E+000	...........	 0.00
	201	102.683	1.89105E-001	1.86635E-001	0.00000E+000	...........	 0.00
	202	103.192	1.88299E-001	1.85840E-001	0.00000E+000	...........	 0.00
	203	103.7	1.87497E-001	1.85045E-001	0.00000E+000	...........	 0.00
	204	104.208	1.86698E-001	1.84249E-001	0.00000E+000	...........	 0.00
	205	104.717	1.85902E-001	1.83453E-001	0.00000E+000	...........	 0.00
	206	105.225	1.85106E-001	1.82660E-001	0.00000E+000	...........	 0.00
	207	105.733	1.84311E-001	1.81867E-001	0.00000E+000	...........	 0.00
	208	106.242	1.83516E-001	1.81081E-001	0.00000E+000	...........	 0.00
	209	106.75	1.82723E-001	1.80297E-001	0.00000E+000	...........	 0.00
	210	107.258	1.81932E-001	1.79513E-001	0.00000E+000	...........	 0.00
	211	107.767	1.81144E-001	1.78742E-001	0.00000E+000	...........	 0.00
	212	108.275	1.80360E-001	1.77972E-001	0.00000E+000	...........	 0.00
	213	108.783	1.79580E-001	1.77209E-001	0.00000E+000	...........	 0.00
	214	109.292	1.78805E-001	1.76441E-001	0.00000E+000	...........	 0.00
	215	109.8	1.78035E-001	1.75676E-001	0.00000E+000	...........	 0.00
	216	110.308	1.77267E-001	1.74912E-001	0.00000E+000	...........	 0.00
	217	110.817	1.76501E-001	1.74160E-001	0.00000E+000	...........	 0.00
	218	111.325	1.75738E-001	1.73411E-001	0.00000E+000	...........	 0.00
	219	111.833	1.74978E-001	1.72668E-001	0.00000E+000	...........	 0.00
	220	112.342	1.74223E-001	1.71915E-001	0.00000E+000	...........	 0.00
	221	112.85	1.73471E-001	1.71161E-001	0.00000E+000	...........	 0.00
	222	113.358	1.72722E-001	1.70418E-001	0.00000E+000	...........	 0.00
	223	113.867	1.71972E-001	1.69676E-001	0.00000E+000	...........	 0.00
	224	114.375	1.71224E-001	1.68944E-001	0.00000E+000	...........	 0.00
	225	114.883	1.70479E-001	1.68212E-001	0.00000E+000	...........	 0.00
	226	115.392	1.69739E-001	1.67479E-001	0.00000E+000	...........	 0.00
	227	115.9	1.69002E-001	1.66744E-001	0.00000E+000	...........	 0.00
	228	116.408	1.68268E-001	1.66006E-001	0.00000E+000	...........	 0.00
	229	116.917	1.67534E-001	1.65276E-001	0.00000E+000	...........	 0.00
	230	117.425	1.66800E-001	1.64548E-001	0.00000E+000	...........	 0.00
	231	117.933	1.66067E-001	1.63826E-001	0.00000E+000	...........	 0.00
	232	118.442	1.65336E-001	1.63105E-001	0.00000E+000	...........	 0.00
	233	118.95	1.64608E-001	1.62387E-001	0.00000E+000	...........	 0.00
	234	119.458	1.63884E-001	1.61674E-001	0.00000E+000	...........	 0.00
	235	119.967	1.63164E-001	1.60971E-001	0.00000E+000	...........	 0.00
