EXPLAIN
TAG	CHRONOP
TITLE	LABEL	Chronopotentiometry Scan	Test Identifier
DATE	LABEL	22/1/2025	Date
TIME	LABEL	22:31:55	Time
NOTES	NOTES	1	Notes...
	
PSTAT	PSTAT	IFC1010-42004	Potentiostat
IPRESTEP	QUANT	0.00000E+000	Pre-step Current(A)
TPRESTEP	QUANT	0.00000E+000	Pre-step Delay Time (s)
ISTEP1	QUANT	1.23000E-003	Step 1 Current (A)
TSTEP1	QUANT	5.00000E+003	Step 1 Time (s)
ISTEP2	QUANT	-1.23000E-003	Step 2 Current (A)
TSTEP2	QUANT	5.00000E+003	Step 2 Time (s)
SAMPLETIME	QUANT	1.00000E-002	Sample Period (s)
DECIMATE	TOGGLE	F	Decimate
VLIMITLOWER	QUANT	0.00000E+000	Lower Limit V (V)
VLIMITUPPER	QUANT	8.00000E-001	Upper Limit V (V)
EQDELAY	QUANT	1.00000E+000	Equil. Time (s)
SAMPLINGMODE	SELECTOR	1	Sampling Mode
AREA	QUANT	2.00000E+000	Sample Area (cm^2)
ELECTRODETYPE	SELECTOR	0	Electrode Type
STRIPPING	TOGGLE	F	Used for Stripping
SEQUENCER	TOGGLE	TRUE	Run as Sequence
PSTATMODEL	IQUANT	64	Pstat Model
PSTATSECTION	LABEL	IFC1010-42004	Pstat Section
PSTATSERIALNO	LABEL	42004	Pstat Serial Number
CTRLMODE	IQUANT	0	Control Mode
ELECTROMETER	IQUANT	0	RE=0 or CS=1
IESTAB	IQUANT	0	I/E Stability
CASPEED	IQUANT	4	Control Amp Speed
CONVENTION	IQUANT	1	Current Convention
ICHRANGE	IQUANT	2	Ich Range
ICHRANGEMODE	TOGGLE	T	Ich Auto Range
ICHOFFSETENABLE	TOGGLE	F	Ich Offset Enable
ICHOFFSET	QUANT	0	Ich Offset (V)
ICHFILTER	IQUANT	3	Ich Filter
VCHRANGE	IQUANT	3	Vch Range
VCHRANGEMODE	TOGGLE	T	Vch Auto Range
VCHOFFSETENABLE	TOGGLE	F	Vch Offset Enable
VCHOFFSET	QUANT	0	Vch Offset (V)
VCHFILTER	IQUANT	3	Vch Filter
IERANGELOWERLIMIT	IQUANT	4	I/E Range Lower Limit
IERANGEMODE	TOGGLE	F	I/E AutoRange
IERANGE	IQUANT	11	I/E Range
ACHSELECT	IQUANT	0	Ach Select
ACHRANGE	IQUANT	2	Ach Range
ACHOFFSETENABLE	TOGGLE	F	Ach Offset Enable
ACHOFFSET	QUANT	0	Ach Offset (V)
ACHFILTER	IQUANT	1	Ach Filter
SENSECABLEID	IQUANT	14	Sense Cable ID
PWRCABLEID	IQUANT	14	Power Cable ID
DCCALDATE	LABEL	1/22/2025	DC Calibration Date
ACCALDATE	LABEL	11/15/2024	AC Calibration Date
FRAMEWORKVERSION	LABEL	7.10.4	Framework Version
INSTRUMENTVERSION	LABEL	4.91	Instrument Version
COMMVERSION	LABEL	3.10	Communications Version
CPUPLDVERSION	LABEL	2.54	CPU PLD Version
CTRLPLDVERSION	LABEL	0.00	CTRL PLD Version
PSTATPLDVERSION	LABEL	0.00	PSTAT PLD Version
CURVE	TABLE	673
	Pt	T	Vf	Im	Vu	Sig	Ach	IERange	Over	Temp
	#	s	V vs. Ref.	A	V	V	V	#	bits	deg C
	0	0	2.29580E-001	-9.43307E-008	0.00000E+000	0.00000E+000	0.00000E+000	10	...........	1583.73
	1	0.01	2.42179E-001	1.22961E-003	0.00000E+000	3.70030E-001	0.00000E+000	10	...........	1583.73
	2	0.02	2.44754E-001	1.22969E-003	0.00000E+000	3.70030E-001	0.00000E+000	10	...........	1583.73
	3	0.03	2.47033E-001	1.22967E-003	0.00000E+000	3.70030E-001	0.00000E+000	10	...........	1583.73
	4	0.04	2.49234E-001	1.22971E-003	0.00000E+000	3.70030E-001	0.00000E+000	10	...........	1583.73
	5	0.05	2.51385E-001	1.22966E-003	0.00000E+000	3.70030E-001	0.00000E+000	10	...........	1583.73
	6	0.06	2.53511E-001	1.22966E-003	0.00000E+000	3.70030E-001	0.00000E+000	10	...........	1583.73
	7	0.07	2.55621E-001	1.22968E-003	0.00000E+000	3.70030E-001	0.00000E+000	10	...........	1583.73
	8	0.08	2.57720E-001	1.22970E-003	0.00000E+000	3.70030E-001	0.00000E+000	10	...........	1583.73
	9	0.09	2.59813E-001	1.22969E-003	0.00000E+000	3.70030E-001	0.00000E+000	10	...........	1583.73
	10	0.1	2.61899E-001	1.22967E-003	0.00000E+000	3.70030E-001	0.00000E+000	10	...........	1583.73
	11	0.11	2.63985E-001	1.22975E-003	0.00000E+000	3.70030E-001	0.00000E+000	10	...........	1583.73
	12	0.12	2.66063E-001	1.22973E-003	0.00000E+000	3.70030E-001	0.00000E+000	10	...........	1583.73
	13	0.13	2.68143E-001	1.22974E-003	0.00000E+000	3.70030E-001	0.00000E+000	10	...........	1583.73
	14	0.14	2.70224E-001	1.22977E-003	0.00000E+000	3.70030E-001	0.00000E+000	10	...........	1583.73
	15	0.15	2.72297E-001	1.22974E-003	0.00000E+000	3.70030E-001	0.00000E+000	10	...........	1583.73
	16	0.16	2.74370E-001	1.22981E-003	0.00000E+000	3.70030E-001	0.00000E+000	10	...........	1583.73
	17	0.17	2.76435E-001	1.22975E-003	0.00000E+000	3.70030E-001	0.00000E+000	10	...........	1583.73
	18	0.18	2.78515E-001	1.22977E-003	0.00000E+000	3.70030E-001	0.00000E+000	10	...........	1583.73
	19	0.19	2.80560E-001	1.22973E-003	0.00000E+000	3.70030E-001	0.00000E+000	10	...........	1583.73
	20	0.2	2.82656E-001	1.22976E-003	0.00000E+000	3.70030E-001	0.00000E+000	10	...........	1583.73
	21	0.21	2.84739E-001	1.22976E-003	0.00000E+000	3.70030E-001	0.00000E+000	10	...........	1583.73
	22	0.22	2.86792E-001	1.22969E-003	0.00000E+000	3.70030E-001	0.00000E+000	10	...........	1583.73
	23	0.23	2.88858E-001	1.22969E-003	0.00000E+000	3.70030E-001	0.00000E+000	10	...........	1583.73
	24	0.24	2.90934E-001	1.22970E-003	0.00000E+000	3.70030E-001	0.00000E+000	10	...........	1583.73
	25	0.25	2.92988E-001	1.22971E-003	0.00000E+000	3.70030E-001	0.00000E+000	10	...........	1583.73
	26	0.26	2.95063E-001	1.22969E-003	0.00000E+000	3.70030E-001	0.00000E+000	10	...........	1583.73
	27	0.27	2.97130E-001	1.22974E-003	0.00000E+000	3.70030E-001	0.00000E+000	10	...........	1583.73
	28	0.28	2.99204E-001	1.22971E-003	0.00000E+000	3.70030E-001	0.00000E+000	10	...........	1583.73
	29	0.29	3.01266E-001	1.22971E-003	0.00000E+000	3.70030E-001	0.00000E+000	10	...........	1583.73
	30	0.3	3.03344E-001	1.22974E-003	0.00000E+000	3.70030E-001	0.00000E+000	10	...........	1583.73
	31	0.31	3.05404E-001	1.22972E-003	0.00000E+000	3.70030E-001	0.00000E+000	10	...........	1583.73
	32	0.32	3.07475E-001	1.22974E-003	0.00000E+000	3.70030E-001	0.00000E+000	10	...........	1583.73
	33	0.33	3.09565E-001	1.22973E-003	0.00000E+000	3.70030E-001	0.00000E+000	10	...........	1583.73
	34	0.34	3.11615E-001	1.22976E-003	0.00000E+000	3.70030E-001	0.00000E+000	10	...........	1583.73
	35	0.35	3.13687E-001	1.22971E-003	0.00000E+000	3.70030E-001	0.00000E+000	10	...........	1583.73
	36	0.36	3.15761E-001	1.22971E-003	0.00000E+000	3.70030E-001	0.00000E+000	10	...........	1583.73
	37	0.37	3.17817E-001	1.22971E-003	0.00000E+000	3.70030E-001	0.00000E+000	10	...........	1583.73
	38	0.38	3.19883E-001	1.22971E-003	0.00000E+000	3.70030E-001	0.00000E+000	10	...........	1583.73
	39	0.39	3.21960E-001	1.22970E-003	0.00000E+000	3.70030E-001	0.00000E+000	10	...........	1583.73
	40	0.4	3.24025E-001	1.22973E-003	0.00000E+000	3.70030E-001	0.00000E+000	10	...........	1583.73
	41	0.41	3.26076E-001	1.22975E-003	0.00000E+000	3.70030E-001	0.00000E+000	10	...........	1583.73
	42	0.42	3.28144E-001	1.22970E-003	0.00000E+000	3.70030E-001	0.00000E+000	10	...........	1583.73
	43	0.43	3.30211E-001	1.22971E-003	0.00000E+000	3.70030E-001	0.00000E+000	10	...........	1583.73
	44	0.44	3.32282E-001	1.22973E-003	0.00000E+000	3.70030E-001	0.00000E+000	10	...........	1583.73
	45	0.45	3.34360E-001	1.22974E-003	0.00000E+000	3.70030E-001	0.00000E+000	10	...........	1583.73
	46	0.46	3.36430E-001	1.22972E-003	0.00000E+000	3.70030E-001	0.00000E+000	10	...........	1583.73
	47	0.47	3.38483E-001	1.22977E-003	0.00000E+000	3.70030E-001	0.00000E+000	10	...........	1583.73
	48	0.48	3.40541E-001	1.22973E-003	0.00000E+000	3.70030E-001	0.00000E+000	10	...........	1583.73
	49	0.49	3.42623E-001	1.22973E-003	0.00000E+000	3.70030E-001	0.00000E+000	10	...........	1583.73
	50	0.5	3.44670E-001	1.22971E-003	0.00000E+000	3.70030E-001	0.00000E+000	10	...........	1583.73
	51	0.51	3.46751E-001	1.22971E-003	0.00000E+000	3.70030E-001	0.00000E+000	10	...........	1583.73
	52	0.52	3.48822E-001	1.22971E-003	0.00000E+000	3.70030E-001	0.00000E+000	10	...........	1583.73
	53	0.53	3.50866E-001	1.22972E-003	0.00000E+000	3.70030E-001	0.00000E+000	10	...........	1583.73
	54	0.54	3.52936E-001	1.22971E-003	0.00000E+000	3.70030E-001	0.00000E+000	10	...........	1583.73
	55	0.55	3.55001E-001	1.22974E-003	0.00000E+000	3.70030E-001	0.00000E+000	10	...........	1583.73
	56	0.56	3.57049E-001	1.22973E-003	0.00000E+000	3.70030E-001	0.00000E+000	10	...........	1583.73
	57	0.57	3.59153E-001	1.22970E-003	0.00000E+000	3.70030E-001	0.00000E+000	10	...........	1583.73
	58	0.58	3.61217E-001	1.22975E-003	0.00000E+000	3.70030E-001	0.00000E+000	10	...........	1583.73
	59	0.59	3.63289E-001	1.22976E-003	0.00000E+000	3.70030E-001	0.00000E+000	10	...........	1583.73
	60	0.6	3.65358E-001	1.22975E-003	0.00000E+000	3.70030E-001	0.00000E+000	10	...........	1583.73
	61	0.61	3.67406E-001	1.22972E-003	0.00000E+000	3.70030E-001	0.00000E+000	10	...........	1583.73
	62	0.62	3.69464E-001	1.22966E-003	0.00000E+000	3.70030E-001	0.00000E+000	10	...........	1583.73
	63	0.63	3.71542E-001	1.22971E-003	0.00000E+000	3.70030E-001	0.00000E+000	10	...........	1583.73
	64	0.64	3.73602E-001	1.22966E-003	0.00000E+000	3.70030E-001	0.00000E+000	10	...........	1583.73
	65	0.65	3.75672E-001	1.22973E-003	0.00000E+000	3.70030E-001	0.00000E+000	10	...........	1583.73
	66	0.66	3.77746E-001	1.22974E-003	0.00000E+000	3.70030E-001	0.00000E+000	10	...........	1583.73
	67	0.67	3.79803E-001	1.22971E-003	0.00000E+000	3.70030E-001	0.00000E+000	10	...........	1583.73
	68	0.68	3.81845E-001	1.22970E-003	0.00000E+000	3.70030E-001	0.00000E+000	10	...........	1583.73
	69	0.69	3.83917E-001	1.22974E-003	0.00000E+000	3.70030E-001	0.00000E+000	10	...........	1583.73
	70	0.7	3.86016E-001	1.22978E-003	0.00000E+000	3.70030E-001	0.00000E+000	10	...........	1583.73
	71	0.71	3.88058E-001	1.22975E-003	0.00000E+000	3.70030E-001	0.00000E+000	10	...........	1583.73
	72	0.72	3.90094E-001	1.22972E-003	0.00000E+000	3.70030E-001	0.00000E+000	10	...........	1583.73
	73	0.73	3.92169E-001	1.22966E-003	0.00000E+000	3.70030E-001	0.00000E+000	10	...........	1583.73
	74	0.74	3.94239E-001	1.22972E-003	0.00000E+000	3.70030E-001	0.00000E+000	10	...........	1583.73
	75	0.75	3.96293E-001	1.22972E-003	0.00000E+000	3.70030E-001	0.00000E+000	10	...........	1583.73
	76	0.76	3.98383E-001	1.22971E-003	0.00000E+000	3.70030E-001	0.00000E+000	10	...........	1583.73
	77	0.77	4.00430E-001	1.22968E-003	0.00000E+000	3.70030E-001	0.00000E+000	10	...........	1583.73
	78	0.78	4.02493E-001	1.22968E-003	0.00000E+000	3.70030E-001	0.00000E+000	10	...........	1583.73
	79	0.79	4.04556E-001	1.22970E-003	0.00000E+000	3.70030E-001	0.00000E+000	10	...........	1583.73
	80	0.8	4.06632E-001	1.22969E-003	0.00000E+000	3.70030E-001	0.00000E+000	10	...........	1583.73
	81	0.81	4.08683E-001	1.22973E-003	0.00000E+000	3.70030E-001	0.00000E+000	10	...........	1583.73
	82	0.82	4.10770E-001	1.22976E-003	0.00000E+000	3.70030E-001	0.00000E+000	10	...........	1583.73
	83	0.83	4.12834E-001	1.22970E-003	0.00000E+000	3.70030E-001	0.00000E+000	10	...........	1583.73
	84	0.84	4.14887E-001	1.22973E-003	0.00000E+000	3.70030E-001	0.00000E+000	10	...........	1583.73
	85	0.85	4.16952E-001	1.22966E-003	0.00000E+000	3.70030E-001	0.00000E+000	10	...........	1583.64
	86	0.86	4.19006E-001	1.22970E-003	0.00000E+000	3.70030E-001	0.00000E+000	10	...........	1583.63
	87	0.87	4.21066E-001	1.22968E-003	0.00000E+000	3.70030E-001	0.00000E+000	10	...........	1583.63
	88	0.88	4.23151E-001	1.22975E-003	0.00000E+000	3.70030E-001	0.00000E+000	10	...........	1583.63
	89	0.89	4.25215E-001	1.22972E-003	0.00000E+000	3.70030E-001	0.00000E+000	10	...........	1583.63
	90	0.9	4.27249E-001	1.22968E-003	0.00000E+000	3.70030E-001	0.00000E+000	10	...........	1583.63
	91	0.91	4.29332E-001	1.22974E-003	0.00000E+000	3.70030E-001	0.00000E+000	10	...........	1583.63
	92	0.92	4.31384E-001	1.22976E-003	0.00000E+000	3.70030E-001	0.00000E+000	10	...........	1583.63
	93	0.93	4.33426E-001	1.22974E-003	0.00000E+000	3.70030E-001	0.00000E+000	10	...........	1583.63
	94	0.94	4.35539E-001	1.22976E-003	0.00000E+000	3.70030E-001	0.00000E+000	10	...........	1583.63
	95	0.95	4.37581E-001	1.22974E-003	0.00000E+000	3.70030E-001	0.00000E+000	10	...........	1583.63
	96	0.96	4.39663E-001	1.22975E-003	0.00000E+000	3.70030E-001	0.00000E+000	10	...........	1583.63
	97	0.97	4.41713E-001	1.22976E-003	0.00000E+000	3.70030E-001	0.00000E+000	10	...........	1583.63
	98	0.98	4.43762E-001	1.22972E-003	0.00000E+000	3.70030E-001	0.00000E+000	10	...........	1583.63
	99	0.99	4.45832E-001	1.22970E-003	0.00000E+000	3.70030E-001	0.00000E+000	10	...........	1583.63
	100	1	4.47884E-001	1.22975E-003	0.00000E+000	3.70030E-001	0.00000E+000	10	...........	1583.63
	101	1.01	4.49952E-001	1.22972E-003	0.00000E+000	3.70030E-001	0.00000E+000	10	...........	1583.63
	102	1.02	4.52032E-001	1.22972E-003	0.00000E+000	3.70030E-001	0.00000E+000	10	...........	1583.63
	103	1.03	4.54081E-001	1.22969E-003	0.00000E+000	3.70030E-001	0.00000E+000	10	...........	1583.63
	104	1.04	4.56157E-001	1.22971E-003	0.00000E+000	3.70030E-001	0.00000E+000	10	...........	1583.63
	105	1.05	4.58222E-001	1.22973E-003	0.00000E+000	3.70030E-001	0.00000E+000	10	...........	1583.63
	106	1.06	4.60274E-001	1.22972E-003	0.00000E+000	3.70030E-001	0.00000E+000	10	...........	1583.63
	107	1.07	4.62382E-001	1.22974E-003	0.00000E+000	3.70030E-001	0.00000E+000	10	...........	1583.63
	108	1.08	4.64426E-001	1.22971E-003	0.00000E+000	3.70030E-001	0.00000E+000	10	...........	1583.63
	109	1.09	4.66468E-001	1.22971E-003	0.00000E+000	3.70030E-001	0.00000E+000	10	...........	1583.63
	110	1.1	4.68529E-001	1.22973E-003	0.00000E+000	3.70030E-001	0.00000E+000	10	...........	1583.63
	111	1.11	4.70588E-001	1.22969E-003	0.00000E+000	3.70030E-001	0.00000E+000	10	...........	1583.63
	112	1.12	4.72651E-001	1.22971E-003	0.00000E+000	3.70030E-001	0.00000E+000	10	...........	1583.63
	113	1.13	4.74717E-001	1.22971E-003	0.00000E+000	3.70030E-001	0.00000E+000	10	...........	1583.63
	114	1.14	4.76789E-001	1.22973E-003	0.00000E+000	3.70030E-001	0.00000E+000	10	...........	1583.63
	115	1.15	4.78842E-001	1.22972E-003	0.00000E+000	3.70030E-001	0.00000E+000	10	...........	1583.63
	116	1.16	4.80904E-001	1.22979E-003	0.00000E+000	3.70030E-001	0.00000E+000	10	...........	1583.63
	117	1.17	4.82984E-001	1.22979E-003	0.00000E+000	3.70030E-001	0.00000E+000	10	...........	1583.63
	118	1.18	4.85044E-001	1.22974E-003	0.00000E+000	3.70030E-001	0.00000E+000	10	...........	1583.63
	119	1.19	4.87132E-001	1.22976E-003	0.00000E+000	3.70030E-001	0.00000E+000	10	...........	1583.63
	120	1.2	4.89171E-001	1.22974E-003	0.00000E+000	3.70030E-001	0.00000E+000	10	...........	1583.63
	121	1.21	4.91238E-001	1.22972E-003	0.00000E+000	3.70030E-001	0.00000E+000	10	...........	1583.63
	122	1.22	4.93315E-001	1.22979E-003	0.00000E+000	3.70030E-001	0.00000E+000	10	...........	1583.63
	123	1.23	4.95358E-001	1.22972E-003	0.00000E+000	3.70030E-001	0.00000E+000	10	...........	1583.63
	124	1.24	4.97420E-001	1.22974E-003	0.00000E+000	3.70030E-001	0.00000E+000	10	...........	1583.63
	125	1.25	4.99484E-001	1.22967E-003	0.00000E+000	3.70030E-001	0.00000E+000	10	...........	1583.63
	126	1.26	5.01535E-001	1.22968E-003	0.00000E+000	3.70030E-001	0.00000E+000	10	...........	1583.63
	127	1.27	5.03595E-001	1.22972E-003	0.00000E+000	3.70030E-001	0.00000E+000	10	...........	1583.63
	128	1.28	5.05686E-001	1.22976E-003	0.00000E+000	3.70030E-001	0.00000E+000	10	...........	1583.63
	129	1.29	5.07731E-001	1.22971E-003	0.00000E+000	3.70030E-001	0.00000E+000	10	...........	1583.63
	130	1.3	5.09784E-001	1.22973E-003	0.00000E+000	3.70030E-001	0.00000E+000	10	...........	1583.63
	131	1.31	5.11852E-001	1.22971E-003	0.00000E+000	3.70030E-001	0.00000E+000	10	...........	1583.63
	132	1.32	5.13919E-001	1.22965E-003	0.00000E+000	3.70030E-001	0.00000E+000	10	...........	1583.63
	133	1.33	5.15972E-001	1.22967E-003	0.00000E+000	3.70030E-001	0.00000E+000	10	...........	1583.63
	134	1.34	5.18024E-001	1.22971E-003	0.00000E+000	3.70030E-001	0.00000E+000	10	...........	1583.63
	135	1.35	5.20086E-001	1.22968E-003	0.00000E+000	3.70030E-001	0.00000E+000	10	...........	1583.63
	136	1.36	5.22146E-001	1.22975E-003	0.00000E+000	3.70030E-001	0.00000E+000	10	...........	1583.63
	137	1.37	5.24196E-001	1.22971E-003	0.00000E+000	3.70030E-001	0.00000E+000	10	...........	1583.63
	138	1.38	5.26268E-001	1.22973E-003	0.00000E+000	3.70030E-001	0.00000E+000	10	...........	1583.63
	139	1.39	5.28326E-001	1.22969E-003	0.00000E+000	3.70030E-001	0.00000E+000	10	...........	1583.63
	140	1.4	5.30382E-001	1.22971E-003	0.00000E+000	3.70030E-001	0.00000E+000	10	...........	1583.63
	141	1.41	5.32429E-001	1.22971E-003	0.00000E+000	3.70030E-001	0.00000E+000	10	...........	1583.63
	142	1.42	5.34477E-001	1.22973E-003	0.00000E+000	3.70030E-001	0.00000E+000	10	...........	1583.63
	143	1.43	5.36546E-001	1.22974E-003	0.00000E+000	3.70030E-001	0.00000E+000	10	...........	1583.63
	144	1.44	5.38624E-001	1.22975E-003	0.00000E+000	3.70030E-001	0.00000E+000	10	...........	1583.63
	145	1.45	5.40668E-001	1.22974E-003	0.00000E+000	3.70030E-001	0.00000E+000	10	...........	1583.63
	146	1.46	5.42741E-001	1.22978E-003	0.00000E+000	3.70030E-001	0.00000E+000	10	...........	1583.63
	147	1.47	5.44798E-001	1.22979E-003	0.00000E+000	3.70030E-001	0.00000E+000	10	...........	1583.63
	148	1.48	5.46852E-001	1.22979E-003	0.00000E+000	3.70030E-001	0.00000E+000	10	...........	1583.63
	149	1.49	5.48886E-001	1.22973E-003	0.00000E+000	3.70030E-001	0.00000E+000	10	...........	1583.63
	150	1.5	5.50958E-001	1.22971E-003	0.00000E+000	3.70030E-001	0.00000E+000	10	...........	1583.63
	151	1.51	5.52984E-001	1.22966E-003	0.00000E+000	3.70030E-001	0.00000E+000	10	...........	1583.63
	152	1.52	5.55051E-001	1.22968E-003	0.00000E+000	3.70030E-001	0.00000E+000	10	...........	1583.63
	153	1.53	5.57110E-001	1.22968E-003	0.00000E+000	3.70030E-001	0.00000E+000	10	...........	1583.63
	154	1.54	5.59155E-001	1.22969E-003	0.00000E+000	3.70030E-001	0.00000E+000	10	...........	1583.63
	155	1.55	5.61194E-001	1.22970E-003	0.00000E+000	3.70030E-001	0.00000E+000	10	...........	1583.63
	156	1.56	5.63256E-001	1.22971E-003	0.00000E+000	3.70030E-001	0.00000E+000	10	...........	1583.63
	157	1.57	5.65346E-001	1.22977E-003	0.00000E+000	3.70030E-001	0.00000E+000	10	...........	1583.63
	158	1.58	5.67392E-001	1.22967E-003	0.00000E+000	3.70030E-001	0.00000E+000	10	...........	1583.63
	159	1.59	5.69406E-001	1.22969E-003	0.00000E+000	3.70030E-001	0.00000E+000	10	...........	1583.63
	160	1.6	5.71462E-001	1.22971E-003	0.00000E+000	3.70030E-001	0.00000E+000	10	...........	1583.63
	161	1.61	5.73505E-001	1.22970E-003	0.00000E+000	3.70030E-001	0.00000E+000	10	...........	1583.63
	162	1.62	5.75540E-001	1.22976E-003	0.00000E+000	3.70030E-001	0.00000E+000	10	...........	1583.63
	163	1.63	5.77604E-001	1.22970E-003	0.00000E+000	3.70030E-001	0.00000E+000	10	...........	1583.63
	164	1.64	5.79651E-001	1.22973E-003	0.00000E+000	3.70030E-001	0.00000E+000	10	...........	1583.63
	165	1.65	5.81680E-001	1.22973E-003	0.00000E+000	3.70030E-001	0.00000E+000	10	...........	1583.63
	166	1.66	5.83745E-001	1.22981E-003	0.00000E+000	3.70030E-001	0.00000E+000	10	...........	1583.63
	167	1.67	5.85791E-001	1.22977E-003	0.00000E+000	3.70030E-001	0.00000E+000	10	...........	1583.63
	168	1.68	5.87810E-001	1.22970E-003	0.00000E+000	3.70030E-001	0.00000E+000	10	...........	1583.63
	169	1.69	5.89873E-001	1.22970E-003	0.00000E+000	3.70030E-001	0.00000E+000	10	...........	1583.63
	170	1.7	5.91887E-001	1.22971E-003	0.00000E+000	3.70030E-001	0.00000E+000	10	...........	1583.63
	171	1.71	5.93930E-001	1.22969E-003	0.00000E+000	3.70030E-001	0.00000E+000	10	...........	1583.63
	172	1.72	5.95976E-001	1.22976E-003	0.00000E+000	3.70030E-001	0.00000E+000	10	...........	1583.63
	173	1.73	5.97999E-001	1.22974E-003	0.00000E+000	3.70030E-001	0.00000E+000	10	...........	1583.63
	174	1.74	6.00038E-001	1.22975E-003	0.00000E+000	3.70030E-001	0.00000E+000	10	...........	1583.63
	175	1.75	6.02101E-001	1.22976E-003	0.00000E+000	3.70030E-001	0.00000E+000	10	...........	1583.63
	176	1.76	6.04116E-001	1.22976E-003	0.00000E+000	3.70030E-001	0.00000E+000	10	...........	1583.63
	177	1.77	6.06137E-001	1.22980E-003	0.00000E+000	3.70030E-001	0.00000E+000	10	...........	1583.63
	178	1.78	6.08166E-001	1.22973E-003	0.00000E+000	3.70030E-001	0.00000E+000	10	...........	1583.63
	179	1.79	6.10200E-001	1.22973E-003	0.00000E+000	3.70030E-001	0.00000E+000	10	...........	1583.63
	180	1.8	6.12202E-001	1.22972E-003	0.00000E+000	3.70030E-001	0.00000E+000	10	...........	1583.63
	181	1.81	6.14203E-001	1.22966E-003	0.00000E+000	3.70030E-001	0.00000E+000	10	...........	1583.63
	182	1.82	6.16271E-001	1.22976E-003	0.00000E+000	3.70030E-001	0.00000E+000	10	...........	1583.63
	183	1.83	6.18288E-001	1.22974E-003	0.00000E+000	3.70030E-001	0.00000E+000	10	...........	1583.63
	184	1.84	6.20302E-001	1.22975E-003	0.00000E+000	3.70030E-001	0.00000E+000	10	...........	1583.63
	185	1.85	6.22311E-001	1.22974E-003	0.00000E+000	3.70030E-001	0.00000E+000	10	...........	1583.17
	186	1.86	6.24329E-001	1.22972E-003	0.00000E+000	3.70030E-001	0.00000E+000	10	...........	1583.15
	187	1.87	6.26357E-001	1.22976E-003	0.00000E+000	3.70030E-001	0.00000E+000	10	...........	1583.15
	188	1.88	6.28391E-001	1.22975E-003	0.00000E+000	3.70030E-001	0.00000E+000	10	...........	1583.15
	189	1.89	6.30397E-001	1.22978E-003	0.00000E+000	3.70030E-001	0.00000E+000	10	...........	1583.15
	190	1.9	6.32428E-001	1.22984E-003	0.00000E+000	3.70030E-001	0.00000E+000	10	...........	1583.15
	191	1.91	6.34451E-001	1.22979E-003	0.00000E+000	3.70030E-001	0.00000E+000	10	...........	1583.15
	192	1.92	6.36414E-001	1.22975E-003	0.00000E+000	3.70030E-001	0.00000E+000	10	...........	1583.15
	193	1.93	6.38421E-001	1.22969E-003	0.00000E+000	3.70030E-001	0.00000E+000	10	...........	1583.15
	194	1.94	6.40438E-001	1.22972E-003	0.00000E+000	3.70030E-001	0.00000E+000	10	...........	1583.15
	195	1.95	6.42431E-001	1.22967E-003	0.00000E+000	3.70030E-001	0.00000E+000	10	...........	1583.15
	196	1.96	6.44411E-001	1.22966E-003	0.00000E+000	3.70030E-001	0.00000E+000	10	...........	1583.15
	197	1.97	6.46396E-001	1.22971E-003	0.00000E+000	3.70030E-001	0.00000E+000	10	...........	1583.15
	198	1.98	6.48383E-001	1.22969E-003	0.00000E+000	3.70030E-001	0.00000E+000	10	...........	1583.15
	199	1.99	6.50383E-001	1.22965E-003	0.00000E+000	3.70030E-001	0.00000E+000	10	...........	1583.15
	200	2	6.52372E-001	1.22969E-003	0.00000E+000	3.70030E-001	0.00000E+000	10	...........	1583.15
	201	2.01	6.54358E-001	1.22970E-003	0.00000E+000	3.70030E-001	0.00000E+000	10	...........	1583.15
	202	2.02	6.56352E-001	1.22972E-003	0.00000E+000	3.70030E-001	0.00000E+000	10	...........	1583.15
	203	2.03	6.58321E-001	1.22974E-003	0.00000E+000	3.70030E-001	0.00000E+000	10	...........	1583.15
	204	2.04	6.60316E-001	1.22973E-003	0.00000E+000	3.70030E-001	0.00000E+000	10	...........	1583.15
	205	2.05	6.62285E-001	1.22974E-003	0.00000E+000	3.70030E-001	0.00000E+000	10	...........	1583.15
	206	2.06	6.64266E-001	1.22976E-003	0.00000E+000	3.70030E-001	0.00000E+000	10	...........	1583.15
	207	2.07	6.66256E-001	1.22972E-003	0.00000E+000	3.70030E-001	0.00000E+000	10	...........	1583.15
	208	2.08	6.68224E-001	1.22979E-003	0.00000E+000	3.70030E-001	0.00000E+000	10	...........	1583.15
	209	2.09	6.70193E-001	1.22974E-003	0.00000E+000	3.70030E-001	0.00000E+000	10	...........	1583.15
	210	2.1	6.72130E-001	1.22974E-003	0.00000E+000	3.70030E-001	0.00000E+000	10	...........	1583.15
	211	2.11	6.74124E-001	1.22979E-003	0.00000E+000	3.70030E-001	0.00000E+000	10	...........	1583.15
	212	2.12	6.76059E-001	1.22976E-003	0.00000E+000	3.70030E-001	0.00000E+000	10	...........	1583.15
	213	2.13	6.77994E-001	1.22974E-003	0.00000E+000	3.70030E-001	0.00000E+000	10	...........	1583.15
	214	2.14	6.79955E-001	1.22967E-003	0.00000E+000	3.70030E-001	0.00000E+000	10	...........	1583.15
	215	2.15	6.81885E-001	1.22971E-003	0.00000E+000	3.70030E-001	0.00000E+000	10	...........	1583.15
	216	2.16	6.83829E-001	1.22966E-003	0.00000E+000	3.70030E-001	0.00000E+000	10	...........	1583.15
	217	2.17	6.85776E-001	1.22970E-003	0.00000E+000	3.70030E-001	0.00000E+000	10	...........	1583.15
	218	2.18	6.87717E-001	1.22982E-003	0.00000E+000	3.70030E-001	0.00000E+000	10	...........	1583.15
	219	2.19	6.89643E-001	1.22974E-003	0.00000E+000	3.70030E-001	0.00000E+000	10	...........	1583.15
	220	2.2	6.91565E-001	1.22972E-003	0.00000E+000	3.70030E-001	0.00000E+000	10	...........	1583.15
	221	2.21	6.93509E-001	1.22969E-003	0.00000E+000	3.70030E-001	0.00000E+000	10	...........	1583.15
	222	2.22	6.95417E-001	1.22974E-003	0.00000E+000	3.70030E-001	0.00000E+000	10	...........	1583.15
	223	2.23	6.97371E-001	1.22981E-003	0.00000E+000	3.70030E-001	0.00000E+000	10	...........	1583.15
	224	2.24	6.99289E-001	1.22982E-003	0.00000E+000	3.70030E-001	0.00000E+000	10	...........	1583.15
	225	2.25	7.01184E-001	1.22976E-003	0.00000E+000	3.70030E-001	0.00000E+000	10	...........	1583.15
	226	2.26	7.03065E-001	1.22971E-003	0.00000E+000	3.70030E-001	0.00000E+000	10	...........	1583.15
	227	2.27	7.04992E-001	1.22975E-003	0.00000E+000	3.70030E-001	0.00000E+000	10	...........	1583.15
	228	2.28	7.06905E-001	1.22977E-003	0.00000E+000	3.70030E-001	0.00000E+000	10	...........	1583.15
	229	2.29	7.08777E-001	1.22976E-003	0.00000E+000	3.70030E-001	0.00000E+000	10	...........	1583.15
	230	2.3	7.10675E-001	1.22972E-003	0.00000E+000	3.70030E-001	0.00000E+000	10	...........	1583.15
	231	2.31	7.12550E-001	1.22974E-003	0.00000E+000	3.70030E-001	0.00000E+000	10	...........	1583.15
	232	2.32	7.14425E-001	1.22968E-003	0.00000E+000	3.70030E-001	0.00000E+000	10	...........	1583.15
	233	2.33	7.16303E-001	1.22975E-003	0.00000E+000	3.70030E-001	0.00000E+000	10	...........	1583.15
	234	2.34	7.18232E-001	1.22973E-003	0.00000E+000	3.70030E-001	0.00000E+000	10	...........	1583.15
	235	2.35	7.20061E-001	1.22971E-003	0.00000E+000	3.70030E-001	0.00000E+000	10	...........	1583.15
	236	2.36	7.21919E-001	1.22971E-003	0.00000E+000	3.70030E-001	0.00000E+000	10	...........	1583.15
	237	2.37	7.23767E-001	1.22963E-003	0.00000E+000	3.70030E-001	0.00000E+000	10	...........	1583.15
	238	2.38	7.25624E-001	1.22973E-003	0.00000E+000	3.70030E-001	0.00000E+000	10	...........	1583.15
	239	2.39	7.27452E-001	1.22968E-003	0.00000E+000	3.70030E-001	0.00000E+000	10	...........	1583.15
	240	2.4	7.29302E-001	1.22968E-003	0.00000E+000	3.70030E-001	0.00000E+000	10	...........	1583.15
	241	2.41	7.31168E-001	1.22964E-003	0.00000E+000	3.70030E-001	0.00000E+000	10	...........	1583.15
	242	2.42	7.32984E-001	1.22966E-003	0.00000E+000	3.70030E-001	0.00000E+000	10	...........	1583.15
	243	2.43	7.34822E-001	1.22968E-003	0.00000E+000	3.70030E-001	0.00000E+000	10	...........	1583.15
	244	2.44	7.36636E-001	1.22969E-003	0.00000E+000	3.70030E-001	0.00000E+000	10	...........	1583.15
	245	2.45	7.38469E-001	1.22971E-003	0.00000E+000	3.70030E-001	0.00000E+000	10	...........	1583.15
	246	2.46	7.40284E-001	1.22974E-003	0.00000E+000	3.70030E-001	0.00000E+000	10	...........	1583.15
	247	2.47	7.42084E-001	1.22969E-003	0.00000E+000	3.70030E-001	0.00000E+000	10	...........	1583.15
	248	2.48	7.43904E-001	1.22971E-003	0.00000E+000	3.70030E-001	0.00000E+000	10	...........	1583.15
	249	2.49	7.45686E-001	1.22973E-003	0.00000E+000	3.70030E-001	0.00000E+000	10	...........	1583.15
	250	2.5	7.47487E-001	1.22968E-003	0.00000E+000	3.70030E-001	0.00000E+000	10	...........	1583.15
	251	2.51	7.49278E-001	1.22975E-003	0.00000E+000	3.70030E-001	0.00000E+000	10	...........	1583.15
	252	2.52	7.51036E-001	1.22970E-003	0.00000E+000	3.70030E-001	0.00000E+000	10	...........	1583.15
	253	2.53	7.52814E-001	1.22971E-003	0.00000E+000	3.70030E-001	0.00000E+000	10	...........	1583.15
	254	2.54	7.54561E-001	1.22973E-003	0.00000E+000	3.70030E-001	0.00000E+000	10	...........	1583.15
	255	2.55	7.56349E-001	1.22976E-003	0.00000E+000	3.70030E-001	0.00000E+000	10	...........	1583.15
	256	2.56	7.58098E-001	1.22975E-003	0.00000E+000	3.70030E-001	0.00000E+000	10	...........	1583.15
	257	2.57	7.59837E-001	1.22974E-003	0.00000E+000	3.70030E-001	0.00000E+000	10	...........	1583.15
	258	2.58	7.61583E-001	1.22968E-003	0.00000E+000	3.70030E-001	0.00000E+000	10	...........	1583.15
	259	2.59	7.63302E-001	1.22972E-003	0.00000E+000	3.70030E-001	0.00000E+000	10	...........	1583.15
	260	2.6	7.65035E-001	1.22970E-003	0.00000E+000	3.70030E-001	0.00000E+000	10	...........	1583.15
	261	2.61	7.66780E-001	1.22981E-003	0.00000E+000	3.70030E-001	0.00000E+000	10	...........	1583.15
	262	2.62	7.68520E-001	1.22979E-003	0.00000E+000	3.70030E-001	0.00000E+000	10	...........	1583.15
	263	2.63	7.70232E-001	1.22975E-003	0.00000E+000	3.70030E-001	0.00000E+000	10	...........	1583.15
	264	2.64	7.71922E-001	1.22973E-003	0.00000E+000	3.70030E-001	0.00000E+000	10	...........	1583.15
	265	2.65	7.73604E-001	1.22971E-003	0.00000E+000	3.70030E-001	0.00000E+000	10	...........	1583.15
	266	2.66	7.75308E-001	1.22969E-003	0.00000E+000	3.70030E-001	0.00000E+000	10	...........	1583.15
	267	2.67	7.76964E-001	1.22974E-003	0.00000E+000	3.70030E-001	0.00000E+000	10	...........	1583.15
	268	2.68	7.78647E-001	1.22975E-003	0.00000E+000	3.70030E-001	0.00000E+000	10	...........	1583.15
	269	2.69	7.80329E-001	1.22971E-003	0.00000E+000	3.70030E-001	0.00000E+000	10	...........	1583.15
	270	2.7	7.82020E-001	1.22973E-003	0.00000E+000	3.70030E-001	0.00000E+000	10	...........	1583.15
	271	2.71	7.83646E-001	1.22975E-003	0.00000E+000	3.70030E-001	0.00000E+000	10	...........	1583.15
	272	2.72	7.85308E-001	1.22972E-003	0.00000E+000	3.70030E-001	0.00000E+000	10	...........	1583.15
	273	2.73	7.86941E-001	1.22966E-003	0.00000E+000	3.70030E-001	0.00000E+000	10	...........	1583.15
	274	2.74	7.88580E-001	1.22973E-003	0.00000E+000	3.70030E-001	0.00000E+000	10	...........	1583.15
	275	2.75	7.90194E-001	1.22972E-003	0.00000E+000	3.70030E-001	0.00000E+000	10	...........	1583.15
	276	2.76	7.91822E-001	1.22968E-003	0.00000E+000	3.70030E-001	0.00000E+000	10	...........	1583.15
	277	2.77	7.93426E-001	1.22975E-003	0.00000E+000	3.70030E-001	0.00000E+000	10	...........	1583.15
	278	2.78	7.95056E-001	1.22971E-003	0.00000E+000	3.70030E-001	0.00000E+000	10	...........	1583.15
	279	2.79	7.96649E-001	1.22974E-003	0.00000E+000	3.70030E-001	0.00000E+000	10	...........	1583.15
	280	2.8	7.98237E-001	1.22974E-003	0.00000E+000	3.70030E-001	0.00000E+000	10	...........	1583.15
	281	2.81	7.99810E-001	1.22975E-003	0.00000E+000	3.70030E-001	0.00000E+000	10	...........	1583.15
	282	2.82	8.01391E-001	1.22971E-003	0.00000E+000	3.70030E-001	0.00000E+000	10	...........	1583.15
	283	2.83	8.02958E-001	1.22976E-003	0.00000E+000	3.70030E-001	0.00000E+000	10	...........	1583.15
	284	2.84	8.04511E-001	1.22971E-003	0.00000E+000	3.70030E-001	0.00000E+000	10	...........	1583.15
	285	2.85	7.80790E-001	-1.22974E-003	0.00000E+000	-3.70030E-001	0.00000E+000	10	...........	1583.15
	286	2.86	7.76279E-001	-1.22983E-003	0.00000E+000	-3.70030E-001	0.00000E+000	10	...........	1583.15
	287	2.87	7.72444E-001	-1.22990E-003	0.00000E+000	-3.70030E-001	0.00000E+000	10	...........	1583.15
	288	2.88	7.68948E-001	-1.22995E-003	0.00000E+000	-3.70030E-001	0.00000E+000	10	...........	1583.15
	289	2.89	7.65634E-001	-1.22993E-003	0.00000E+000	-3.70030E-001	0.00000E+000	10	...........	1583.15
	290	2.9	7.62471E-001	-1.22996E-003	0.00000E+000	-3.70030E-001	0.00000E+000	10	...........	1583.15
	291	2.91	7.59432E-001	-1.22998E-003	0.00000E+000	-3.70030E-001	0.00000E+000	10	...........	1583.15
	292	2.92	7.56486E-001	-1.22990E-003	0.00000E+000	-3.70030E-001	0.00000E+000	10	...........	1583.15
	293	2.93	7.53558E-001	-1.22990E-003	0.00000E+000	-3.70030E-001	0.00000E+000	10	...........	1583.15
	294	2.94	7.50685E-001	-1.22999E-003	0.00000E+000	-3.70030E-001	0.00000E+000	10	...........	1583.15
	295	2.95	7.47848E-001	-1.22997E-003	0.00000E+000	-3.70030E-001	0.00000E+000	10	...........	1583.15
	296	2.96	7.45077E-001	-1.23002E-003	0.00000E+000	-3.70030E-001	0.00000E+000	10	...........	1583.15
	297	2.97	7.42310E-001	-1.23000E-003	0.00000E+000	-3.70030E-001	0.00000E+000	10	...........	1583.15
	298	2.98	7.39598E-001	-1.22997E-003	0.00000E+000	-3.70030E-001	0.00000E+000	10	...........	1583.15
	299	2.99	7.36903E-001	-1.22999E-003	0.00000E+000	-3.70030E-001	0.00000E+000	10	...........	1583.15
	300	3	7.34222E-001	-1.22999E-003	0.00000E+000	-3.70030E-001	0.00000E+000	10	...........	1583.15
	301	3.01	7.31568E-001	-1.22996E-003	0.00000E+000	-3.70030E-001	0.00000E+000	10	...........	1583.15
	302	3.02	7.28907E-001	-1.22999E-003	0.00000E+000	-3.70030E-001	0.00000E+000	10	...........	1583.15
	303	3.03	7.26296E-001	-1.22993E-003	0.00000E+000	-3.70030E-001	0.00000E+000	10	...........	1583.15
	304	3.04	7.23700E-001	-1.22999E-003	0.00000E+000	-3.70030E-001	0.00000E+000	10	...........	1583.15
	305	3.05	7.21107E-001	-1.22998E-003	0.00000E+000	-3.70030E-001	0.00000E+000	10	...........	1583.15
	306	3.06	7.18519E-001	-1.23003E-003	0.00000E+000	-3.70030E-001	0.00000E+000	10	...........	1583.15
	307	3.07	7.15888E-001	-1.23004E-003	0.00000E+000	-3.70030E-001	0.00000E+000	10	...........	1583.15
	308	3.08	7.13341E-001	-1.23004E-003	0.00000E+000	-3.70030E-001	0.00000E+000	10	...........	1583.15
	309	3.09	7.10779E-001	-1.23005E-003	0.00000E+000	-3.70030E-001	0.00000E+000	10	...........	1583.15
	310	3.1	7.08230E-001	-1.23003E-003	0.00000E+000	-3.70030E-001	0.00000E+000	10	...........	1583.15
	311	3.11	7.05701E-001	-1.23002E-003	0.00000E+000	-3.70030E-001	0.00000E+000	10	...........	1583.15
	312	3.12	7.03162E-001	-1.23001E-003	0.00000E+000	-3.70030E-001	0.00000E+000	10	...........	1583.15
	313	3.13	7.00626E-001	-1.23003E-003	0.00000E+000	-3.70030E-001	0.00000E+000	10	...........	1583.15
	314	3.14	6.98118E-001	-1.22999E-003	0.00000E+000	-3.70030E-001	0.00000E+000	10	...........	1583.15
	315	3.15	6.95629E-001	-1.23002E-003	0.00000E+000	-3.70030E-001	0.00000E+000	10	...........	1583.15
	316	3.16	6.93131E-001	-1.23004E-003	0.00000E+000	-3.70030E-001	0.00000E+000	10	...........	1583.15
	317	3.17	6.90591E-001	-1.23003E-003	0.00000E+000	-3.70030E-001	0.00000E+000	10	...........	1583.15
	318	3.18	6.88074E-001	-1.23004E-003	0.00000E+000	-3.70030E-001	0.00000E+000	10	...........	1583.15
	319	3.19	6.85605E-001	-1.23006E-003	0.00000E+000	-3.70030E-001	0.00000E+000	10	...........	1583.15
	320	3.2	6.83126E-001	-1.23007E-003	0.00000E+000	-3.70030E-001	0.00000E+000	10	...........	1583.15
	321	3.21	6.80631E-001	-1.23004E-003	0.00000E+000	-3.70030E-001	0.00000E+000	10	...........	1583.15
	322	3.22	6.78144E-001	-1.23006E-003	0.00000E+000	-3.70030E-001	0.00000E+000	10	...........	1583.15
	323	3.23	6.75689E-001	-1.23009E-003	0.00000E+000	-3.70030E-001	0.00000E+000	10	...........	1583.15
	324	3.24	6.73221E-001	-1.23004E-003	0.00000E+000	-3.70030E-001	0.00000E+000	10	...........	1583.15
	325	3.25	6.70741E-001	-1.23008E-003	0.00000E+000	-3.70030E-001	0.00000E+000	10	...........	1583.15
	326	3.26	6.68281E-001	-1.23009E-003	0.00000E+000	-3.70030E-001	0.00000E+000	10	...........	1583.15
	327	3.27	6.65817E-001	-1.23011E-003	0.00000E+000	-3.70030E-001	0.00000E+000	10	...........	1583.15
	328	3.28	6.63353E-001	-1.23008E-003	0.00000E+000	-3.70030E-001	0.00000E+000	10	...........	1583.15
	329	3.29	6.60912E-001	-1.23002E-003	0.00000E+000	-3.70030E-001	0.00000E+000	10	...........	1583.15
	330	3.3	6.58463E-001	-1.23006E-003	0.00000E+000	-3.70030E-001	0.00000E+000	10	...........	1583.15
	331	3.31	6.56025E-001	-1.23009E-003	0.00000E+000	-3.70030E-001	0.00000E+000	10	...........	1583.15
	332	3.32	6.53589E-001	-1.23007E-003	0.00000E+000	-3.70030E-001	0.00000E+000	10	...........	1583.15
	333	3.33	6.51148E-001	-1.23006E-003	0.00000E+000	-3.70030E-001	0.00000E+000	10	...........	1583.15
	334	3.34	6.48717E-001	-1.23010E-003	0.00000E+000	-3.70030E-001	0.00000E+000	10	...........	1583.15
	335	3.35	6.46288E-001	-1.23007E-003	0.00000E+000	-3.70030E-001	0.00000E+000	10	...........	1583.15
	336	3.36	6.43902E-001	-1.23006E-003	0.00000E+000	-3.70030E-001	0.00000E+000	10	...........	1583.15
	337	3.37	6.41484E-001	-1.23000E-003	0.00000E+000	-3.70030E-001	0.00000E+000	10	...........	1583.15
	338	3.38	6.39049E-001	-1.23005E-003	0.00000E+000	-3.70030E-001	0.00000E+000	10	...........	1583.15
	339	3.39	6.36612E-001	-1.23009E-003	0.00000E+000	-3.70030E-001	0.00000E+000	10	...........	1583.15
	340	3.4	6.34226E-001	-1.23005E-003	0.00000E+000	-3.70030E-001	0.00000E+000	10	...........	1583.15
	341	3.41	6.31824E-001	-1.23003E-003	0.00000E+000	-3.70030E-001	0.00000E+000	10	...........	1583.15
	342	3.42	6.29431E-001	-1.23006E-003	0.00000E+000	-3.70030E-001	0.00000E+000	10	...........	1583.15
	343	3.43	6.27019E-001	-1.23004E-003	0.00000E+000	-3.70030E-001	0.00000E+000	10	...........	1583.15
	344	3.44	6.24631E-001	-1.23001E-003	0.00000E+000	-3.70030E-001	0.00000E+000	10	...........	1583.15
	345	3.45	6.22240E-001	-1.23002E-003	0.00000E+000	-3.70030E-001	0.00000E+000	10	...........	1583.15
	346	3.46	6.19860E-001	-1.23005E-003	0.00000E+000	-3.70030E-001	0.00000E+000	10	...........	1583.15
	347	3.47	6.17472E-001	-1.23003E-003	0.00000E+000	-3.70030E-001	0.00000E+000	10	...........	1583.15
	348	3.48	6.15089E-001	-1.23004E-003	0.00000E+000	-3.70030E-001	0.00000E+000	10	...........	1583.15
	349	3.49	6.12697E-001	-1.22999E-003	0.00000E+000	-3.70030E-001	0.00000E+000	10	...........	1583.15
	350	3.5	6.10305E-001	-1.23007E-003	0.00000E+000	-3.70030E-001	0.00000E+000	10	...........	1583.15
	351	3.51	6.07929E-001	-1.23006E-003	0.00000E+000	-3.70030E-001	0.00000E+000	10	...........	1583.15
	352	3.52	6.05562E-001	-1.23004E-003	0.00000E+000	-3.70030E-001	0.00000E+000	10	...........	1583.15
	353	3.53	6.03201E-001	-1.23005E-003	0.00000E+000	-3.70030E-001	0.00000E+000	10	...........	1583.15
	354	3.54	6.00821E-001	-1.23002E-003	0.00000E+000	-3.70030E-001	0.00000E+000	10	...........	1583.15
	355	3.55	5.98471E-001	-1.23001E-003	0.00000E+000	-3.70030E-001	0.00000E+000	10	...........	1583.15
	356	3.56	5.96127E-001	-1.23002E-003	0.00000E+000	-3.70030E-001	0.00000E+000	10	...........	1583.15
	357	3.57	5.93785E-001	-1.23005E-003	0.00000E+000	-3.70030E-001	0.00000E+000	10	...........	1583.15
	358	3.58	5.91439E-001	-1.23001E-003	0.00000E+000	-3.70030E-001	0.00000E+000	10	...........	1583.15
	359	3.59	5.89069E-001	-1.22998E-003	0.00000E+000	-3.70030E-001	0.00000E+000	10	...........	1583.15
	360	3.6	5.86741E-001	-1.22999E-003	0.00000E+000	-3.70030E-001	0.00000E+000	10	...........	1583.15
	361	3.61	5.84409E-001	-1.23001E-003	0.00000E+000	-3.70030E-001	0.00000E+000	10	...........	1583.15
	362	3.62	5.82065E-001	-1.23001E-003	0.00000E+000	-3.70030E-001	0.00000E+000	10	...........	1583.15
	363	3.63	5.79754E-001	-1.23001E-003	0.00000E+000	-3.70030E-001	0.00000E+000	10	...........	1583.15
	364	3.64	5.77404E-001	-1.23003E-003	0.00000E+000	-3.70030E-001	0.00000E+000	10	...........	1583.15
	365	3.65	5.75077E-001	-1.23002E-003	0.00000E+000	-3.70030E-001	0.00000E+000	10	...........	1583.15
	366	3.66	5.72775E-001	-1.23003E-003	0.00000E+000	-3.70030E-001	0.00000E+000	10	...........	1583.15
	367	3.67	5.70434E-001	-1.23011E-003	0.00000E+000	-3.70030E-001	0.00000E+000	10	...........	1583.15
	368	3.68	5.68121E-001	-1.23009E-003	0.00000E+000	-3.70030E-001	0.00000E+000	10	...........	1583.15
	369	3.69	5.65802E-001	-1.23009E-003	0.00000E+000	-3.70030E-001	0.00000E+000	10	...........	1583.15
	370	3.7	5.63481E-001	-1.23012E-003	0.00000E+000	-3.70030E-001	0.00000E+000	10	...........	1583.15
	371	3.71	5.61174E-001	-1.23008E-003	0.00000E+000	-3.70030E-001	0.00000E+000	10	...........	1583.15
	372	3.72	5.58881E-001	-1.23004E-003	0.00000E+000	-3.70030E-001	0.00000E+000	10	...........	1583.15
	373	3.73	5.56585E-001	-1.23007E-003	0.00000E+000	-3.70030E-001	0.00000E+000	10	...........	1583.15
	374	3.74	5.54287E-001	-1.23007E-003	0.00000E+000	-3.70030E-001	0.00000E+000	10	...........	1583.15
	375	3.75	5.51999E-001	-1.23007E-003	0.00000E+000	-3.70030E-001	0.00000E+000	10	...........	1583.15
	376	3.76	5.49695E-001	-1.23009E-003	0.00000E+000	-3.70030E-001	0.00000E+000	10	...........	1583.15
	377	3.77	5.47420E-001	-1.23002E-003	0.00000E+000	-3.70030E-001	0.00000E+000	10	...........	1583.15
	378	3.78	5.45151E-001	-1.23006E-003	0.00000E+000	-3.70030E-001	0.00000E+000	10	...........	1583.15
	379	3.79	5.42853E-001	-1.23006E-003	0.00000E+000	-3.70030E-001	0.00000E+000	10	...........	1583.15
	380	3.8	5.40581E-001	-1.23006E-003	0.00000E+000	-3.70030E-001	0.00000E+000	10	...........	1583.15
	381	3.81	5.38313E-001	-1.23000E-003	0.00000E+000	-3.70030E-001	0.00000E+000	10	...........	1583.15
	382	3.82	5.36028E-001	-1.23006E-003	0.00000E+000	-3.70030E-001	0.00000E+000	10	...........	1583.15
	383	3.83	5.33766E-001	-1.23006E-003	0.00000E+000	-3.70030E-001	0.00000E+000	10	...........	1583.15
	384	3.84	5.31505E-001	-1.23004E-003	0.00000E+000	-3.70030E-001	0.00000E+000	10	...........	1583.15
	385	3.85	5.29248E-001	-1.23007E-003	0.00000E+000	-3.70030E-001	0.00000E+000	10	...........	1583.06
	386	3.86	5.26995E-001	-1.23007E-003	0.00000E+000	-3.70030E-001	0.00000E+000	10	...........	1583.05
	387	3.87	5.24713E-001	-1.23004E-003	0.00000E+000	-3.70030E-001	0.00000E+000	10	...........	1583.05
	388	3.88	5.22483E-001	-1.23005E-003	0.00000E+000	-3.70030E-001	0.00000E+000	10	...........	1583.05
	389	3.89	5.20230E-001	-1.23003E-003	0.00000E+000	-3.70030E-001	0.00000E+000	10	...........	1583.05
	390	3.9	5.17986E-001	-1.23000E-003	0.00000E+000	-3.70030E-001	0.00000E+000	10	...........	1583.05
	391	3.91	5.15749E-001	-1.23006E-003	0.00000E+000	-3.70030E-001	0.00000E+000	10	...........	1583.05
	392	3.92	5.13515E-001	-1.23003E-003	0.00000E+000	-3.70030E-001	0.00000E+000	10	...........	1583.05
	393	3.93	5.11246E-001	-1.23007E-003	0.00000E+000	-3.70030E-001	0.00000E+000	10	...........	1583.05
	394	3.94	5.09008E-001	-1.23003E-003	0.00000E+000	-3.70030E-001	0.00000E+000	10	...........	1583.05
	395	3.95	5.06787E-001	-1.23009E-003	0.00000E+000	-3.70030E-001	0.00000E+000	10	...........	1583.05
	396	3.96	5.04555E-001	-1.23007E-003	0.00000E+000	-3.70030E-001	0.00000E+000	10	...........	1583.05
	397	3.97	5.02329E-001	-1.23004E-003	0.00000E+000	-3.70030E-001	0.00000E+000	10	...........	1583.05
	398	3.98	5.00152E-001	-1.23004E-003	0.00000E+000	-3.70030E-001	0.00000E+000	10	...........	1583.05
	399	3.99	4.97921E-001	-1.23003E-003	0.00000E+000	-3.70030E-001	0.00000E+000	10	...........	1583.05
	400	4	4.95695E-001	-1.23002E-003	0.00000E+000	-3.70030E-001	0.00000E+000	10	...........	1583.05
	401	4.01	4.93506E-001	-1.23003E-003	0.00000E+000	-3.70030E-001	0.00000E+000	10	...........	1583.05
	402	4.02	4.91295E-001	-1.23002E-003	0.00000E+000	-3.70030E-001	0.00000E+000	10	...........	1583.05
	403	4.03	4.89085E-001	-1.23006E-003	0.00000E+000	-3.70030E-001	0.00000E+000	10	...........	1583.05
	404	4.04	4.86875E-001	-1.23007E-003	0.00000E+000	-3.70030E-001	0.00000E+000	10	...........	1583.05
	405	4.05	4.84652E-001	-1.23007E-003	0.00000E+000	-3.70030E-001	0.00000E+000	10	...........	1583.05
	406	4.06	4.82448E-001	-1.23009E-003	0.00000E+000	-3.70030E-001	0.00000E+000	10	...........	1583.05
	407	4.07	4.80258E-001	-1.23008E-003	0.00000E+000	-3.70030E-001	0.00000E+000	10	...........	1583.05
	408	4.08	4.78077E-001	-1.23005E-003	0.00000E+000	-3.70030E-001	0.00000E+000	10	...........	1583.05
	409	4.09	4.75899E-001	-1.23005E-003	0.00000E+000	-3.70030E-001	0.00000E+000	10	...........	1583.05
	410	4.1	4.73691E-001	-1.23007E-003	0.00000E+000	-3.70030E-001	0.00000E+000	10	...........	1583.05
	411	4.11	4.71524E-001	-1.23002E-003	0.00000E+000	-3.70030E-001	0.00000E+000	10	...........	1583.05
	412	4.12	4.69353E-001	-1.23004E-003	0.00000E+000	-3.70030E-001	0.00000E+000	10	...........	1583.05
	413	4.13	4.67183E-001	-1.23002E-003	0.00000E+000	-3.70030E-001	0.00000E+000	10	...........	1583.05
	414	4.14	4.65025E-001	-1.23000E-003	0.00000E+000	-3.70030E-001	0.00000E+000	10	...........	1583.05
	415	4.15	4.62855E-001	-1.23002E-003	0.00000E+000	-3.70030E-001	0.00000E+000	10	...........	1583.05
	416	4.16	4.60649E-001	-1.23005E-003	0.00000E+000	-3.70030E-001	0.00000E+000	10	...........	1583.05
	417	4.17	4.58468E-001	-1.23006E-003	0.00000E+000	-3.70030E-001	0.00000E+000	10	...........	1583.05
	418	4.18	4.56307E-001	-1.23005E-003	0.00000E+000	-3.70030E-001	0.00000E+000	10	...........	1583.05
	419	4.19	4.54153E-001	-1.23006E-003	0.00000E+000	-3.70030E-001	0.00000E+000	10	...........	1583.05
	420	4.2	4.52012E-001	-1.23007E-003	0.00000E+000	-3.70030E-001	0.00000E+000	10	...........	1583.05
	421	4.21	4.49865E-001	-1.23005E-003	0.00000E+000	-3.70030E-001	0.00000E+000	10	...........	1583.05
	422	4.22	4.47698E-001	-1.23008E-003	0.00000E+000	-3.70030E-001	0.00000E+000	10	...........	1583.05
	423	4.23	4.45562E-001	-1.23007E-003	0.00000E+000	-3.70030E-001	0.00000E+000	10	...........	1583.05
	424	4.24	4.43413E-001	-1.23004E-003	0.00000E+000	-3.70030E-001	0.00000E+000	10	...........	1583.05
	425	4.25	4.41261E-001	-1.23006E-003	0.00000E+000	-3.70030E-001	0.00000E+000	10	...........	1583.05
	426	4.26	4.39128E-001	-1.23008E-003	0.00000E+000	-3.70030E-001	0.00000E+000	10	...........	1583.05
	427	4.27	4.37000E-001	-1.23010E-003	0.00000E+000	-3.70030E-001	0.00000E+000	10	...........	1583.05
	428	4.28	4.34829E-001	-1.23012E-003	0.00000E+000	-3.70030E-001	0.00000E+000	10	...........	1583.05
	429	4.29	4.32708E-001	-1.23011E-003	0.00000E+000	-3.70030E-001	0.00000E+000	10	...........	1583.05
	430	4.3	4.30584E-001	-1.23008E-003	0.00000E+000	-3.70030E-001	0.00000E+000	10	...........	1583.05
	431	4.31	4.28463E-001	-1.23011E-003	0.00000E+000	-3.70030E-001	0.00000E+000	10	...........	1583.05
	432	4.32	4.26344E-001	-1.23010E-003	0.00000E+000	-3.70030E-001	0.00000E+000	10	...........	1583.05
	433	4.33	4.24217E-001	-1.23010E-003	0.00000E+000	-3.70030E-001	0.00000E+000	10	...........	1583.05
	434	4.34	4.22083E-001	-1.23006E-003	0.00000E+000	-3.70030E-001	0.00000E+000	10	...........	1583.05
	435	4.35	4.19967E-001	-1.23010E-003	0.00000E+000	-3.70030E-001	0.00000E+000	10	...........	1583.05
	436	4.36	4.17858E-001	-1.23006E-003	0.00000E+000	-3.70030E-001	0.00000E+000	10	...........	1583.05
	437	4.37	4.15770E-001	-1.23005E-003	0.00000E+000	-3.70030E-001	0.00000E+000	10	...........	1583.05
	438	4.38	4.13652E-001	-1.23002E-003	0.00000E+000	-3.70030E-001	0.00000E+000	10	...........	1583.05
	439	4.39	4.11539E-001	-1.23005E-003	0.00000E+000	-3.70030E-001	0.00000E+000	10	...........	1583.05
	440	4.4	4.09430E-001	-1.23004E-003	0.00000E+000	-3.70030E-001	0.00000E+000	10	...........	1583.05
	441	4.41	4.07316E-001	-1.23004E-003	0.00000E+000	-3.70030E-001	0.00000E+000	10	...........	1583.05
	442	4.42	4.05229E-001	-1.23003E-003	0.00000E+000	-3.70030E-001	0.00000E+000	10	...........	1583.05
	443	4.43	4.03127E-001	-1.23002E-003	0.00000E+000	-3.70030E-001	0.00000E+000	10	...........	1583.05
	444	4.44	4.01057E-001	-1.23004E-003	0.00000E+000	-3.70030E-001	0.00000E+000	10	...........	1583.05
	445	4.45	3.98965E-001	-1.23001E-003	0.00000E+000	-3.70030E-001	0.00000E+000	10	...........	1583.05
	446	4.46	3.96870E-001	-1.23005E-003	0.00000E+000	-3.70030E-001	0.00000E+000	10	...........	1583.05
	447	4.47	3.94770E-001	-1.23007E-003	0.00000E+000	-3.70030E-001	0.00000E+000	10	...........	1583.05
	448	4.48	3.92685E-001	-1.23012E-003	0.00000E+000	-3.70030E-001	0.00000E+000	10	...........	1583.05
	449	4.49	3.90613E-001	-1.23003E-003	0.00000E+000	-3.70030E-001	0.00000E+000	10	...........	1583.05
	450	4.5	3.88544E-001	-1.23006E-003	0.00000E+000	-3.70030E-001	0.00000E+000	10	...........	1583.05
	451	4.51	3.86463E-001	-1.23005E-003	0.00000E+000	-3.70030E-001	0.00000E+000	10	...........	1583.05
	452	4.52	3.84361E-001	-1.23008E-003	0.00000E+000	-3.70030E-001	0.00000E+000	10	...........	1583.05
	453	4.53	3.82275E-001	-1.23014E-003	0.00000E+000	-3.70030E-001	0.00000E+000	10	...........	1583.05
	454	4.54	3.80217E-001	-1.23008E-003	0.00000E+000	-3.70030E-001	0.00000E+000	10	...........	1583.05
	455	4.55	3.78159E-001	-1.23007E-003	0.00000E+000	-3.70030E-001	0.00000E+000	10	...........	1583.05
	456	4.56	3.76096E-001	-1.23005E-003	0.00000E+000	-3.70030E-001	0.00000E+000	10	...........	1583.05
	457	4.57	3.74026E-001	-1.23007E-003	0.00000E+000	-3.70030E-001	0.00000E+000	10	...........	1583.05
	458	4.58	3.71996E-001	-1.23006E-003	0.00000E+000	-3.70030E-001	0.00000E+000	10	...........	1583.05
	459	4.59	3.69911E-001	-1.23007E-003	0.00000E+000	-3.70030E-001	0.00000E+000	10	...........	1583.05
	460	4.6	3.67844E-001	-1.23010E-003	0.00000E+000	-3.70030E-001	0.00000E+000	10	...........	1583.05
	461	4.61	3.65807E-001	-1.23004E-003	0.00000E+000	-3.70030E-001	0.00000E+000	10	...........	1583.05
	462	4.62	3.63749E-001	-1.23003E-003	0.00000E+000	-3.70030E-001	0.00000E+000	10	...........	1583.05
	463	4.63	3.61712E-001	-1.23002E-003	0.00000E+000	-3.70030E-001	0.00000E+000	10	...........	1583.05
	464	4.64	3.59662E-001	-1.23001E-003	0.00000E+000	-3.70030E-001	0.00000E+000	10	...........	1583.05
	465	4.65	3.57575E-001	-1.23005E-003	0.00000E+000	-3.70030E-001	0.00000E+000	10	...........	1583.05
	466	4.66	3.55560E-001	-1.23006E-003	0.00000E+000	-3.70030E-001	0.00000E+000	10	...........	1583.05
	467	4.67	3.53518E-001	-1.23004E-003	0.00000E+000	-3.70030E-001	0.00000E+000	10	...........	1583.05
	468	4.68	3.51487E-001	-1.23003E-003	0.00000E+000	-3.70030E-001	0.00000E+000	10	...........	1583.05
	469	4.69	3.49457E-001	-1.23003E-003	0.00000E+000	-3.70030E-001	0.00000E+000	10	...........	1583.05
	470	4.7	3.47417E-001	-1.23005E-003	0.00000E+000	-3.70030E-001	0.00000E+000	10	...........	1583.05
	471	4.71	3.45372E-001	-1.23008E-003	0.00000E+000	-3.70030E-001	0.00000E+000	10	...........	1583.05
	472	4.72	3.43351E-001	-1.23003E-003	0.00000E+000	-3.70030E-001	0.00000E+000	10	...........	1583.05
	473	4.73	3.41327E-001	-1.23008E-003	0.00000E+000	-3.70030E-001	0.00000E+000	10	...........	1583.05
	474	4.74	3.39297E-001	-1.23007E-003	0.00000E+000	-3.70030E-001	0.00000E+000	10	...........	1583.05
	475	4.75	3.37288E-001	-1.23008E-003	0.00000E+000	-3.70030E-001	0.00000E+000	10	...........	1583.05
	476	4.76	3.35250E-001	-1.23008E-003	0.00000E+000	-3.70030E-001	0.00000E+000	10	...........	1583.05
	477	4.77	3.33244E-001	-1.23011E-003	0.00000E+000	-3.70030E-001	0.00000E+000	10	...........	1583.05
	478	4.78	3.31204E-001	-1.23004E-003	0.00000E+000	-3.70030E-001	0.00000E+000	10	...........	1583.05
	479	4.79	3.29201E-001	-1.23009E-003	0.00000E+000	-3.70030E-001	0.00000E+000	10	...........	1583.05
	480	4.8	3.27171E-001	-1.23007E-003	0.00000E+000	-3.70030E-001	0.00000E+000	10	...........	1583.05
	481	4.81	3.25172E-001	-1.23004E-003	0.00000E+000	-3.70030E-001	0.00000E+000	10	...........	1583.05
	482	4.82	3.23172E-001	-1.23009E-003	0.00000E+000	-3.70030E-001	0.00000E+000	10	...........	1583.05
	483	4.83	3.21182E-001	-1.23007E-003	0.00000E+000	-3.70030E-001	0.00000E+000	10	...........	1583.05
	484	4.84	3.19144E-001	-1.23010E-003	0.00000E+000	-3.70030E-001	0.00000E+000	10	...........	1583.05
	485	4.85	3.17161E-001	-1.23009E-003	0.00000E+000	-3.70030E-001	0.00000E+000	10	...........	1582.96
	486	4.86	3.15163E-001	-1.23010E-003	0.00000E+000	-3.70030E-001	0.00000E+000	10	...........	1582.96
	487	4.87	3.13172E-001	-1.23008E-003	0.00000E+000	-3.70030E-001	0.00000E+000	10	...........	1582.96
	488	4.88	3.11175E-001	-1.23009E-003	0.00000E+000	-3.70030E-001	0.00000E+000	10	...........	1582.96
	489	4.89	3.09192E-001	-1.23010E-003	0.00000E+000	-3.70030E-001	0.00000E+000	10	...........	1582.96
	490	4.9	3.07170E-001	-1.23008E-003	0.00000E+000	-3.70030E-001	0.00000E+000	10	...........	1582.96
	491	4.91	3.05172E-001	-1.23009E-003	0.00000E+000	-3.70030E-001	0.00000E+000	10	...........	1582.96
	492	4.92	3.03203E-001	-1.23004E-003	0.00000E+000	-3.70030E-001	0.00000E+000	10	...........	1582.96
	493	4.93	3.01225E-001	-1.23003E-003	0.00000E+000	-3.70030E-001	0.00000E+000	10	...........	1582.96
	494	4.94	2.99217E-001	-1.23007E-003	0.00000E+000	-3.70030E-001	0.00000E+000	10	...........	1582.96
	495	4.95	2.97250E-001	-1.23012E-003	0.00000E+000	-3.70030E-001	0.00000E+000	10	...........	1582.96
	496	4.96	2.95278E-001	-1.23009E-003	0.00000E+000	-3.70030E-001	0.00000E+000	10	...........	1582.96
	497	4.97	2.93280E-001	-1.23007E-003	0.00000E+000	-3.70030E-001	0.00000E+000	10	...........	1582.96
	498	4.98	2.91319E-001	-1.23011E-003	0.00000E+000	-3.70030E-001	0.00000E+000	10	...........	1582.96
	499	4.99	2.89355E-001	-1.23007E-003	0.00000E+000	-3.70030E-001	0.00000E+000	10	...........	1582.96
	500	5	2.87374E-001	-1.23007E-003	0.00000E+000	-3.70030E-001	0.00000E+000	10	...........	1582.96
	501	5.01	2.85416E-001	-1.23009E-003	0.00000E+000	-3.70030E-001	0.00000E+000	10	...........	1582.96
	502	5.02	2.83458E-001	-1.23008E-003	0.00000E+000	-3.70030E-001	0.00000E+000	10	...........	1582.96
	503	5.03	2.81458E-001	-1.23002E-003	0.00000E+000	-3.70030E-001	0.00000E+000	10	...........	1582.96
	504	5.04	2.79509E-001	-1.23006E-003	0.00000E+000	-3.70030E-001	0.00000E+000	10	...........	1582.96
	505	5.05	2.77546E-001	-1.23002E-003	0.00000E+000	-3.70030E-001	0.00000E+000	10	...........	1582.96
	506	5.06	2.75595E-001	-1.23002E-003	0.00000E+000	-3.70030E-001	0.00000E+000	10	...........	1582.96
	507	5.07	2.73634E-001	-1.23007E-003	0.00000E+000	-3.70030E-001	0.00000E+000	10	...........	1582.96
	508	5.08	2.71674E-001	-1.23009E-003	0.00000E+000	-3.70030E-001	0.00000E+000	10	...........	1582.96
	509	5.09	2.69723E-001	-1.23005E-003	0.00000E+000	-3.70030E-001	0.00000E+000	10	...........	1582.96
	510	5.1	2.67757E-001	-1.23006E-003	0.00000E+000	-3.70030E-001	0.00000E+000	10	...........	1582.96
	511	5.11	2.65811E-001	-1.23004E-003	0.00000E+000	-3.70030E-001	0.00000E+000	10	...........	1582.96
	512	5.12	2.63875E-001	-1.23002E-003	0.00000E+000	-3.70030E-001	0.00000E+000	10	...........	1582.96
	513	5.13	2.61935E-001	-1.23004E-003	0.00000E+000	-3.70030E-001	0.00000E+000	10	...........	1582.96
	514	5.14	2.60016E-001	-1.23003E-003	0.00000E+000	-3.70030E-001	0.00000E+000	10	...........	1582.96
	515	5.15	2.58090E-001	-1.23001E-003	0.00000E+000	-3.70030E-001	0.00000E+000	10	...........	1582.96
	516	5.16	2.56156E-001	-1.23000E-003	0.00000E+000	-3.70030E-001	0.00000E+000	10	...........	1582.96
	517	5.17	2.54178E-001	-1.23004E-003	0.00000E+000	-3.70030E-001	0.00000E+000	10	...........	1582.96
	518	5.18	2.52244E-001	-1.23009E-003	0.00000E+000	-3.70030E-001	0.00000E+000	10	...........	1582.96
	519	5.19	2.50303E-001	-1.23007E-003	0.00000E+000	-3.70030E-001	0.00000E+000	10	...........	1582.96
	520	5.2	2.48378E-001	-1.23009E-003	0.00000E+000	-3.70030E-001	0.00000E+000	10	...........	1582.96
	521	5.21	2.46471E-001	-1.23005E-003	0.00000E+000	-3.70030E-001	0.00000E+000	10	...........	1582.96
	522	5.22	2.44571E-001	-1.23001E-003	0.00000E+000	-3.70030E-001	0.00000E+000	10	...........	1582.96
	523	5.23	2.42618E-001	-1.23007E-003	0.00000E+000	-3.70030E-001	0.00000E+000	10	...........	1582.96
	524	5.24	2.40733E-001	-1.23009E-003	0.00000E+000	-3.70030E-001	0.00000E+000	10	...........	1582.96
	525	5.25	2.38817E-001	-1.23006E-003	0.00000E+000	-3.70030E-001	0.00000E+000	10	...........	1582.96
	526	5.26	2.36905E-001	-1.23007E-003	0.00000E+000	-3.70030E-001	0.00000E+000	10	...........	1582.96
	527	5.27	2.34992E-001	-1.23002E-003	0.00000E+000	-3.70030E-001	0.00000E+000	10	...........	1582.96
	528	5.28	2.33084E-001	-1.23004E-003	0.00000E+000	-3.70030E-001	0.00000E+000	10	...........	1582.96
	529	5.29	2.31178E-001	-1.23009E-003	0.00000E+000	-3.70030E-001	0.00000E+000	10	...........	1582.96
	530	5.3	2.29275E-001	-1.23003E-003	0.00000E+000	-3.70030E-001	0.00000E+000	10	...........	1582.96
	531	5.31	2.27374E-001	-1.23001E-003	0.00000E+000	-3.70030E-001	0.00000E+000	10	...........	1582.96
	532	5.32	2.25475E-001	-1.23006E-003	0.00000E+000	-3.70030E-001	0.00000E+000	10	...........	1582.96
	533	5.33	2.23580E-001	-1.23006E-003	0.00000E+000	-3.70030E-001	0.00000E+000	10	...........	1582.96
	534	5.34	2.21692E-001	-1.23007E-003	0.00000E+000	-3.70030E-001	0.00000E+000	10	...........	1582.96
	535	5.35	2.19800E-001	-1.23008E-003	0.00000E+000	-3.70030E-001	0.00000E+000	10	...........	1582.96
	536	5.36	2.17916E-001	-1.23002E-003	0.00000E+000	-3.70030E-001	0.00000E+000	10	...........	1582.96
	537	5.37	2.16035E-001	-1.23001E-003	0.00000E+000	-3.70030E-001	0.00000E+000	10	...........	1582.96
	538	5.38	2.14155E-001	-1.23006E-003	0.00000E+000	-3.70030E-001	0.00000E+000	10	...........	1582.96
	539	5.39	2.12272E-001	-1.23010E-003	0.00000E+000	-3.70030E-001	0.00000E+000	10	...........	1582.96
	540	5.4	2.10401E-001	-1.23006E-003	0.00000E+000	-3.70030E-001	0.00000E+000	10	...........	1582.96
	541	5.41	2.08527E-001	-1.23003E-003	0.00000E+000	-3.70030E-001	0.00000E+000	10	...........	1582.96
	542	5.42	2.06656E-001	-1.23006E-003	0.00000E+000	-3.70030E-001	0.00000E+000	10	...........	1582.96
	543	5.43	2.04794E-001	-1.23005E-003	0.00000E+000	-3.70030E-001	0.00000E+000	10	...........	1582.96
	544	5.44	2.02926E-001	-1.23007E-003	0.00000E+000	-3.70030E-001	0.00000E+000	10	...........	1582.96
	545	5.45	2.01068E-001	-1.23012E-003	0.00000E+000	-3.70030E-001	0.00000E+000	10	...........	1582.96
	546	5.46	1.99209E-001	-1.23004E-003	0.00000E+000	-3.70030E-001	0.00000E+000	10	...........	1582.96
	547	5.47	1.97359E-001	-1.23007E-003	0.00000E+000	-3.70030E-001	0.00000E+000	10	...........	1582.96
	548	5.48	1.95508E-001	-1.23002E-003	0.00000E+000	-3.70030E-001	0.00000E+000	10	...........	1582.96
	549	5.49	1.93662E-001	-1.23004E-003	0.00000E+000	-3.70030E-001	0.00000E+000	10	...........	1582.96
	550	5.5	1.91814E-001	-1.23014E-003	0.00000E+000	-3.70030E-001	0.00000E+000	10	...........	1582.96
	551	5.51	1.89976E-001	-1.23007E-003	0.00000E+000	-3.70030E-001	0.00000E+000	10	...........	1582.96
	552	5.52	1.88136E-001	-1.23006E-003	0.00000E+000	-3.70030E-001	0.00000E+000	10	...........	1582.96
	553	5.53	1.86304E-001	-1.23011E-003	0.00000E+000	-3.70030E-001	0.00000E+000	10	...........	1582.96
	554	5.54	1.84478E-001	-1.23007E-003	0.00000E+000	-3.70030E-001	0.00000E+000	10	...........	1582.96
	555	5.55	1.82652E-001	-1.23007E-003	0.00000E+000	-3.70030E-001	0.00000E+000	10	...........	1582.96
	556	5.56	1.80832E-001	-1.23006E-003	0.00000E+000	-3.70030E-001	0.00000E+000	10	...........	1582.96
	557	5.57	1.79011E-001	-1.23008E-003	0.00000E+000	-3.70030E-001	0.00000E+000	10	...........	1582.96
	558	5.58	1.77200E-001	-1.23013E-003	0.00000E+000	-3.70030E-001	0.00000E+000	10	...........	1582.96
	559	5.59	1.75387E-001	-1.23007E-003	0.00000E+000	-3.70030E-001	0.00000E+000	10	...........	1582.96
	560	5.6	1.73581E-001	-1.23009E-003	0.00000E+000	-3.70030E-001	0.00000E+000	10	...........	1582.96
	561	5.61	1.71780E-001	-1.23006E-003	0.00000E+000	-3.70030E-001	0.00000E+000	10	...........	1582.96
	562	5.62	1.69977E-001	-1.23006E-003	0.00000E+000	-3.70030E-001	0.00000E+000	10	...........	1582.96
	563	5.63	1.68180E-001	-1.23006E-003	0.00000E+000	-3.70030E-001	0.00000E+000	10	...........	1582.96
	564	5.64	1.66390E-001	-1.23009E-003	0.00000E+000	-3.70030E-001	0.00000E+000	10	...........	1582.96
	565	5.65	1.64601E-001	-1.23009E-003	0.00000E+000	-3.70030E-001	0.00000E+000	10	...........	1582.96
	566	5.66	1.62823E-001	-1.23009E-003	0.00000E+000	-3.70030E-001	0.00000E+000	10	...........	1582.96
	567	5.67	1.61037E-001	-1.23006E-003	0.00000E+000	-3.70030E-001	0.00000E+000	10	...........	1582.96
	568	5.68	1.59262E-001	-1.23012E-003	0.00000E+000	-3.70030E-001	0.00000E+000	10	...........	1582.96
	569	5.69	1.57493E-001	-1.23005E-003	0.00000E+000	-3.70030E-001	0.00000E+000	10	...........	1582.96
	570	5.7	1.55725E-001	-1.23007E-003	0.00000E+000	-3.70030E-001	0.00000E+000	10	...........	1582.96
	571	5.71	1.53966E-001	-1.23003E-003	0.00000E+000	-3.70030E-001	0.00000E+000	10	...........	1582.96
	572	5.72	1.52206E-001	-1.23006E-003	0.00000E+000	-3.70030E-001	0.00000E+000	10	...........	1582.96
	573	5.73	1.50448E-001	-1.23011E-003	0.00000E+000	-3.70030E-001	0.00000E+000	10	...........	1582.96
	574	5.74	1.48699E-001	-1.23009E-003	0.00000E+000	-3.70030E-001	0.00000E+000	10	...........	1582.96
	575	5.75	1.46949E-001	-1.23009E-003	0.00000E+000	-3.70030E-001	0.00000E+000	10	...........	1582.96
	576	5.76	1.45207E-001	-1.23003E-003	0.00000E+000	-3.70030E-001	0.00000E+000	10	...........	1582.96
	577	5.77	1.43473E-001	-1.23005E-003	0.00000E+000	-3.70030E-001	0.00000E+000	10	...........	1582.96
	578	5.78	1.41742E-001	-1.22995E-003	0.00000E+000	-3.70030E-001	0.00000E+000	10	...........	1582.96
	579	5.79	1.40016E-001	-1.23006E-003	0.00000E+000	-3.70030E-001	0.00000E+000	10	...........	1582.96
	580	5.8	1.38293E-001	-1.23009E-003	0.00000E+000	-3.70030E-001	0.00000E+000	10	...........	1582.96
	581	5.81	1.36567E-001	-1.23008E-003	0.00000E+000	-3.70030E-001	0.00000E+000	10	...........	1582.96
	582	5.82	1.34853E-001	-1.23011E-003	0.00000E+000	-3.70030E-001	0.00000E+000	10	...........	1582.96
	583	5.83	1.33144E-001	-1.23006E-003	0.00000E+000	-3.70030E-001	0.00000E+000	10	...........	1582.96
	584	5.84	1.31438E-001	-1.23003E-003	0.00000E+000	-3.70030E-001	0.00000E+000	10	...........	1582.96
	585	5.85	1.29738E-001	-1.23007E-003	0.00000E+000	-3.70030E-001	0.00000E+000	10	...........	1583.14
	586	5.86	1.28038E-001	-1.23009E-003	0.00000E+000	-3.70030E-001	0.00000E+000	10	...........	1583.15
	587	5.87	1.26345E-001	-1.23008E-003	0.00000E+000	-3.70030E-001	0.00000E+000	10	...........	1583.15
	588	5.88	1.24656E-001	-1.23008E-003	0.00000E+000	-3.70030E-001	0.00000E+000	10	...........	1583.15
	589	5.89	1.22971E-001	-1.23005E-003	0.00000E+000	-3.70030E-001	0.00000E+000	10	...........	1583.15
	590	5.9	1.21295E-001	-1.23005E-003	0.00000E+000	-3.70030E-001	0.00000E+000	10	...........	1583.15
	591	5.91	1.19619E-001	-1.23006E-003	0.00000E+000	-3.70030E-001	0.00000E+000	10	...........	1583.15
	592	5.92	1.17954E-001	-1.23001E-003	0.00000E+000	-3.70030E-001	0.00000E+000	10	...........	1583.15
	593	5.93	1.16289E-001	-1.23003E-003	0.00000E+000	-3.70030E-001	0.00000E+000	10	...........	1583.15
	594	5.94	1.14628E-001	-1.23005E-003	0.00000E+000	-3.70030E-001	0.00000E+000	10	...........	1583.15
	595	5.95	1.12973E-001	-1.23007E-003	0.00000E+000	-3.70030E-001	0.00000E+000	10	...........	1583.15
	596	5.96	1.11324E-001	-1.23008E-003	0.00000E+000	-3.70030E-001	0.00000E+000	10	...........	1583.15
	597	5.97	1.09674E-001	-1.23006E-003	0.00000E+000	-3.70030E-001	0.00000E+000	10	...........	1583.15
	598	5.98	1.08037E-001	-1.23004E-003	0.00000E+000	-3.70030E-001	0.00000E+000	10	...........	1583.15
	599	5.99	1.06403E-001	-1.23010E-003	0.00000E+000	-3.70030E-001	0.00000E+000	10	...........	1583.15
	600	6	1.04773E-001	-1.23009E-003	0.00000E+000	-3.70030E-001	0.00000E+000	10	...........	1583.15
	601	6.01	1.03145E-001	-1.23006E-003	0.00000E+000	-3.70030E-001	0.00000E+000	10	...........	1583.15
	602	6.02	1.01528E-001	-1.23009E-003	0.00000E+000	-3.70030E-001	0.00000E+000	10	...........	1583.15
	603	6.03	9.99074E-002	-1.23007E-003	0.00000E+000	-3.70030E-001	0.00000E+000	10	...........	1583.15
	604	6.04	9.82973E-002	-1.23003E-003	0.00000E+000	-3.70030E-001	0.00000E+000	10	...........	1583.15
	605	6.05	9.66901E-002	-1.23008E-003	0.00000E+000	-3.70030E-001	0.00000E+000	10	...........	1583.15
	606	6.06	9.50902E-002	-1.23006E-003	0.00000E+000	-3.70030E-001	0.00000E+000	10	...........	1583.15
	607	6.07	9.34926E-002	-1.23005E-003	0.00000E+000	-3.70030E-001	0.00000E+000	10	...........	1583.15
	608	6.08	9.18999E-002	-1.23009E-003	0.00000E+000	-3.70030E-001	0.00000E+000	10	...........	1583.15
	609	6.09	9.03146E-002	-1.23009E-003	0.00000E+000	-3.70030E-001	0.00000E+000	10	...........	1583.15
	610	6.1	8.87303E-002	-1.23012E-003	0.00000E+000	-3.70030E-001	0.00000E+000	10	...........	1583.15
	611	6.11	8.71543E-002	-1.23008E-003	0.00000E+000	-3.70030E-001	0.00000E+000	10	...........	1583.15
	612	6.12	8.55809E-002	-1.23011E-003	0.00000E+000	-3.70030E-001	0.00000E+000	10	...........	1583.15
	613	6.13	8.40127E-002	-1.23010E-003	0.00000E+000	-3.70030E-001	0.00000E+000	10	...........	1583.15
	614	6.14	8.24526E-002	-1.23007E-003	0.00000E+000	-3.70030E-001	0.00000E+000	10	...........	1583.15
	615	6.15	8.08997E-002	-1.23008E-003	0.00000E+000	-3.70030E-001	0.00000E+000	10	...........	1583.15
	616	6.16	7.93449E-002	-1.23008E-003	0.00000E+000	-3.70030E-001	0.00000E+000	10	...........	1583.15
	617	6.17	7.77975E-002	-1.23012E-003	0.00000E+000	-3.70030E-001	0.00000E+000	10	...........	1583.15
	618	6.18	7.62517E-002	-1.23012E-003	0.00000E+000	-3.70030E-001	0.00000E+000	10	...........	1583.15
	619	6.19	7.47145E-002	-1.23016E-003	0.00000E+000	-3.70030E-001	0.00000E+000	10	...........	1583.15
	620	6.2	7.31778E-002	-1.23018E-003	0.00000E+000	-3.70030E-001	0.00000E+000	10	...........	1583.15
	621	6.21	7.16504E-002	-1.23014E-003	0.00000E+000	-3.70030E-001	0.00000E+000	10	...........	1583.15
	622	6.22	7.01278E-002	-1.23004E-003	0.00000E+000	-3.70030E-001	0.00000E+000	10	...........	1583.15
	623	6.23	6.86085E-002	-1.23005E-003	0.00000E+000	-3.70030E-001	0.00000E+000	10	...........	1583.15
	624	6.24	6.70954E-002	-1.23006E-003	0.00000E+000	-3.70030E-001	0.00000E+000	10	...........	1583.15
	625	6.25	6.55854E-002	-1.23007E-003	0.00000E+000	-3.70030E-001	0.00000E+000	10	...........	1583.15
	626	6.26	6.40846E-002	-1.23011E-003	0.00000E+000	-3.70030E-001	0.00000E+000	10	...........	1583.15
	627	6.27	6.25831E-002	-1.23005E-003	0.00000E+000	-3.70030E-001	0.00000E+000	10	...........	1583.15
	628	6.28	6.10858E-002	-1.23005E-003	0.00000E+000	-3.70030E-001	0.00000E+000	10	...........	1583.15
	629	6.29	5.95973E-002	-1.23006E-003	0.00000E+000	-3.70030E-001	0.00000E+000	10	...........	1583.15
	630	6.3	5.81113E-002	-1.23003E-003	0.00000E+000	-3.70030E-001	0.00000E+000	10	...........	1583.15
	631	6.31	5.66326E-002	-1.23002E-003	0.00000E+000	-3.70030E-001	0.00000E+000	10	...........	1583.15
	632	6.32	5.51548E-002	-1.23005E-003	0.00000E+000	-3.70030E-001	0.00000E+000	10	...........	1583.15
	633	6.33	5.36848E-002	-1.23005E-003	0.00000E+000	-3.70030E-001	0.00000E+000	10	...........	1583.15
	634	6.34	5.22165E-002	-1.23007E-003	0.00000E+000	-3.70030E-001	0.00000E+000	10	...........	1583.15
	635	6.35	5.07545E-002	-1.23005E-003	0.00000E+000	-3.70030E-001	0.00000E+000	10	...........	1583.15
	636	6.36	4.93005E-002	-1.23005E-003	0.00000E+000	-3.70030E-001	0.00000E+000	10	...........	1583.15
	637	6.37	4.78498E-002	-1.23000E-003	0.00000E+000	-3.70030E-001	0.00000E+000	10	...........	1583.15
	638	6.38	4.64039E-002	-1.23003E-003	0.00000E+000	-3.70030E-001	0.00000E+000	10	...........	1583.15
	639	6.39	4.49596E-002	-1.23006E-003	0.00000E+000	-3.70030E-001	0.00000E+000	10	...........	1583.15
	640	6.4	4.35242E-002	-1.23009E-003	0.00000E+000	-3.70030E-001	0.00000E+000	10	...........	1583.15
	641	6.41	4.20883E-002	-1.23005E-003	0.00000E+000	-3.70030E-001	0.00000E+000	10	...........	1583.15
	642	6.42	4.06613E-002	-1.23004E-003	0.00000E+000	-3.70030E-001	0.00000E+000	10	...........	1583.15
	643	6.43	3.92393E-002	-1.23004E-003	0.00000E+000	-3.70030E-001	0.00000E+000	10	...........	1583.15
	644	6.44	3.78188E-002	-1.23001E-003	0.00000E+000	-3.70030E-001	0.00000E+000	10	...........	1583.15
	645	6.45	3.64050E-002	-1.23002E-003	0.00000E+000	-3.70030E-001	0.00000E+000	10	...........	1583.15
	646	6.46	3.49970E-002	-1.23005E-003	0.00000E+000	-3.70030E-001	0.00000E+000	10	...........	1583.15
	647	6.47	3.35940E-002	-1.23000E-003	0.00000E+000	-3.70030E-001	0.00000E+000	10	...........	1583.15
	648	6.48	3.21936E-002	-1.23004E-003	0.00000E+000	-3.70030E-001	0.00000E+000	10	...........	1583.15
	649	6.49	3.07986E-002	-1.23004E-003	0.00000E+000	-3.70030E-001	0.00000E+000	10	...........	1583.15
	650	6.5	2.94080E-002	-1.23008E-003	0.00000E+000	-3.70030E-001	0.00000E+000	10	...........	1583.15
	651	6.51	2.80192E-002	-1.23006E-003	0.00000E+000	-3.70030E-001	0.00000E+000	10	...........	1583.15
	652	6.52	2.66425E-002	-1.23012E-003	0.00000E+000	-3.70030E-001	0.00000E+000	10	...........	1583.15
	653	6.53	2.52584E-002	-1.23014E-003	0.00000E+000	-3.70030E-001	0.00000E+000	10	...........	1583.15
	654	6.54	2.38878E-002	-1.23011E-003	0.00000E+000	-3.70030E-001	0.00000E+000	10	...........	1583.15
	655	6.55	2.25273E-002	-1.23012E-003	0.00000E+000	-3.70030E-001	0.00000E+000	10	...........	1583.15
	656	6.56	2.11628E-002	-1.23010E-003	0.00000E+000	-3.70030E-001	0.00000E+000	10	...........	1583.15
	657	6.57	1.98032E-002	-1.23008E-003	0.00000E+000	-3.70030E-001	0.00000E+000	10	...........	1583.15
	658	6.58	1.84486E-002	-1.22999E-003	0.00000E+000	-3.70030E-001	0.00000E+000	10	...........	1583.15
	659	6.59	1.70956E-002	-1.23005E-003	0.00000E+000	-3.70030E-001	0.00000E+000	10	...........	1583.15
	660	6.6	1.57533E-002	-1.23003E-003	0.00000E+000	-3.70030E-001	0.00000E+000	10	...........	1583.15
	661	6.61	1.44140E-002	-1.23003E-003	0.00000E+000	-3.70030E-001	0.00000E+000	10	...........	1583.15
	662	6.62	1.30736E-002	-1.23006E-003	0.00000E+000	-3.70030E-001	0.00000E+000	10	...........	1583.15
	663	6.63	1.17428E-002	-1.23006E-003	0.00000E+000	-3.70030E-001	0.00000E+000	10	...........	1583.15
	664	6.64	1.04104E-002	-1.23007E-003	0.00000E+000	-3.70030E-001	0.00000E+000	10	...........	1583.15
	665	6.65	9.08658E-003	-1.23006E-003	0.00000E+000	-3.70030E-001	0.00000E+000	10	...........	1583.15
	666	6.66	7.76970E-003	-1.23005E-003	0.00000E+000	-3.70030E-001	0.00000E+000	10	...........	1583.15
	667	6.67	6.45305E-003	-1.23006E-003	0.00000E+000	-3.70030E-001	0.00000E+000	10	...........	1583.15
	668	6.68	5.14340E-003	-1.23007E-003	0.00000E+000	-3.70030E-001	0.00000E+000	10	...........	1583.15
	669	6.69	3.83432E-003	-1.23005E-003	0.00000E+000	-3.70030E-001	0.00000E+000	10	...........	1583.15
	670	6.7	2.53150E-003	-1.23002E-003	0.00000E+000	-3.70030E-001	0.00000E+000	10	...........	1583.15
	671	6.71	1.23366E-003	-1.23003E-003	0.00000E+000	-3.70030E-001	0.00000E+000	10	...........	1583.15
	672	6.72	-5.92230E-005	-1.22999E-003	0.00000E+000	-3.70030E-001	0.00000E+000	10	...........	1583.15
