EXPLAIN
TAG	CHRONOP
TITLE	LABEL	Chronopotentiometry Scan	Test Identifier
DATE	LABEL	23/1/2025	Date
TIME	LABEL	2:58:36	Time
NOTES	NOTES	1	Notes...
	
PSTAT	PSTAT	IFC1010-42004	Potentiostat
IPRESTEP	QUANT	0.00000E+000	Pre-step Current(A)
TPRESTEP	QUANT	0.00000E+000	Pre-step Delay Time (s)
ISTEP1	QUANT	1.23000E-003	Step 1 Current (A)
TSTEP1	QUANT	5.00000E+003	Step 1 Time (s)
ISTEP2	QUANT	-1.23000E-003	Step 2 Current (A)
TSTEP2	QUANT	5.00000E+003	Step 2 Time (s)
SAMPLETIME	QUANT	1.00000E-002	Sample Period (s)
DECIMATE	TOGGLE	F	Decimate
VLIMITLOWER	QUANT	0.00000E+000	Lower Limit V (V)
VLIMITUPPER	QUANT	8.00000E-001	Upper Limit V (V)
EQDELAY	QUANT	1.00000E+000	Equil. Time (s)
SAMPLINGMODE	SELECTOR	1	Sampling Mode
AREA	QUANT	2.00000E+000	Sample Area (cm^2)
ELECTRODETYPE	SELECTOR	0	Electrode Type
STRIPPING	TOGGLE	F	Used for Stripping
SEQUENCER	TOGGLE	TRUE	Run as Sequence
PSTATMODEL	IQUANT	64	Pstat Model
PSTATSECTION	LABEL	IFC1010-42004	Pstat Section
PSTATSERIALNO	LABEL	42004	Pstat Serial Number
CTRLMODE	IQUANT	0	Control Mode
ELECTROMETER	IQUANT	0	RE=0 or CS=1
IESTAB	IQUANT	0	I/E Stability
CASPEED	IQUANT	4	Control Amp Speed
CONVENTION	IQUANT	1	Current Convention
ICHRANGE	IQUANT	2	Ich Range
ICHRANGEMODE	TOGGLE	T	Ich Auto Range
ICHOFFSETENABLE	TOGGLE	F	Ich Offset Enable
ICHOFFSET	QUANT	0	Ich Offset (V)
ICHFILTER	IQUANT	3	Ich Filter
VCHRANGE	IQUANT	3	Vch Range
VCHRANGEMODE	TOGGLE	T	Vch Auto Range
VCHOFFSETENABLE	TOGGLE	F	Vch Offset Enable
VCHOFFSET	QUANT	0	Vch Offset (V)
VCHFILTER	IQUANT	3	Vch Filter
IERANGELOWERLIMIT	IQUANT	4	I/E Range Lower Limit
IERANGEMODE	TOGGLE	F	I/E AutoRange
IERANGE	IQUANT	11	I/E Range
ACHSELECT	IQUANT	0	Ach Select
ACHRANGE	IQUANT	2	Ach Range
ACHOFFSETENABLE	TOGGLE	F	Ach Offset Enable
ACHOFFSET	QUANT	0	Ach Offset (V)
ACHFILTER	IQUANT	1	Ach Filter
SENSECABLEID	IQUANT	14	Sense Cable ID
PWRCABLEID	IQUANT	14	Power Cable ID
DCCALDATE	LABEL	1/22/2025	DC Calibration Date
ACCALDATE	LABEL	11/15/2024	AC Calibration Date
FRAMEWORKVERSION	LABEL	7.10.4	Framework Version
INSTRUMENTVERSION	LABEL	4.91	Instrument Version
COMMVERSION	LABEL	3.10	Communications Version
CPUPLDVERSION	LABEL	2.54	CPU PLD Version
CTRLPLDVERSION	LABEL	0.00	CTRL PLD Version
PSTATPLDVERSION	LABEL	0.00	PSTAT PLD Version
CURVE	TABLE	630
	Pt	T	Vf	Im	Vu	Sig	Ach	IERange	Over	Temp
	#	s	V vs. Ref.	A	V	V	V	#	bits	deg C
	0	0	2.34776E-001	4.70323E-008	0.00000E+000	0.00000E+000	0.00000E+000	10	...........	1583.15
	1	0.01	2.49152E-001	1.22974E-003	0.00000E+000	3.70030E-001	0.00000E+000	10	...........	1583.15
	2	0.02	2.51764E-001	1.22971E-003	0.00000E+000	3.70030E-001	0.00000E+000	10	...........	1583.15
	3	0.03	2.54069E-001	1.22976E-003	0.00000E+000	3.70030E-001	0.00000E+000	10	...........	1583.15
	4	0.04	2.56362E-001	1.22982E-003	0.00000E+000	3.70030E-001	0.00000E+000	10	...........	1583.15
	5	0.05	2.58531E-001	1.22982E-003	0.00000E+000	3.70030E-001	0.00000E+000	10	...........	1583.15
	6	0.06	2.60686E-001	1.22977E-003	0.00000E+000	3.70030E-001	0.00000E+000	10	...........	1583.15
	7	0.07	2.62821E-001	1.22975E-003	0.00000E+000	3.70030E-001	0.00000E+000	10	...........	1583.15
	8	0.08	2.64930E-001	1.22974E-003	0.00000E+000	3.70030E-001	0.00000E+000	10	...........	1583.15
	9	0.09	2.67063E-001	1.22976E-003	0.00000E+000	3.70030E-001	0.00000E+000	10	...........	1583.15
	10	0.1	2.69208E-001	1.22984E-003	0.00000E+000	3.70030E-001	0.00000E+000	10	...........	1583.15
	11	0.11	2.71318E-001	1.22983E-003	0.00000E+000	3.70030E-001	0.00000E+000	10	...........	1583.15
	12	0.12	2.73407E-001	1.22976E-003	0.00000E+000	3.70030E-001	0.00000E+000	10	...........	1583.15
	13	0.13	2.75528E-001	1.22972E-003	0.00000E+000	3.70030E-001	0.00000E+000	10	...........	1583.15
	14	0.14	2.77618E-001	1.22973E-003	0.00000E+000	3.70030E-001	0.00000E+000	10	...........	1583.15
	15	0.15	2.79741E-001	1.22979E-003	0.00000E+000	3.70030E-001	0.00000E+000	10	...........	1583.15
	16	0.16	2.81855E-001	1.22976E-003	0.00000E+000	3.70030E-001	0.00000E+000	10	...........	1583.15
	17	0.17	2.83985E-001	1.22974E-003	0.00000E+000	3.70030E-001	0.00000E+000	10	...........	1583.15
	18	0.18	2.86060E-001	1.22978E-003	0.00000E+000	3.70030E-001	0.00000E+000	10	...........	1583.15
	19	0.19	2.88175E-001	1.22976E-003	0.00000E+000	3.70030E-001	0.00000E+000	10	...........	1583.15
	20	0.2	2.90285E-001	1.22979E-003	0.00000E+000	3.70030E-001	0.00000E+000	10	...........	1583.15
	21	0.21	2.92388E-001	1.22976E-003	0.00000E+000	3.70030E-001	0.00000E+000	10	...........	1583.15
	22	0.22	2.94507E-001	1.22979E-003	0.00000E+000	3.70030E-001	0.00000E+000	10	...........	1583.15
	23	0.23	2.96636E-001	1.22978E-003	0.00000E+000	3.70030E-001	0.00000E+000	10	...........	1583.15
	24	0.24	2.98729E-001	1.22978E-003	0.00000E+000	3.70030E-001	0.00000E+000	10	...........	1583.15
	25	0.25	3.00855E-001	1.22981E-003	0.00000E+000	3.70030E-001	0.00000E+000	10	...........	1583.15
	26	0.26	3.02954E-001	1.22982E-003	0.00000E+000	3.70030E-001	0.00000E+000	10	...........	1583.15
	27	0.27	3.05077E-001	1.22979E-003	0.00000E+000	3.70030E-001	0.00000E+000	10	...........	1583.15
	28	0.28	3.07173E-001	1.22978E-003	0.00000E+000	3.70030E-001	0.00000E+000	10	...........	1583.63
	29	0.29	3.09329E-001	1.22978E-003	0.00000E+000	3.70030E-001	0.00000E+000	10	...........	1583.63
	30	0.3	3.11442E-001	1.22975E-003	0.00000E+000	3.70030E-001	0.00000E+000	10	...........	1583.63
	31	0.31	3.13556E-001	1.22975E-003	0.00000E+000	3.70030E-001	0.00000E+000	10	...........	1583.63
	32	0.32	3.15678E-001	1.22978E-003	0.00000E+000	3.70030E-001	0.00000E+000	10	...........	1583.63
	33	0.33	3.17801E-001	1.22971E-003	0.00000E+000	3.70030E-001	0.00000E+000	10	...........	1583.63
	34	0.34	3.19915E-001	1.22979E-003	0.00000E+000	3.70030E-001	0.00000E+000	10	...........	1583.63
	35	0.35	3.22057E-001	1.22979E-003	0.00000E+000	3.70030E-001	0.00000E+000	10	...........	1583.63
	36	0.36	3.24165E-001	1.22980E-003	0.00000E+000	3.70030E-001	0.00000E+000	10	...........	1583.63
	37	0.37	3.26300E-001	1.22980E-003	0.00000E+000	3.70030E-001	0.00000E+000	10	...........	1583.63
	38	0.38	3.28445E-001	1.22978E-003	0.00000E+000	3.70030E-001	0.00000E+000	10	...........	1583.63
	39	0.39	3.30568E-001	1.22975E-003	0.00000E+000	3.70030E-001	0.00000E+000	10	...........	1583.63
	40	0.4	3.32703E-001	1.22985E-003	0.00000E+000	3.70030E-001	0.00000E+000	10	...........	1583.63
	41	0.41	3.34861E-001	1.22981E-003	0.00000E+000	3.70030E-001	0.00000E+000	10	...........	1583.63
	42	0.42	3.37006E-001	1.22984E-003	0.00000E+000	3.70030E-001	0.00000E+000	10	...........	1583.63
	43	0.43	3.39119E-001	1.22982E-003	0.00000E+000	3.70030E-001	0.00000E+000	10	...........	1583.63
	44	0.44	3.41252E-001	1.22979E-003	0.00000E+000	3.70030E-001	0.00000E+000	10	...........	1583.63
	45	0.45	3.43384E-001	1.22973E-003	0.00000E+000	3.70030E-001	0.00000E+000	10	...........	1583.63
	46	0.46	3.45510E-001	1.22979E-003	0.00000E+000	3.70030E-001	0.00000E+000	10	...........	1583.63
	47	0.47	3.47693E-001	1.22982E-003	0.00000E+000	3.70030E-001	0.00000E+000	10	...........	1583.63
	48	0.48	3.49828E-001	1.22982E-003	0.00000E+000	3.70030E-001	0.00000E+000	10	...........	1583.63
	49	0.49	3.51948E-001	1.22979E-003	0.00000E+000	3.70030E-001	0.00000E+000	10	...........	1583.63
	50	0.5	3.54085E-001	1.22973E-003	0.00000E+000	3.70030E-001	0.00000E+000	10	...........	1583.63
	51	0.51	3.56222E-001	1.22976E-003	0.00000E+000	3.70030E-001	0.00000E+000	10	...........	1583.63
	52	0.52	3.58375E-001	1.22979E-003	0.00000E+000	3.70030E-001	0.00000E+000	10	...........	1583.63
	53	0.53	3.60547E-001	1.22978E-003	0.00000E+000	3.70030E-001	0.00000E+000	10	...........	1583.63
	54	0.54	3.62697E-001	1.22980E-003	0.00000E+000	3.70030E-001	0.00000E+000	10	...........	1583.63
	55	0.55	3.64845E-001	1.22978E-003	0.00000E+000	3.70030E-001	0.00000E+000	10	...........	1583.63
	56	0.56	3.67008E-001	1.22978E-003	0.00000E+000	3.70030E-001	0.00000E+000	10	...........	1583.63
	57	0.57	3.69164E-001	1.22979E-003	0.00000E+000	3.70030E-001	0.00000E+000	10	...........	1583.63
	58	0.58	3.71311E-001	1.22975E-003	0.00000E+000	3.70030E-001	0.00000E+000	10	...........	1583.63
	59	0.59	3.73483E-001	1.22981E-003	0.00000E+000	3.70030E-001	0.00000E+000	10	...........	1583.63
	60	0.6	3.75633E-001	1.22976E-003	0.00000E+000	3.70030E-001	0.00000E+000	10	...........	1583.63
	61	0.61	3.77787E-001	1.22980E-003	0.00000E+000	3.70030E-001	0.00000E+000	10	...........	1583.63
	62	0.62	3.79951E-001	1.22980E-003	0.00000E+000	3.70030E-001	0.00000E+000	10	...........	1583.63
	63	0.63	3.82096E-001	1.22975E-003	0.00000E+000	3.70030E-001	0.00000E+000	10	...........	1583.63
	64	0.64	3.84274E-001	1.22983E-003	0.00000E+000	3.70030E-001	0.00000E+000	10	...........	1583.63
	65	0.65	3.86459E-001	1.22978E-003	0.00000E+000	3.70030E-001	0.00000E+000	10	...........	1583.63
	66	0.66	3.88616E-001	1.22975E-003	0.00000E+000	3.70030E-001	0.00000E+000	10	...........	1583.63
	67	0.67	3.90793E-001	1.22981E-003	0.00000E+000	3.70030E-001	0.00000E+000	10	...........	1583.63
	68	0.68	3.92955E-001	1.22980E-003	0.00000E+000	3.70030E-001	0.00000E+000	10	...........	1583.63
	69	0.69	3.95112E-001	1.22979E-003	0.00000E+000	3.70030E-001	0.00000E+000	10	...........	1583.63
	70	0.7	3.97299E-001	1.22974E-003	0.00000E+000	3.70030E-001	0.00000E+000	10	...........	1583.63
	71	0.71	3.99459E-001	1.22979E-003	0.00000E+000	3.70030E-001	0.00000E+000	10	...........	1583.63
	72	0.72	4.01634E-001	1.22976E-003	0.00000E+000	3.70030E-001	0.00000E+000	10	...........	1583.63
	73	0.73	4.03809E-001	1.22974E-003	0.00000E+000	3.70030E-001	0.00000E+000	10	...........	1583.63
	74	0.74	4.05981E-001	1.22971E-003	0.00000E+000	3.70030E-001	0.00000E+000	10	...........	1583.63
	75	0.75	4.08156E-001	1.22970E-003	0.00000E+000	3.70030E-001	0.00000E+000	10	...........	1583.63
	76	0.76	4.10349E-001	1.22971E-003	0.00000E+000	3.70030E-001	0.00000E+000	10	...........	1583.63
	77	0.77	4.12530E-001	1.22974E-003	0.00000E+000	3.70030E-001	0.00000E+000	10	...........	1583.63
	78	0.78	4.14693E-001	1.22972E-003	0.00000E+000	3.70030E-001	0.00000E+000	10	...........	1583.63
	79	0.79	4.16870E-001	1.22970E-003	0.00000E+000	3.70030E-001	0.00000E+000	10	...........	1583.63
	80	0.8	4.19064E-001	1.22976E-003	0.00000E+000	3.70030E-001	0.00000E+000	10	...........	1583.63
	81	0.81	4.21249E-001	1.22975E-003	0.00000E+000	3.70030E-001	0.00000E+000	10	...........	1583.63
	82	0.82	4.23443E-001	1.22977E-003	0.00000E+000	3.70030E-001	0.00000E+000	10	...........	1583.63
	83	0.83	4.25632E-001	1.22970E-003	0.00000E+000	3.70030E-001	0.00000E+000	10	...........	1583.63
	84	0.84	4.27792E-001	1.22972E-003	0.00000E+000	3.70030E-001	0.00000E+000	10	...........	1583.63
	85	0.85	4.30001E-001	1.22970E-003	0.00000E+000	3.70030E-001	0.00000E+000	10	...........	1583.63
	86	0.86	4.32181E-001	1.22974E-003	0.00000E+000	3.70030E-001	0.00000E+000	10	...........	1583.63
	87	0.87	4.34363E-001	1.22974E-003	0.00000E+000	3.70030E-001	0.00000E+000	10	...........	1583.63
	88	0.88	4.36578E-001	1.22970E-003	0.00000E+000	3.70030E-001	0.00000E+000	10	...........	1583.63
	89	0.89	4.38779E-001	1.22976E-003	0.00000E+000	3.70030E-001	0.00000E+000	10	...........	1583.63
	90	0.9	4.40958E-001	1.22974E-003	0.00000E+000	3.70030E-001	0.00000E+000	10	...........	1583.63
	91	0.91	4.43155E-001	1.22978E-003	0.00000E+000	3.70030E-001	0.00000E+000	10	...........	1583.63
	92	0.92	4.45351E-001	1.22975E-003	0.00000E+000	3.70030E-001	0.00000E+000	10	...........	1583.63
	93	0.93	4.47555E-001	1.22978E-003	0.00000E+000	3.70030E-001	0.00000E+000	10	...........	1583.63
	94	0.94	4.49765E-001	1.22975E-003	0.00000E+000	3.70030E-001	0.00000E+000	10	...........	1583.63
	95	0.95	4.51969E-001	1.22979E-003	0.00000E+000	3.70030E-001	0.00000E+000	10	...........	1583.63
	96	0.96	4.54153E-001	1.22979E-003	0.00000E+000	3.70030E-001	0.00000E+000	10	...........	1583.63
	97	0.97	4.56348E-001	1.22981E-003	0.00000E+000	3.70030E-001	0.00000E+000	10	...........	1583.63
	98	0.98	4.58553E-001	1.22971E-003	0.00000E+000	3.70030E-001	0.00000E+000	10	...........	1583.63
	99	0.99	4.60757E-001	1.22972E-003	0.00000E+000	3.70030E-001	0.00000E+000	10	...........	1583.63
	100	1	4.62991E-001	1.22977E-003	0.00000E+000	3.70030E-001	0.00000E+000	10	...........	1583.63
	101	1.01	4.65175E-001	1.22976E-003	0.00000E+000	3.70030E-001	0.00000E+000	10	...........	1583.63
	102	1.02	4.67387E-001	1.22981E-003	0.00000E+000	3.70030E-001	0.00000E+000	10	...........	1583.63
	103	1.03	4.69596E-001	1.22978E-003	0.00000E+000	3.70030E-001	0.00000E+000	10	...........	1583.63
	104	1.04	4.71794E-001	1.22976E-003	0.00000E+000	3.70030E-001	0.00000E+000	10	...........	1583.63
	105	1.05	4.74014E-001	1.22978E-003	0.00000E+000	3.70030E-001	0.00000E+000	10	...........	1583.63
	106	1.06	4.76233E-001	1.22978E-003	0.00000E+000	3.70030E-001	0.00000E+000	10	...........	1583.63
	107	1.07	4.78446E-001	1.22975E-003	0.00000E+000	3.70030E-001	0.00000E+000	10	...........	1583.63
	108	1.08	4.80651E-001	1.22976E-003	0.00000E+000	3.70030E-001	0.00000E+000	10	...........	1583.63
	109	1.09	4.82854E-001	1.22976E-003	0.00000E+000	3.70030E-001	0.00000E+000	10	...........	1583.63
	110	1.1	4.85054E-001	1.22976E-003	0.00000E+000	3.70030E-001	0.00000E+000	10	...........	1583.63
	111	1.11	4.87321E-001	1.22977E-003	0.00000E+000	3.70030E-001	0.00000E+000	10	...........	1583.63
	112	1.12	4.89533E-001	1.22983E-003	0.00000E+000	3.70030E-001	0.00000E+000	10	...........	1583.63
	113	1.13	4.91767E-001	1.22981E-003	0.00000E+000	3.70030E-001	0.00000E+000	10	...........	1583.63
	114	1.14	4.93962E-001	1.22977E-003	0.00000E+000	3.70030E-001	0.00000E+000	10	...........	1583.63
	115	1.15	4.96162E-001	1.22976E-003	0.00000E+000	3.70030E-001	0.00000E+000	10	...........	1583.63
	116	1.16	4.98379E-001	1.22971E-003	0.00000E+000	3.70030E-001	0.00000E+000	10	...........	1583.63
	117	1.17	5.00608E-001	1.22973E-003	0.00000E+000	3.70030E-001	0.00000E+000	10	...........	1583.63
	118	1.18	5.02848E-001	1.22978E-003	0.00000E+000	3.70030E-001	0.00000E+000	10	...........	1583.63
	119	1.19	5.05057E-001	1.22977E-003	0.00000E+000	3.70030E-001	0.00000E+000	10	...........	1583.63
	120	1.2	5.07280E-001	1.22979E-003	0.00000E+000	3.70030E-001	0.00000E+000	10	...........	1583.63
	121	1.21	5.09490E-001	1.22976E-003	0.00000E+000	3.70030E-001	0.00000E+000	10	...........	1583.63
	122	1.22	5.11711E-001	1.22976E-003	0.00000E+000	3.70030E-001	0.00000E+000	10	...........	1583.63
	123	1.23	5.13956E-001	1.22973E-003	0.00000E+000	3.70030E-001	0.00000E+000	10	...........	1583.63
	124	1.24	5.16182E-001	1.22974E-003	0.00000E+000	3.70030E-001	0.00000E+000	10	...........	1583.63
	125	1.25	5.18393E-001	1.22971E-003	0.00000E+000	3.70030E-001	0.00000E+000	10	...........	1583.63
	126	1.26	5.20623E-001	1.22972E-003	0.00000E+000	3.70030E-001	0.00000E+000	10	...........	1583.63
	127	1.27	5.22862E-001	1.22975E-003	0.00000E+000	3.70030E-001	0.00000E+000	10	...........	1583.63
	128	1.28	5.25090E-001	1.22977E-003	0.00000E+000	3.70030E-001	0.00000E+000	10	...........	1583.25
	129	1.29	5.27328E-001	1.22980E-003	0.00000E+000	3.70030E-001	0.00000E+000	10	...........	1583.25
	130	1.3	5.29555E-001	1.22981E-003	0.00000E+000	3.70030E-001	0.00000E+000	10	...........	1583.25
	131	1.31	5.31784E-001	1.22978E-003	0.00000E+000	3.70030E-001	0.00000E+000	10	...........	1583.25
	132	1.32	5.33983E-001	1.22973E-003	0.00000E+000	3.70030E-001	0.00000E+000	10	...........	1583.25
	133	1.33	5.36215E-001	1.22977E-003	0.00000E+000	3.70030E-001	0.00000E+000	10	...........	1583.25
	134	1.34	5.38473E-001	1.22974E-003	0.00000E+000	3.70030E-001	0.00000E+000	10	...........	1583.25
	135	1.35	5.40692E-001	1.22976E-003	0.00000E+000	3.70030E-001	0.00000E+000	10	...........	1583.25
	136	1.36	5.42923E-001	1.22979E-003	0.00000E+000	3.70030E-001	0.00000E+000	10	...........	1583.25
	137	1.37	5.45160E-001	1.22976E-003	0.00000E+000	3.70030E-001	0.00000E+000	10	...........	1583.25
	138	1.38	5.47360E-001	1.22978E-003	0.00000E+000	3.70030E-001	0.00000E+000	10	...........	1583.25
	139	1.39	5.49591E-001	1.22976E-003	0.00000E+000	3.70030E-001	0.00000E+000	10	...........	1583.25
	140	1.4	5.51845E-001	1.22978E-003	0.00000E+000	3.70030E-001	0.00000E+000	10	...........	1583.25
	141	1.41	5.54087E-001	1.22984E-003	0.00000E+000	3.70030E-001	0.00000E+000	10	...........	1583.25
	142	1.42	5.56303E-001	1.22977E-003	0.00000E+000	3.70030E-001	0.00000E+000	10	...........	1583.25
	143	1.43	5.58515E-001	1.22976E-003	0.00000E+000	3.70030E-001	0.00000E+000	10	...........	1583.25
	144	1.44	5.60740E-001	1.22975E-003	0.00000E+000	3.70030E-001	0.00000E+000	10	...........	1583.25
	145	1.45	5.62960E-001	1.22975E-003	0.00000E+000	3.70030E-001	0.00000E+000	10	...........	1583.25
	146	1.46	5.65224E-001	1.22976E-003	0.00000E+000	3.70030E-001	0.00000E+000	10	...........	1583.25
	147	1.47	5.67445E-001	1.22973E-003	0.00000E+000	3.70030E-001	0.00000E+000	10	...........	1583.25
	148	1.48	5.69658E-001	1.22976E-003	0.00000E+000	3.70030E-001	0.00000E+000	10	...........	1583.25
	149	1.49	5.71910E-001	1.22981E-003	0.00000E+000	3.70030E-001	0.00000E+000	10	...........	1583.25
	150	1.5	5.74116E-001	1.22980E-003	0.00000E+000	3.70030E-001	0.00000E+000	10	...........	1583.25
	151	1.51	5.76382E-001	1.22978E-003	0.00000E+000	3.70030E-001	0.00000E+000	10	...........	1583.25
	152	1.52	5.78605E-001	1.22974E-003	0.00000E+000	3.70030E-001	0.00000E+000	10	...........	1583.25
	153	1.53	5.80811E-001	1.22973E-003	0.00000E+000	3.70030E-001	0.00000E+000	10	...........	1583.25
	154	1.54	5.83032E-001	1.22971E-003	0.00000E+000	3.70030E-001	0.00000E+000	10	...........	1583.25
	155	1.55	5.85254E-001	1.22972E-003	0.00000E+000	3.70030E-001	0.00000E+000	10	...........	1583.25
	156	1.56	5.87481E-001	1.22981E-003	0.00000E+000	3.70030E-001	0.00000E+000	10	...........	1583.25
	157	1.57	5.89729E-001	1.22979E-003	0.00000E+000	3.70030E-001	0.00000E+000	10	...........	1583.25
	158	1.58	5.91949E-001	1.22976E-003	0.00000E+000	3.70030E-001	0.00000E+000	10	...........	1583.25
	159	1.59	5.94166E-001	1.22978E-003	0.00000E+000	3.70030E-001	0.00000E+000	10	...........	1583.25
	160	1.6	5.96392E-001	1.22976E-003	0.00000E+000	3.70030E-001	0.00000E+000	10	...........	1583.25
	161	1.61	5.98597E-001	1.22971E-003	0.00000E+000	3.70030E-001	0.00000E+000	10	...........	1583.25
	162	1.62	6.00827E-001	1.22975E-003	0.00000E+000	3.70030E-001	0.00000E+000	10	...........	1583.25
	163	1.63	6.03068E-001	1.22974E-003	0.00000E+000	3.70030E-001	0.00000E+000	10	...........	1583.25
	164	1.64	6.05282E-001	1.22978E-003	0.00000E+000	3.70030E-001	0.00000E+000	10	...........	1583.25
	165	1.65	6.07501E-001	1.22976E-003	0.00000E+000	3.70030E-001	0.00000E+000	10	...........	1583.25
	166	1.66	6.09705E-001	1.22975E-003	0.00000E+000	3.70030E-001	0.00000E+000	10	...........	1583.25
	167	1.67	6.11905E-001	1.22977E-003	0.00000E+000	3.70030E-001	0.00000E+000	10	...........	1583.25
	168	1.68	6.14123E-001	1.22977E-003	0.00000E+000	3.70030E-001	0.00000E+000	10	...........	1583.25
	169	1.69	6.16369E-001	1.22976E-003	0.00000E+000	3.70030E-001	0.00000E+000	10	...........	1583.25
	170	1.7	6.18575E-001	1.22972E-003	0.00000E+000	3.70030E-001	0.00000E+000	10	...........	1583.25
	171	1.71	6.20768E-001	1.22976E-003	0.00000E+000	3.70030E-001	0.00000E+000	10	...........	1583.25
	172	1.72	6.22968E-001	1.22974E-003	0.00000E+000	3.70030E-001	0.00000E+000	10	...........	1583.25
	173	1.73	6.25153E-001	1.22973E-003	0.00000E+000	3.70030E-001	0.00000E+000	10	...........	1583.25
	174	1.74	6.27355E-001	1.22975E-003	0.00000E+000	3.70030E-001	0.00000E+000	10	...........	1583.25
	175	1.75	6.29574E-001	1.22974E-003	0.00000E+000	3.70030E-001	0.00000E+000	10	...........	1583.25
	176	1.76	6.31780E-001	1.22972E-003	0.00000E+000	3.70030E-001	0.00000E+000	10	...........	1583.25
	177	1.77	6.33983E-001	1.22970E-003	0.00000E+000	3.70030E-001	0.00000E+000	10	...........	1583.25
	178	1.78	6.36161E-001	1.22977E-003	0.00000E+000	3.70030E-001	0.00000E+000	10	...........	1583.25
	179	1.79	6.38371E-001	1.22972E-003	0.00000E+000	3.70030E-001	0.00000E+000	10	...........	1583.25
	180	1.8	6.40583E-001	1.22980E-003	0.00000E+000	3.70030E-001	0.00000E+000	10	...........	1583.25
	181	1.81	6.42762E-001	1.22971E-003	0.00000E+000	3.70030E-001	0.00000E+000	10	...........	1583.25
	182	1.82	6.44935E-001	1.22974E-003	0.00000E+000	3.70030E-001	0.00000E+000	10	...........	1583.25
	183	1.83	6.47116E-001	1.22975E-003	0.00000E+000	3.70030E-001	0.00000E+000	10	...........	1583.25
	184	1.84	6.49299E-001	1.22976E-003	0.00000E+000	3.70030E-001	0.00000E+000	10	...........	1583.25
	185	1.85	6.51445E-001	1.22973E-003	0.00000E+000	3.70030E-001	0.00000E+000	10	...........	1583.25
	186	1.86	6.53641E-001	1.22968E-003	0.00000E+000	3.70030E-001	0.00000E+000	10	...........	1583.25
	187	1.87	6.55808E-001	1.22973E-003	0.00000E+000	3.70030E-001	0.00000E+000	10	...........	1583.25
	188	1.88	6.57965E-001	1.22975E-003	0.00000E+000	3.70030E-001	0.00000E+000	10	...........	1583.25
	189	1.89	6.60141E-001	1.22979E-003	0.00000E+000	3.70030E-001	0.00000E+000	10	...........	1583.25
	190	1.9	6.62304E-001	1.22980E-003	0.00000E+000	3.70030E-001	0.00000E+000	10	...........	1583.25
	191	1.91	6.64474E-001	1.22979E-003	0.00000E+000	3.70030E-001	0.00000E+000	10	...........	1583.25
	192	1.92	6.66658E-001	1.22978E-003	0.00000E+000	3.70030E-001	0.00000E+000	10	...........	1583.25
	193	1.93	6.68792E-001	1.22976E-003	0.00000E+000	3.70030E-001	0.00000E+000	10	...........	1583.25
	194	1.94	6.70938E-001	1.22973E-003	0.00000E+000	3.70030E-001	0.00000E+000	10	...........	1583.25
	195	1.95	6.73082E-001	1.22975E-003	0.00000E+000	3.70030E-001	0.00000E+000	10	...........	1583.25
	196	1.96	6.75222E-001	1.22974E-003	0.00000E+000	3.70030E-001	0.00000E+000	10	...........	1583.25
	197	1.97	6.77353E-001	1.22977E-003	0.00000E+000	3.70030E-001	0.00000E+000	10	...........	1583.25
	198	1.98	6.79505E-001	1.22978E-003	0.00000E+000	3.70030E-001	0.00000E+000	10	...........	1583.25
	199	1.99	6.81611E-001	1.22977E-003	0.00000E+000	3.70030E-001	0.00000E+000	10	...........	1583.25
	200	2	6.83755E-001	1.22975E-003	0.00000E+000	3.70030E-001	0.00000E+000	10	...........	1583.25
	201	2.01	6.85850E-001	1.22976E-003	0.00000E+000	3.70030E-001	0.00000E+000	10	...........	1583.25
	202	2.02	6.87966E-001	1.22975E-003	0.00000E+000	3.70030E-001	0.00000E+000	10	...........	1583.25
	203	2.03	6.90080E-001	1.22972E-003	0.00000E+000	3.70030E-001	0.00000E+000	10	...........	1583.25
	204	2.04	6.92215E-001	1.22976E-003	0.00000E+000	3.70030E-001	0.00000E+000	10	...........	1583.25
	205	2.05	6.94310E-001	1.22974E-003	0.00000E+000	3.70030E-001	0.00000E+000	10	...........	1583.25
	206	2.06	6.96391E-001	1.22974E-003	0.00000E+000	3.70030E-001	0.00000E+000	10	...........	1583.25
	207	2.07	6.98488E-001	1.22973E-003	0.00000E+000	3.70030E-001	0.00000E+000	10	...........	1583.25
	208	2.08	7.00568E-001	1.22982E-003	0.00000E+000	3.70030E-001	0.00000E+000	10	...........	1583.25
	209	2.09	7.02641E-001	1.22973E-003	0.00000E+000	3.70030E-001	0.00000E+000	10	...........	1583.25
	210	2.1	7.04748E-001	1.22974E-003	0.00000E+000	3.70030E-001	0.00000E+000	10	...........	1583.25
	211	2.11	7.06826E-001	1.22971E-003	0.00000E+000	3.70030E-001	0.00000E+000	10	...........	1583.25
	212	2.12	7.08882E-001	1.22980E-003	0.00000E+000	3.70030E-001	0.00000E+000	10	...........	1583.25
	213	2.13	7.10950E-001	1.22978E-003	0.00000E+000	3.70030E-001	0.00000E+000	10	...........	1583.25
	214	2.14	7.13000E-001	1.22977E-003	0.00000E+000	3.70030E-001	0.00000E+000	10	...........	1583.25
	215	2.15	7.15024E-001	1.22974E-003	0.00000E+000	3.70030E-001	0.00000E+000	10	...........	1583.25
	216	2.16	7.17086E-001	1.22973E-003	0.00000E+000	3.70030E-001	0.00000E+000	10	...........	1583.25
	217	2.17	7.19162E-001	1.22979E-003	0.00000E+000	3.70030E-001	0.00000E+000	10	...........	1583.25
	218	2.18	7.21189E-001	1.22981E-003	0.00000E+000	3.70030E-001	0.00000E+000	10	...........	1583.25
	219	2.19	7.23215E-001	1.22978E-003	0.00000E+000	3.70030E-001	0.00000E+000	10	...........	1583.25
	220	2.2	7.25228E-001	1.22976E-003	0.00000E+000	3.70030E-001	0.00000E+000	10	...........	1583.25
	221	2.21	7.27234E-001	1.22976E-003	0.00000E+000	3.70030E-001	0.00000E+000	10	...........	1583.25
	222	2.22	7.29239E-001	1.22981E-003	0.00000E+000	3.70030E-001	0.00000E+000	10	...........	1583.25
	223	2.23	7.31267E-001	1.22974E-003	0.00000E+000	3.70030E-001	0.00000E+000	10	...........	1583.25
	224	2.24	7.33254E-001	1.22979E-003	0.00000E+000	3.70030E-001	0.00000E+000	10	...........	1583.25
	225	2.25	7.35223E-001	1.22976E-003	0.00000E+000	3.70030E-001	0.00000E+000	10	...........	1583.25
	226	2.26	7.37226E-001	1.22978E-003	0.00000E+000	3.70030E-001	0.00000E+000	10	...........	1583.25
	227	2.27	7.39182E-001	1.22974E-003	0.00000E+000	3.70030E-001	0.00000E+000	10	...........	1583.25
	228	2.28	7.41153E-001	1.22976E-003	0.00000E+000	3.70030E-001	0.00000E+000	10	...........	1583.05
	229	2.29	7.43136E-001	1.22978E-003	0.00000E+000	3.70030E-001	0.00000E+000	10	...........	1583.05
	230	2.3	7.45104E-001	1.22976E-003	0.00000E+000	3.70030E-001	0.00000E+000	10	...........	1583.05
	231	2.31	7.47055E-001	1.22976E-003	0.00000E+000	3.70030E-001	0.00000E+000	10	...........	1583.05
	232	2.32	7.48987E-001	1.22977E-003	0.00000E+000	3.70030E-001	0.00000E+000	10	...........	1583.05
	233	2.33	7.50914E-001	1.22975E-003	0.00000E+000	3.70030E-001	0.00000E+000	10	...........	1583.05
	234	2.34	7.52844E-001	1.22975E-003	0.00000E+000	3.70030E-001	0.00000E+000	10	...........	1583.05
	235	2.35	7.54750E-001	1.22976E-003	0.00000E+000	3.70030E-001	0.00000E+000	10	...........	1583.05
	236	2.36	7.56676E-001	1.22979E-003	0.00000E+000	3.70030E-001	0.00000E+000	10	...........	1583.05
	237	2.37	7.58584E-001	1.22983E-003	0.00000E+000	3.70030E-001	0.00000E+000	10	...........	1583.05
	238	2.38	7.60465E-001	1.22977E-003	0.00000E+000	3.70030E-001	0.00000E+000	10	...........	1583.05
	239	2.39	7.62353E-001	1.22980E-003	0.00000E+000	3.70030E-001	0.00000E+000	10	...........	1583.05
	240	2.4	7.64244E-001	1.22978E-003	0.00000E+000	3.70030E-001	0.00000E+000	10	...........	1583.05
	241	2.41	7.66109E-001	1.22977E-003	0.00000E+000	3.70030E-001	0.00000E+000	10	...........	1583.05
	242	2.42	7.67968E-001	1.22977E-003	0.00000E+000	3.70030E-001	0.00000E+000	10	...........	1583.05
	243	2.43	7.69859E-001	1.22980E-003	0.00000E+000	3.70030E-001	0.00000E+000	10	...........	1583.05
	244	2.44	7.71712E-001	1.22979E-003	0.00000E+000	3.70030E-001	0.00000E+000	10	...........	1583.05
	245	2.45	7.73553E-001	1.22977E-003	0.00000E+000	3.70030E-001	0.00000E+000	10	...........	1583.05
	246	2.46	7.75370E-001	1.22976E-003	0.00000E+000	3.70030E-001	0.00000E+000	10	...........	1583.05
	247	2.47	7.77179E-001	1.22977E-003	0.00000E+000	3.70030E-001	0.00000E+000	10	...........	1583.05
	248	2.48	7.79005E-001	1.22980E-003	0.00000E+000	3.70030E-001	0.00000E+000	10	...........	1583.05
	249	2.49	7.80805E-001	1.22973E-003	0.00000E+000	3.70030E-001	0.00000E+000	10	...........	1583.05
	250	2.5	7.82619E-001	1.22979E-003	0.00000E+000	3.70030E-001	0.00000E+000	10	...........	1583.05
	251	2.51	7.84389E-001	1.22979E-003	0.00000E+000	3.70030E-001	0.00000E+000	10	...........	1583.05
	252	2.52	7.86178E-001	1.22973E-003	0.00000E+000	3.70030E-001	0.00000E+000	10	...........	1583.05
	253	2.53	7.87948E-001	1.22978E-003	0.00000E+000	3.70030E-001	0.00000E+000	10	...........	1583.05
	254	2.54	7.89712E-001	1.22978E-003	0.00000E+000	3.70030E-001	0.00000E+000	10	...........	1583.05
	255	2.55	7.91452E-001	1.22976E-003	0.00000E+000	3.70030E-001	0.00000E+000	10	...........	1583.05
	256	2.56	7.93195E-001	1.22979E-003	0.00000E+000	3.70030E-001	0.00000E+000	10	...........	1583.05
	257	2.57	7.94955E-001	1.22978E-003	0.00000E+000	3.70030E-001	0.00000E+000	10	...........	1583.05
	258	2.58	7.96699E-001	1.22981E-003	0.00000E+000	3.70030E-001	0.00000E+000	10	...........	1583.05
	259	2.59	7.98391E-001	1.22978E-003	0.00000E+000	3.70030E-001	0.00000E+000	10	...........	1583.05
	260	2.6	8.00093E-001	1.22973E-003	0.00000E+000	3.70030E-001	0.00000E+000	10	...........	1583.05
	261	2.61	8.01795E-001	1.22973E-003	0.00000E+000	3.70030E-001	0.00000E+000	10	...........	1583.05
	262	2.62	8.03473E-001	1.22977E-003	0.00000E+000	3.70030E-001	0.00000E+000	10	...........	1583.05
	263	2.63	7.75557E-001	-1.22966E-003	0.00000E+000	-3.70030E-001	0.00000E+000	10	...........	1583.05
	264	2.64	7.70522E-001	-1.22975E-003	0.00000E+000	-3.70030E-001	0.00000E+000	10	...........	1583.05
	265	2.65	7.66264E-001	-1.22978E-003	0.00000E+000	-3.70030E-001	0.00000E+000	10	...........	1583.05
	266	2.66	7.62426E-001	-1.22979E-003	0.00000E+000	-3.70030E-001	0.00000E+000	10	...........	1583.05
	267	2.67	7.58814E-001	-1.22981E-003	0.00000E+000	-3.70030E-001	0.00000E+000	10	...........	1583.05
	268	2.68	7.55339E-001	-1.22984E-003	0.00000E+000	-3.70030E-001	0.00000E+000	10	...........	1583.05
	269	2.69	7.51992E-001	-1.22988E-003	0.00000E+000	-3.70030E-001	0.00000E+000	10	...........	1583.05
	270	2.7	7.48723E-001	-1.22984E-003	0.00000E+000	-3.70030E-001	0.00000E+000	10	...........	1583.05
	271	2.71	7.45543E-001	-1.22983E-003	0.00000E+000	-3.70030E-001	0.00000E+000	10	...........	1583.05
	272	2.72	7.42365E-001	-1.22988E-003	0.00000E+000	-3.70030E-001	0.00000E+000	10	...........	1583.05
	273	2.73	7.39290E-001	-1.22983E-003	0.00000E+000	-3.70030E-001	0.00000E+000	10	...........	1583.05
	274	2.74	7.36235E-001	-1.22987E-003	0.00000E+000	-3.70030E-001	0.00000E+000	10	...........	1583.05
	275	2.75	7.33201E-001	-1.22991E-003	0.00000E+000	-3.70030E-001	0.00000E+000	10	...........	1583.05
	276	2.76	7.30222E-001	-1.22989E-003	0.00000E+000	-3.70030E-001	0.00000E+000	10	...........	1583.05
	277	2.77	7.27214E-001	-1.22992E-003	0.00000E+000	-3.70030E-001	0.00000E+000	10	...........	1583.05
	278	2.78	7.24289E-001	-1.22993E-003	0.00000E+000	-3.70030E-001	0.00000E+000	10	...........	1583.05
	279	2.79	7.21361E-001	-1.22994E-003	0.00000E+000	-3.70030E-001	0.00000E+000	10	...........	1583.05
	280	2.8	7.18485E-001	-1.22999E-003	0.00000E+000	-3.70030E-001	0.00000E+000	10	...........	1583.05
	281	2.81	7.15542E-001	-1.22997E-003	0.00000E+000	-3.70030E-001	0.00000E+000	10	...........	1583.05
	282	2.82	7.12680E-001	-1.22996E-003	0.00000E+000	-3.70030E-001	0.00000E+000	10	...........	1583.05
	283	2.83	7.09790E-001	-1.22998E-003	0.00000E+000	-3.70030E-001	0.00000E+000	10	...........	1583.05
	284	2.84	7.06957E-001	-1.22997E-003	0.00000E+000	-3.70030E-001	0.00000E+000	10	...........	1583.05
	285	2.85	7.04089E-001	-1.22999E-003	0.00000E+000	-3.70030E-001	0.00000E+000	10	...........	1583.05
	286	2.86	7.01263E-001	-1.22997E-003	0.00000E+000	-3.70030E-001	0.00000E+000	10	...........	1583.05
	287	2.87	6.98434E-001	-1.22999E-003	0.00000E+000	-3.70030E-001	0.00000E+000	10	...........	1583.05
	288	2.88	6.95612E-001	-1.22998E-003	0.00000E+000	-3.70030E-001	0.00000E+000	10	...........	1583.05
	289	2.89	6.92806E-001	-1.22998E-003	0.00000E+000	-3.70030E-001	0.00000E+000	10	...........	1583.05
	290	2.9	6.89991E-001	-1.22998E-003	0.00000E+000	-3.70030E-001	0.00000E+000	10	...........	1583.05
	291	2.91	6.87182E-001	-1.22995E-003	0.00000E+000	-3.70030E-001	0.00000E+000	10	...........	1583.05
	292	2.92	6.84408E-001	-1.22998E-003	0.00000E+000	-3.70030E-001	0.00000E+000	10	...........	1583.05
	293	2.93	6.81630E-001	-1.23000E-003	0.00000E+000	-3.70030E-001	0.00000E+000	10	...........	1583.05
	294	2.94	6.78877E-001	-1.23003E-003	0.00000E+000	-3.70030E-001	0.00000E+000	10	...........	1583.05
	295	2.95	6.76081E-001	-1.22999E-003	0.00000E+000	-3.70030E-001	0.00000E+000	10	...........	1583.05
	296	2.96	6.73311E-001	-1.22999E-003	0.00000E+000	-3.70030E-001	0.00000E+000	10	...........	1583.05
	297	2.97	6.70561E-001	-1.22999E-003	0.00000E+000	-3.70030E-001	0.00000E+000	10	...........	1583.05
	298	2.98	6.67819E-001	-1.23004E-003	0.00000E+000	-3.70030E-001	0.00000E+000	10	...........	1583.05
	299	2.99	6.65033E-001	-1.23001E-003	0.00000E+000	-3.70030E-001	0.00000E+000	10	...........	1583.05
	300	3	6.62288E-001	-1.23004E-003	0.00000E+000	-3.70030E-001	0.00000E+000	10	...........	1583.05
	301	3.01	6.59560E-001	-1.23003E-003	0.00000E+000	-3.70030E-001	0.00000E+000	10	...........	1583.05
	302	3.02	6.56828E-001	-1.23000E-003	0.00000E+000	-3.70030E-001	0.00000E+000	10	...........	1583.05
	303	3.03	6.54116E-001	-1.23001E-003	0.00000E+000	-3.70030E-001	0.00000E+000	10	...........	1583.05
	304	3.04	6.51373E-001	-1.23003E-003	0.00000E+000	-3.70030E-001	0.00000E+000	10	...........	1583.05
	305	3.05	6.48668E-001	-1.23001E-003	0.00000E+000	-3.70030E-001	0.00000E+000	10	...........	1583.05
	306	3.06	6.45947E-001	-1.23001E-003	0.00000E+000	-3.70030E-001	0.00000E+000	10	...........	1583.05
	307	3.07	6.43253E-001	-1.23002E-003	0.00000E+000	-3.70030E-001	0.00000E+000	10	...........	1583.05
	308	3.08	6.40550E-001	-1.22999E-003	0.00000E+000	-3.70030E-001	0.00000E+000	10	...........	1583.05
	309	3.09	6.37830E-001	-1.23005E-003	0.00000E+000	-3.70030E-001	0.00000E+000	10	...........	1583.05
	310	3.1	6.35124E-001	-1.23005E-003	0.00000E+000	-3.70030E-001	0.00000E+000	10	...........	1583.05
	311	3.11	6.32451E-001	-1.23002E-003	0.00000E+000	-3.70030E-001	0.00000E+000	10	...........	1583.05
	312	3.12	6.29766E-001	-1.23002E-003	0.00000E+000	-3.70030E-001	0.00000E+000	10	...........	1583.05
	313	3.13	6.27079E-001	-1.22998E-003	0.00000E+000	-3.70030E-001	0.00000E+000	10	...........	1583.05
	314	3.14	6.24417E-001	-1.22999E-003	0.00000E+000	-3.70030E-001	0.00000E+000	10	...........	1583.05
	315	3.15	6.21764E-001	-1.23001E-003	0.00000E+000	-3.70030E-001	0.00000E+000	10	...........	1583.05
	316	3.16	6.19086E-001	-1.22998E-003	0.00000E+000	-3.70030E-001	0.00000E+000	10	...........	1583.05
	317	3.17	6.16434E-001	-1.22996E-003	0.00000E+000	-3.70030E-001	0.00000E+000	10	...........	1583.05
	318	3.18	6.13755E-001	-1.22999E-003	0.00000E+000	-3.70030E-001	0.00000E+000	10	...........	1583.05
	319	3.19	6.11103E-001	-1.22995E-003	0.00000E+000	-3.70030E-001	0.00000E+000	10	...........	1583.05
	320	3.2	6.08463E-001	-1.22999E-003	0.00000E+000	-3.70030E-001	0.00000E+000	10	...........	1583.05
	321	3.21	6.05816E-001	-1.23000E-003	0.00000E+000	-3.70030E-001	0.00000E+000	10	...........	1583.05
	322	3.22	6.03196E-001	-1.23001E-003	0.00000E+000	-3.70030E-001	0.00000E+000	10	...........	1583.05
	323	3.23	6.00531E-001	-1.23002E-003	0.00000E+000	-3.70030E-001	0.00000E+000	10	...........	1583.05
	324	3.24	5.97905E-001	-1.23000E-003	0.00000E+000	-3.70030E-001	0.00000E+000	10	...........	1583.05
	325	3.25	5.95296E-001	-1.23003E-003	0.00000E+000	-3.70030E-001	0.00000E+000	10	...........	1583.05
	326	3.26	5.92677E-001	-1.22998E-003	0.00000E+000	-3.70030E-001	0.00000E+000	10	...........	1583.05
	327	3.27	5.90069E-001	-1.22999E-003	0.00000E+000	-3.70030E-001	0.00000E+000	10	...........	1583.05
	328	3.28	5.87436E-001	-1.23001E-003	0.00000E+000	-3.70030E-001	0.00000E+000	10	...........	1583.05
	329	3.29	5.84841E-001	-1.23002E-003	0.00000E+000	-3.70030E-001	0.00000E+000	10	...........	1583.05
	330	3.3	5.82231E-001	-1.22999E-003	0.00000E+000	-3.70030E-001	0.00000E+000	10	...........	1583.05
	331	3.31	5.79655E-001	-1.23001E-003	0.00000E+000	-3.70030E-001	0.00000E+000	10	...........	1583.05
	332	3.32	5.77071E-001	-1.23003E-003	0.00000E+000	-3.70030E-001	0.00000E+000	10	...........	1583.05
	333	3.33	5.74465E-001	-1.23001E-003	0.00000E+000	-3.70030E-001	0.00000E+000	10	...........	1583.05
	334	3.34	5.71893E-001	-1.23003E-003	0.00000E+000	-3.70030E-001	0.00000E+000	10	...........	1583.05
	335	3.35	5.69329E-001	-1.22994E-003	0.00000E+000	-3.70030E-001	0.00000E+000	10	...........	1583.05
	336	3.36	5.66781E-001	-1.23001E-003	0.00000E+000	-3.70030E-001	0.00000E+000	10	...........	1583.05
	337	3.37	5.64228E-001	-1.23001E-003	0.00000E+000	-3.70030E-001	0.00000E+000	10	...........	1583.05
	338	3.38	5.61652E-001	-1.23001E-003	0.00000E+000	-3.70030E-001	0.00000E+000	10	...........	1583.05
	339	3.39	5.59084E-001	-1.23001E-003	0.00000E+000	-3.70030E-001	0.00000E+000	10	...........	1583.05
	340	3.4	5.56545E-001	-1.22999E-003	0.00000E+000	-3.70030E-001	0.00000E+000	10	...........	1583.05
	341	3.41	5.54019E-001	-1.23001E-003	0.00000E+000	-3.70030E-001	0.00000E+000	10	...........	1583.05
	342	3.42	5.51487E-001	-1.23001E-003	0.00000E+000	-3.70030E-001	0.00000E+000	10	...........	1583.05
	343	3.43	5.48923E-001	-1.22997E-003	0.00000E+000	-3.70030E-001	0.00000E+000	10	...........	1583.05
	344	3.44	5.46410E-001	-1.23006E-003	0.00000E+000	-3.70030E-001	0.00000E+000	10	...........	1583.05
	345	3.45	5.43885E-001	-1.23007E-003	0.00000E+000	-3.70030E-001	0.00000E+000	10	...........	1583.05
	346	3.46	5.41364E-001	-1.23002E-003	0.00000E+000	-3.70030E-001	0.00000E+000	10	...........	1583.05
	347	3.47	5.38868E-001	-1.22999E-003	0.00000E+000	-3.70030E-001	0.00000E+000	10	...........	1583.05
	348	3.48	5.36334E-001	-1.23004E-003	0.00000E+000	-3.70030E-001	0.00000E+000	10	...........	1583.05
	349	3.49	5.33833E-001	-1.23002E-003	0.00000E+000	-3.70030E-001	0.00000E+000	10	...........	1583.05
	350	3.5	5.31333E-001	-1.23002E-003	0.00000E+000	-3.70030E-001	0.00000E+000	10	...........	1583.05
	351	3.51	5.28858E-001	-1.23000E-003	0.00000E+000	-3.70030E-001	0.00000E+000	10	...........	1583.05
	352	3.52	5.26379E-001	-1.22999E-003	0.00000E+000	-3.70030E-001	0.00000E+000	10	...........	1583.05
	353	3.53	5.23876E-001	-1.22998E-003	0.00000E+000	-3.70030E-001	0.00000E+000	10	...........	1583.05
	354	3.54	5.21410E-001	-1.22999E-003	0.00000E+000	-3.70030E-001	0.00000E+000	10	...........	1583.05
	355	3.55	5.18947E-001	-1.22999E-003	0.00000E+000	-3.70030E-001	0.00000E+000	10	...........	1583.05
	356	3.56	5.16485E-001	-1.23002E-003	0.00000E+000	-3.70030E-001	0.00000E+000	10	...........	1583.05
	357	3.57	5.14032E-001	-1.22999E-003	0.00000E+000	-3.70030E-001	0.00000E+000	10	...........	1583.05
	358	3.58	5.11553E-001	-1.22999E-003	0.00000E+000	-3.70030E-001	0.00000E+000	10	...........	1583.05
	359	3.59	5.09099E-001	-1.23002E-003	0.00000E+000	-3.70030E-001	0.00000E+000	10	...........	1583.05
	360	3.6	5.06674E-001	-1.23003E-003	0.00000E+000	-3.70030E-001	0.00000E+000	10	...........	1583.05
	361	3.61	5.04214E-001	-1.23004E-003	0.00000E+000	-3.70030E-001	0.00000E+000	10	...........	1583.05
	362	3.62	5.01782E-001	-1.23004E-003	0.00000E+000	-3.70030E-001	0.00000E+000	10	...........	1583.05
	363	3.63	4.99351E-001	-1.23006E-003	0.00000E+000	-3.70030E-001	0.00000E+000	10	...........	1583.05
	364	3.64	4.96926E-001	-1.23004E-003	0.00000E+000	-3.70030E-001	0.00000E+000	10	...........	1583.05
	365	3.65	4.94503E-001	-1.23002E-003	0.00000E+000	-3.70030E-001	0.00000E+000	10	...........	1583.05
	366	3.66	4.92108E-001	-1.23003E-003	0.00000E+000	-3.70030E-001	0.00000E+000	10	...........	1583.05
	367	3.67	4.89699E-001	-1.23000E-003	0.00000E+000	-3.70030E-001	0.00000E+000	10	...........	1583.05
	368	3.68	4.87298E-001	-1.23003E-003	0.00000E+000	-3.70030E-001	0.00000E+000	10	...........	1583.05
	369	3.69	4.84864E-001	-1.22997E-003	0.00000E+000	-3.70030E-001	0.00000E+000	10	...........	1583.05
	370	3.7	4.82484E-001	-1.23001E-003	0.00000E+000	-3.70030E-001	0.00000E+000	10	...........	1583.05
	371	3.71	4.80092E-001	-1.23002E-003	0.00000E+000	-3.70030E-001	0.00000E+000	10	...........	1583.05
	372	3.72	4.77706E-001	-1.22998E-003	0.00000E+000	-3.70030E-001	0.00000E+000	10	...........	1583.05
	373	3.73	4.75337E-001	-1.23001E-003	0.00000E+000	-3.70030E-001	0.00000E+000	10	...........	1583.05
	374	3.74	4.72930E-001	-1.22999E-003	0.00000E+000	-3.70030E-001	0.00000E+000	10	...........	1583.05
	375	3.75	4.70559E-001	-1.23003E-003	0.00000E+000	-3.70030E-001	0.00000E+000	10	...........	1583.05
	376	3.76	4.68220E-001	-1.22998E-003	0.00000E+000	-3.70030E-001	0.00000E+000	10	...........	1583.05
	377	3.77	4.65857E-001	-1.22997E-003	0.00000E+000	-3.70030E-001	0.00000E+000	10	...........	1583.05
	378	3.78	4.63505E-001	-1.22998E-003	0.00000E+000	-3.70030E-001	0.00000E+000	10	...........	1583.05
	379	3.79	4.61165E-001	-1.23002E-003	0.00000E+000	-3.70030E-001	0.00000E+000	10	...........	1583.05
	380	3.8	4.58785E-001	-1.23000E-003	0.00000E+000	-3.70030E-001	0.00000E+000	10	...........	1583.05
	381	3.81	4.56446E-001	-1.22997E-003	0.00000E+000	-3.70030E-001	0.00000E+000	10	...........	1583.05
	382	3.82	4.54098E-001	-1.22999E-003	0.00000E+000	-3.70030E-001	0.00000E+000	10	...........	1583.05
	383	3.83	4.51783E-001	-1.23002E-003	0.00000E+000	-3.70030E-001	0.00000E+000	10	...........	1583.05
	384	3.84	4.49452E-001	-1.23001E-003	0.00000E+000	-3.70030E-001	0.00000E+000	10	...........	1583.05
	385	3.85	4.47118E-001	-1.23002E-003	0.00000E+000	-3.70030E-001	0.00000E+000	10	...........	1583.05
	386	3.86	4.44806E-001	-1.23003E-003	0.00000E+000	-3.70030E-001	0.00000E+000	10	...........	1583.05
	387	3.87	4.42511E-001	-1.23002E-003	0.00000E+000	-3.70030E-001	0.00000E+000	10	...........	1583.05
	388	3.88	4.40197E-001	-1.23005E-003	0.00000E+000	-3.70030E-001	0.00000E+000	10	...........	1583.05
	389	3.89	4.37888E-001	-1.23005E-003	0.00000E+000	-3.70030E-001	0.00000E+000	10	...........	1583.05
	390	3.9	4.35592E-001	-1.23003E-003	0.00000E+000	-3.70030E-001	0.00000E+000	10	...........	1583.05
	391	3.91	4.33269E-001	-1.23004E-003	0.00000E+000	-3.70030E-001	0.00000E+000	10	...........	1583.05
	392	3.92	4.30980E-001	-1.23003E-003	0.00000E+000	-3.70030E-001	0.00000E+000	10	...........	1583.05
	393	3.93	4.28695E-001	-1.23005E-003	0.00000E+000	-3.70030E-001	0.00000E+000	10	...........	1583.05
	394	3.94	4.26421E-001	-1.23006E-003	0.00000E+000	-3.70030E-001	0.00000E+000	10	...........	1583.05
	395	3.95	4.24142E-001	-1.23003E-003	0.00000E+000	-3.70030E-001	0.00000E+000	10	...........	1583.05
	396	3.96	4.21852E-001	-1.23004E-003	0.00000E+000	-3.70030E-001	0.00000E+000	10	...........	1583.05
	397	3.97	4.19592E-001	-1.23007E-003	0.00000E+000	-3.70030E-001	0.00000E+000	10	...........	1583.05
	398	3.98	4.17319E-001	-1.22999E-003	0.00000E+000	-3.70030E-001	0.00000E+000	10	...........	1583.05
	399	3.99	4.15061E-001	-1.23002E-003	0.00000E+000	-3.70030E-001	0.00000E+000	10	...........	1583.05
	400	4	4.12802E-001	-1.23003E-003	0.00000E+000	-3.70030E-001	0.00000E+000	10	...........	1583.05
	401	4.01	4.10545E-001	-1.23002E-003	0.00000E+000	-3.70030E-001	0.00000E+000	10	...........	1583.05
	402	4.02	4.08285E-001	-1.23001E-003	0.00000E+000	-3.70030E-001	0.00000E+000	10	...........	1583.05
	403	4.03	4.06040E-001	-1.23000E-003	0.00000E+000	-3.70030E-001	0.00000E+000	10	...........	1583.05
	404	4.04	4.03803E-001	-1.22997E-003	0.00000E+000	-3.70030E-001	0.00000E+000	10	...........	1583.05
	405	4.05	4.01572E-001	-1.22999E-003	0.00000E+000	-3.70030E-001	0.00000E+000	10	...........	1583.05
	406	4.06	3.99354E-001	-1.23001E-003	0.00000E+000	-3.70030E-001	0.00000E+000	10	...........	1583.05
	407	4.07	3.97117E-001	-1.23002E-003	0.00000E+000	-3.70030E-001	0.00000E+000	10	...........	1583.05
	408	4.08	3.94877E-001	-1.22996E-003	0.00000E+000	-3.70030E-001	0.00000E+000	10	...........	1583.05
	409	4.09	3.92650E-001	-1.22999E-003	0.00000E+000	-3.70030E-001	0.00000E+000	10	...........	1583.05
	410	4.1	3.90440E-001	-1.22993E-003	0.00000E+000	-3.70030E-001	0.00000E+000	10	...........	1583.05
	411	4.11	3.88249E-001	-1.23003E-003	0.00000E+000	-3.70030E-001	0.00000E+000	10	...........	1583.05
	412	4.12	3.86034E-001	-1.22992E-003	0.00000E+000	-3.70030E-001	0.00000E+000	10	...........	1583.05
	413	4.13	3.83806E-001	-1.23001E-003	0.00000E+000	-3.70030E-001	0.00000E+000	10	...........	1583.05
	414	4.14	3.81600E-001	-1.22997E-003	0.00000E+000	-3.70030E-001	0.00000E+000	10	...........	1583.05
	415	4.15	3.79417E-001	-1.23002E-003	0.00000E+000	-3.70030E-001	0.00000E+000	10	...........	1583.05
	416	4.16	3.77224E-001	-1.23001E-003	0.00000E+000	-3.70030E-001	0.00000E+000	10	...........	1583.05
	417	4.17	3.75047E-001	-1.23000E-003	0.00000E+000	-3.70030E-001	0.00000E+000	10	...........	1583.05
	418	4.18	3.72881E-001	-1.22998E-003	0.00000E+000	-3.70030E-001	0.00000E+000	10	...........	1583.05
	419	4.19	3.70668E-001	-1.22997E-003	0.00000E+000	-3.70030E-001	0.00000E+000	10	...........	1583.05
	420	4.2	3.68503E-001	-1.22997E-003	0.00000E+000	-3.70030E-001	0.00000E+000	10	...........	1583.05
	421	4.21	3.66324E-001	-1.22998E-003	0.00000E+000	-3.70030E-001	0.00000E+000	10	...........	1583.05
	422	4.22	3.64164E-001	-1.23001E-003	0.00000E+000	-3.70030E-001	0.00000E+000	10	...........	1583.05
	423	4.23	3.61999E-001	-1.23000E-003	0.00000E+000	-3.70030E-001	0.00000E+000	10	...........	1583.05
	424	4.24	3.59841E-001	-1.23001E-003	0.00000E+000	-3.70030E-001	0.00000E+000	10	...........	1583.05
	425	4.25	3.57644E-001	-1.23004E-003	0.00000E+000	-3.70030E-001	0.00000E+000	10	...........	1583.05
	426	4.26	3.55502E-001	-1.22999E-003	0.00000E+000	-3.70030E-001	0.00000E+000	10	...........	1583.05
	427	4.27	3.53368E-001	-1.22997E-003	0.00000E+000	-3.70030E-001	0.00000E+000	10	...........	1583.05
	428	4.28	3.51221E-001	-1.22998E-003	0.00000E+000	-3.70030E-001	0.00000E+000	10	...........	1583.15
	429	4.29	3.49096E-001	-1.22997E-003	0.00000E+000	-3.70030E-001	0.00000E+000	10	...........	1583.15
	430	4.3	3.46951E-001	-1.23000E-003	0.00000E+000	-3.70030E-001	0.00000E+000	10	...........	1583.15
	431	4.31	3.44811E-001	-1.23000E-003	0.00000E+000	-3.70030E-001	0.00000E+000	10	...........	1583.15
	432	4.32	3.42683E-001	-1.23001E-003	0.00000E+000	-3.70030E-001	0.00000E+000	10	...........	1583.15
	433	4.33	3.40546E-001	-1.22998E-003	0.00000E+000	-3.70030E-001	0.00000E+000	10	...........	1583.15
	434	4.34	3.38436E-001	-1.22996E-003	0.00000E+000	-3.70030E-001	0.00000E+000	10	...........	1583.15
	435	4.35	3.36315E-001	-1.22998E-003	0.00000E+000	-3.70030E-001	0.00000E+000	10	...........	1583.15
	436	4.36	3.34205E-001	-1.22995E-003	0.00000E+000	-3.70030E-001	0.00000E+000	10	...........	1583.15
	437	4.37	3.32079E-001	-1.23001E-003	0.00000E+000	-3.70030E-001	0.00000E+000	10	...........	1583.15
	438	4.38	3.29969E-001	-1.22999E-003	0.00000E+000	-3.70030E-001	0.00000E+000	10	...........	1583.15
	439	4.39	3.27872E-001	-1.23006E-003	0.00000E+000	-3.70030E-001	0.00000E+000	10	...........	1583.15
	440	4.4	3.25772E-001	-1.23001E-003	0.00000E+000	-3.70030E-001	0.00000E+000	10	...........	1583.15
	441	4.41	3.23672E-001	-1.23005E-003	0.00000E+000	-3.70030E-001	0.00000E+000	10	...........	1583.15
	442	4.42	3.21598E-001	-1.23003E-003	0.00000E+000	-3.70030E-001	0.00000E+000	10	...........	1583.15
	443	4.43	3.19480E-001	-1.23003E-003	0.00000E+000	-3.70030E-001	0.00000E+000	10	...........	1583.15
	444	4.44	3.17403E-001	-1.23001E-003	0.00000E+000	-3.70030E-001	0.00000E+000	10	...........	1583.15
	445	4.45	3.15320E-001	-1.23001E-003	0.00000E+000	-3.70030E-001	0.00000E+000	10	...........	1583.15
	446	4.46	3.13244E-001	-1.23000E-003	0.00000E+000	-3.70030E-001	0.00000E+000	10	...........	1583.15
	447	4.47	3.11174E-001	-1.22999E-003	0.00000E+000	-3.70030E-001	0.00000E+000	10	...........	1583.15
	448	4.48	3.09116E-001	-1.23000E-003	0.00000E+000	-3.70030E-001	0.00000E+000	10	...........	1583.15
	449	4.49	3.06996E-001	-1.22997E-003	0.00000E+000	-3.70030E-001	0.00000E+000	10	...........	1583.15
	450	4.5	3.04935E-001	-1.22998E-003	0.00000E+000	-3.70030E-001	0.00000E+000	10	...........	1583.15
	451	4.51	3.02892E-001	-1.23002E-003	0.00000E+000	-3.70030E-001	0.00000E+000	10	...........	1583.15
	452	4.52	3.00806E-001	-1.23001E-003	0.00000E+000	-3.70030E-001	0.00000E+000	10	...........	1583.15
	453	4.53	2.98769E-001	-1.23000E-003	0.00000E+000	-3.70030E-001	0.00000E+000	10	...........	1583.15
	454	4.54	2.96736E-001	-1.22998E-003	0.00000E+000	-3.70030E-001	0.00000E+000	10	...........	1583.15
	455	4.55	2.94695E-001	-1.22997E-003	0.00000E+000	-3.70030E-001	0.00000E+000	10	...........	1583.15
	456	4.56	2.92629E-001	-1.23001E-003	0.00000E+000	-3.70030E-001	0.00000E+000	10	...........	1583.15
	457	4.57	2.90592E-001	-1.23000E-003	0.00000E+000	-3.70030E-001	0.00000E+000	10	...........	1583.15
	458	4.58	2.88560E-001	-1.23003E-003	0.00000E+000	-3.70030E-001	0.00000E+000	10	...........	1583.15
	459	4.59	2.86515E-001	-1.23003E-003	0.00000E+000	-3.70030E-001	0.00000E+000	10	...........	1583.15
	460	4.6	2.84509E-001	-1.22999E-003	0.00000E+000	-3.70030E-001	0.00000E+000	10	...........	1583.15
	461	4.61	2.82489E-001	-1.23002E-003	0.00000E+000	-3.70030E-001	0.00000E+000	10	...........	1583.15
	462	4.62	2.80430E-001	-1.22998E-003	0.00000E+000	-3.70030E-001	0.00000E+000	10	...........	1583.15
	463	4.63	2.78415E-001	-1.23004E-003	0.00000E+000	-3.70030E-001	0.00000E+000	10	...........	1583.15
	464	4.64	2.76399E-001	-1.23007E-003	0.00000E+000	-3.70030E-001	0.00000E+000	10	...........	1583.15
	465	4.65	2.74398E-001	-1.23004E-003	0.00000E+000	-3.70030E-001	0.00000E+000	10	...........	1583.15
	466	4.66	2.72394E-001	-1.23004E-003	0.00000E+000	-3.70030E-001	0.00000E+000	10	...........	1583.15
	467	4.67	2.70391E-001	-1.23004E-003	0.00000E+000	-3.70030E-001	0.00000E+000	10	...........	1583.15
	468	4.68	2.68373E-001	-1.23002E-003	0.00000E+000	-3.70030E-001	0.00000E+000	10	...........	1583.15
	469	4.69	2.66379E-001	-1.22999E-003	0.00000E+000	-3.70030E-001	0.00000E+000	10	...........	1583.15
	470	4.7	2.64387E-001	-1.23002E-003	0.00000E+000	-3.70030E-001	0.00000E+000	10	...........	1583.15
	471	4.71	2.62396E-001	-1.22998E-003	0.00000E+000	-3.70030E-001	0.00000E+000	10	...........	1583.15
	472	4.72	2.60426E-001	-1.22997E-003	0.00000E+000	-3.70030E-001	0.00000E+000	10	...........	1583.15
	473	4.73	2.58436E-001	-1.22999E-003	0.00000E+000	-3.70030E-001	0.00000E+000	10	...........	1583.15
	474	4.74	2.56477E-001	-1.22996E-003	0.00000E+000	-3.70030E-001	0.00000E+000	10	...........	1583.15
	475	4.75	2.54461E-001	-1.22999E-003	0.00000E+000	-3.70030E-001	0.00000E+000	10	...........	1583.15
	476	4.76	2.52485E-001	-1.22996E-003	0.00000E+000	-3.70030E-001	0.00000E+000	10	...........	1583.15
	477	4.77	2.50528E-001	-1.22998E-003	0.00000E+000	-3.70030E-001	0.00000E+000	10	...........	1583.15
	478	4.78	2.48544E-001	-1.23003E-003	0.00000E+000	-3.70030E-001	0.00000E+000	10	...........	1583.15
	479	4.79	2.46606E-001	-1.23001E-003	0.00000E+000	-3.70030E-001	0.00000E+000	10	...........	1583.15
	480	4.8	2.44652E-001	-1.22998E-003	0.00000E+000	-3.70030E-001	0.00000E+000	10	...........	1583.15
	481	4.81	2.42677E-001	-1.23001E-003	0.00000E+000	-3.70030E-001	0.00000E+000	10	...........	1583.15
	482	4.82	2.40746E-001	-1.22998E-003	0.00000E+000	-3.70030E-001	0.00000E+000	10	...........	1583.15
	483	4.83	2.38801E-001	-1.23001E-003	0.00000E+000	-3.70030E-001	0.00000E+000	10	...........	1583.15
	484	4.84	2.36862E-001	-1.22992E-003	0.00000E+000	-3.70030E-001	0.00000E+000	10	...........	1583.15
	485	4.85	2.34925E-001	-1.22994E-003	0.00000E+000	-3.70030E-001	0.00000E+000	10	...........	1583.15
	486	4.86	2.32989E-001	-1.22999E-003	0.00000E+000	-3.70030E-001	0.00000E+000	10	...........	1583.15
	487	4.87	2.31057E-001	-1.23002E-003	0.00000E+000	-3.70030E-001	0.00000E+000	10	...........	1583.15
	488	4.88	2.29126E-001	-1.23004E-003	0.00000E+000	-3.70030E-001	0.00000E+000	10	...........	1583.15
	489	4.89	2.27202E-001	-1.23006E-003	0.00000E+000	-3.70030E-001	0.00000E+000	10	...........	1583.15
	490	4.9	2.25276E-001	-1.22999E-003	0.00000E+000	-3.70030E-001	0.00000E+000	10	...........	1583.15
	491	4.91	2.23357E-001	-1.23005E-003	0.00000E+000	-3.70030E-001	0.00000E+000	10	...........	1583.15
	492	4.92	2.21447E-001	-1.23003E-003	0.00000E+000	-3.70030E-001	0.00000E+000	10	...........	1583.15
	493	4.93	2.19534E-001	-1.23002E-003	0.00000E+000	-3.70030E-001	0.00000E+000	10	...........	1583.15
	494	4.94	2.17628E-001	-1.23002E-003	0.00000E+000	-3.70030E-001	0.00000E+000	10	...........	1583.15
	495	4.95	2.15723E-001	-1.23007E-003	0.00000E+000	-3.70030E-001	0.00000E+000	10	...........	1583.15
	496	4.96	2.13823E-001	-1.23004E-003	0.00000E+000	-3.70030E-001	0.00000E+000	10	...........	1583.15
	497	4.97	2.11927E-001	-1.23006E-003	0.00000E+000	-3.70030E-001	0.00000E+000	10	...........	1583.15
	498	4.98	2.10041E-001	-1.23002E-003	0.00000E+000	-3.70030E-001	0.00000E+000	10	...........	1583.15
	499	4.99	2.08149E-001	-1.23001E-003	0.00000E+000	-3.70030E-001	0.00000E+000	10	...........	1583.15
	500	5	2.06269E-001	-1.23003E-003	0.00000E+000	-3.70030E-001	0.00000E+000	10	...........	1583.15
	501	5.01	2.04388E-001	-1.23000E-003	0.00000E+000	-3.70030E-001	0.00000E+000	10	...........	1583.15
	502	5.02	2.02516E-001	-1.23002E-003	0.00000E+000	-3.70030E-001	0.00000E+000	10	...........	1583.15
	503	5.03	2.00642E-001	-1.22999E-003	0.00000E+000	-3.70030E-001	0.00000E+000	10	...........	1583.15
	504	5.04	1.98773E-001	-1.23004E-003	0.00000E+000	-3.70030E-001	0.00000E+000	10	...........	1583.15
	505	5.05	1.96909E-001	-1.23004E-003	0.00000E+000	-3.70030E-001	0.00000E+000	10	...........	1583.15
	506	5.06	1.95053E-001	-1.23002E-003	0.00000E+000	-3.70030E-001	0.00000E+000	10	...........	1583.15
	507	5.07	1.93199E-001	-1.23002E-003	0.00000E+000	-3.70030E-001	0.00000E+000	10	...........	1583.15
	508	5.08	1.91346E-001	-1.23004E-003	0.00000E+000	-3.70030E-001	0.00000E+000	10	...........	1583.15
	509	5.09	1.89497E-001	-1.23006E-003	0.00000E+000	-3.70030E-001	0.00000E+000	10	...........	1583.15
	510	5.1	1.87656E-001	-1.23003E-003	0.00000E+000	-3.70030E-001	0.00000E+000	10	...........	1583.15
	511	5.11	1.85818E-001	-1.23006E-003	0.00000E+000	-3.70030E-001	0.00000E+000	10	...........	1583.15
	512	5.12	1.83979E-001	-1.23004E-003	0.00000E+000	-3.70030E-001	0.00000E+000	10	...........	1583.15
	513	5.13	1.82146E-001	-1.23006E-003	0.00000E+000	-3.70030E-001	0.00000E+000	10	...........	1583.15
	514	5.14	1.80320E-001	-1.23004E-003	0.00000E+000	-3.70030E-001	0.00000E+000	10	...........	1583.15
	515	5.15	1.78497E-001	-1.23007E-003	0.00000E+000	-3.70030E-001	0.00000E+000	10	...........	1583.15
	516	5.16	1.76675E-001	-1.23007E-003	0.00000E+000	-3.70030E-001	0.00000E+000	10	...........	1583.15
	517	5.17	1.74859E-001	-1.23006E-003	0.00000E+000	-3.70030E-001	0.00000E+000	10	...........	1583.15
	518	5.18	1.73047E-001	-1.23007E-003	0.00000E+000	-3.70030E-001	0.00000E+000	10	...........	1583.15
	519	5.19	1.71238E-001	-1.23008E-003	0.00000E+000	-3.70030E-001	0.00000E+000	10	...........	1583.15
	520	5.2	1.69440E-001	-1.23007E-003	0.00000E+000	-3.70030E-001	0.00000E+000	10	...........	1583.15
	521	5.21	1.67637E-001	-1.23003E-003	0.00000E+000	-3.70030E-001	0.00000E+000	10	...........	1583.15
	522	5.22	1.65842E-001	-1.23004E-003	0.00000E+000	-3.70030E-001	0.00000E+000	10	...........	1583.15
	523	5.23	1.64053E-001	-1.23002E-003	0.00000E+000	-3.70030E-001	0.00000E+000	10	...........	1583.15
	524	5.24	1.62267E-001	-1.22999E-003	0.00000E+000	-3.70030E-001	0.00000E+000	10	...........	1583.15
	525	5.25	1.60487E-001	-1.23004E-003	0.00000E+000	-3.70030E-001	0.00000E+000	10	...........	1583.15
	526	5.26	1.58708E-001	-1.23000E-003	0.00000E+000	-3.70030E-001	0.00000E+000	10	...........	1583.15
	527	5.27	1.56935E-001	-1.23004E-003	0.00000E+000	-3.70030E-001	0.00000E+000	10	...........	1583.15
	528	5.28	1.55165E-001	-1.23001E-003	0.00000E+000	-3.70030E-001	0.00000E+000	10	...........	1583.05
	529	5.29	1.53398E-001	-1.23006E-003	0.00000E+000	-3.70030E-001	0.00000E+000	10	...........	1583.05
	530	5.3	1.51637E-001	-1.23003E-003	0.00000E+000	-3.70030E-001	0.00000E+000	10	...........	1583.05
	531	5.31	1.49879E-001	-1.22998E-003	0.00000E+000	-3.70030E-001	0.00000E+000	10	...........	1583.05
	532	5.32	1.48124E-001	-1.23001E-003	0.00000E+000	-3.70030E-001	0.00000E+000	10	...........	1583.05
	533	5.33	1.46378E-001	-1.23006E-003	0.00000E+000	-3.70030E-001	0.00000E+000	10	...........	1583.05
	534	5.34	1.44630E-001	-1.23004E-003	0.00000E+000	-3.70030E-001	0.00000E+000	10	...........	1583.05
	535	5.35	1.42891E-001	-1.23004E-003	0.00000E+000	-3.70030E-001	0.00000E+000	10	...........	1583.05
	536	5.36	1.41161E-001	-1.22996E-003	0.00000E+000	-3.70030E-001	0.00000E+000	10	...........	1583.05
	537	5.37	1.39430E-001	-1.22999E-003	0.00000E+000	-3.70030E-001	0.00000E+000	10	...........	1583.05
	538	5.38	1.37699E-001	-1.23003E-003	0.00000E+000	-3.70030E-001	0.00000E+000	10	...........	1583.05
	539	5.39	1.35979E-001	-1.23000E-003	0.00000E+000	-3.70030E-001	0.00000E+000	10	...........	1583.05
	540	5.4	1.34258E-001	-1.23001E-003	0.00000E+000	-3.70030E-001	0.00000E+000	10	...........	1583.05
	541	5.41	1.32543E-001	-1.23001E-003	0.00000E+000	-3.70030E-001	0.00000E+000	10	...........	1583.05
	542	5.42	1.30839E-001	-1.22997E-003	0.00000E+000	-3.70030E-001	0.00000E+000	10	...........	1583.05
	543	5.43	1.29133E-001	-1.22997E-003	0.00000E+000	-3.70030E-001	0.00000E+000	10	...........	1583.05
	544	5.44	1.27431E-001	-1.23002E-003	0.00000E+000	-3.70030E-001	0.00000E+000	10	...........	1583.05
	545	5.45	1.25737E-001	-1.22999E-003	0.00000E+000	-3.70030E-001	0.00000E+000	10	...........	1583.05
	546	5.46	1.24044E-001	-1.23001E-003	0.00000E+000	-3.70030E-001	0.00000E+000	10	...........	1583.05
	547	5.47	1.22356E-001	-1.23004E-003	0.00000E+000	-3.70030E-001	0.00000E+000	10	...........	1583.05
	548	5.48	1.20676E-001	-1.22995E-003	0.00000E+000	-3.70030E-001	0.00000E+000	10	...........	1583.05
	549	5.49	1.18997E-001	-1.22999E-003	0.00000E+000	-3.70030E-001	0.00000E+000	10	...........	1583.05
	550	5.5	1.17321E-001	-1.23002E-003	0.00000E+000	-3.70030E-001	0.00000E+000	10	...........	1583.05
	551	5.51	1.15652E-001	-1.23002E-003	0.00000E+000	-3.70030E-001	0.00000E+000	10	...........	1583.05
	552	5.52	1.13988E-001	-1.22995E-003	0.00000E+000	-3.70030E-001	0.00000E+000	10	...........	1583.05
	553	5.53	1.12327E-001	-1.22997E-003	0.00000E+000	-3.70030E-001	0.00000E+000	10	...........	1583.05
	554	5.54	1.10675E-001	-1.22996E-003	0.00000E+000	-3.70030E-001	0.00000E+000	10	...........	1583.05
	555	5.55	1.09024E-001	-1.23003E-003	0.00000E+000	-3.70030E-001	0.00000E+000	10	...........	1583.05
	556	5.56	1.07377E-001	-1.22997E-003	0.00000E+000	-3.70030E-001	0.00000E+000	10	...........	1583.05
	557	5.57	1.05735E-001	-1.22996E-003	0.00000E+000	-3.70030E-001	0.00000E+000	10	...........	1583.05
	558	5.58	1.04098E-001	-1.23000E-003	0.00000E+000	-3.70030E-001	0.00000E+000	10	...........	1583.05
	559	5.59	1.02467E-001	-1.23002E-003	0.00000E+000	-3.70030E-001	0.00000E+000	10	...........	1583.05
	560	5.6	1.00836E-001	-1.23002E-003	0.00000E+000	-3.70030E-001	0.00000E+000	10	...........	1583.05
	561	5.61	9.92149E-002	-1.22998E-003	0.00000E+000	-3.70030E-001	0.00000E+000	10	...........	1583.05
	562	5.62	9.75954E-002	-1.22996E-003	0.00000E+000	-3.70030E-001	0.00000E+000	10	...........	1583.05
	563	5.63	9.59791E-002	-1.22995E-003	0.00000E+000	-3.70030E-001	0.00000E+000	10	...........	1583.05
	564	5.64	9.43723E-002	-1.22999E-003	0.00000E+000	-3.70030E-001	0.00000E+000	10	...........	1583.05
	565	5.65	9.27692E-002	-1.22999E-003	0.00000E+000	-3.70030E-001	0.00000E+000	10	...........	1583.05
	566	5.66	9.11659E-002	-1.23000E-003	0.00000E+000	-3.70030E-001	0.00000E+000	10	...........	1583.05
	567	5.67	8.95684E-002	-1.23009E-003	0.00000E+000	-3.70030E-001	0.00000E+000	10	...........	1583.05
	568	5.68	8.79753E-002	-1.23003E-003	0.00000E+000	-3.70030E-001	0.00000E+000	10	...........	1583.05
	569	5.69	8.63877E-002	-1.23005E-003	0.00000E+000	-3.70030E-001	0.00000E+000	10	...........	1583.05
	570	5.7	8.48069E-002	-1.23004E-003	0.00000E+000	-3.70030E-001	0.00000E+000	10	...........	1583.05
	571	5.71	8.32282E-002	-1.23005E-003	0.00000E+000	-3.70030E-001	0.00000E+000	10	...........	1583.05
	572	5.72	8.16565E-002	-1.23001E-003	0.00000E+000	-3.70030E-001	0.00000E+000	10	...........	1583.05
	573	5.73	8.00896E-002	-1.22999E-003	0.00000E+000	-3.70030E-001	0.00000E+000	10	...........	1583.05
	574	5.74	7.85292E-002	-1.22997E-003	0.00000E+000	-3.70030E-001	0.00000E+000	10	...........	1583.05
	575	5.75	7.69717E-002	-1.23001E-003	0.00000E+000	-3.70030E-001	0.00000E+000	10	...........	1583.05
	576	5.76	7.54126E-002	-1.23004E-003	0.00000E+000	-3.70030E-001	0.00000E+000	10	...........	1583.05
	577	5.77	7.38634E-002	-1.23002E-003	0.00000E+000	-3.70030E-001	0.00000E+000	10	...........	1583.05
	578	5.78	7.23221E-002	-1.22997E-003	0.00000E+000	-3.70030E-001	0.00000E+000	10	...........	1583.05
	579	5.79	7.07831E-002	-1.22997E-003	0.00000E+000	-3.70030E-001	0.00000E+000	10	...........	1583.05
	580	5.8	6.92486E-002	-1.23000E-003	0.00000E+000	-3.70030E-001	0.00000E+000	10	...........	1583.05
	581	5.81	6.77124E-002	-1.22999E-003	0.00000E+000	-3.70030E-001	0.00000E+000	10	...........	1583.05
	582	5.82	6.61860E-002	-1.22994E-003	0.00000E+000	-3.70030E-001	0.00000E+000	10	...........	1583.05
	583	5.83	6.46678E-002	-1.22998E-003	0.00000E+000	-3.70030E-001	0.00000E+000	10	...........	1583.05
	584	5.84	6.31531E-002	-1.22998E-003	0.00000E+000	-3.70030E-001	0.00000E+000	10	...........	1583.05
	585	5.85	6.16383E-002	-1.23001E-003	0.00000E+000	-3.70030E-001	0.00000E+000	10	...........	1583.05
	586	5.86	6.01316E-002	-1.23000E-003	0.00000E+000	-3.70030E-001	0.00000E+000	10	...........	1583.05
	587	5.87	5.86231E-002	-1.22998E-003	0.00000E+000	-3.70030E-001	0.00000E+000	10	...........	1583.05
	588	5.88	5.71244E-002	-1.22996E-003	0.00000E+000	-3.70030E-001	0.00000E+000	10	...........	1583.05
	589	5.89	5.56322E-002	-1.23002E-003	0.00000E+000	-3.70030E-001	0.00000E+000	10	...........	1583.05
	590	5.9	5.41443E-002	-1.23003E-003	0.00000E+000	-3.70030E-001	0.00000E+000	10	...........	1583.05
	591	5.91	5.26611E-002	-1.22999E-003	0.00000E+000	-3.70030E-001	0.00000E+000	10	...........	1583.05
	592	5.92	5.11807E-002	-1.22998E-003	0.00000E+000	-3.70030E-001	0.00000E+000	10	...........	1583.05
	593	5.93	4.97064E-002	-1.22999E-003	0.00000E+000	-3.70030E-001	0.00000E+000	10	...........	1583.05
	594	5.94	4.82370E-002	-1.22993E-003	0.00000E+000	-3.70030E-001	0.00000E+000	10	...........	1583.05
	595	5.95	4.67706E-002	-1.23001E-003	0.00000E+000	-3.70030E-001	0.00000E+000	10	...........	1583.05
	596	5.96	4.53079E-002	-1.23000E-003	0.00000E+000	-3.70030E-001	0.00000E+000	10	...........	1583.05
	597	5.97	4.38532E-002	-1.22999E-003	0.00000E+000	-3.70030E-001	0.00000E+000	10	...........	1583.05
	598	5.98	4.24001E-002	-1.22997E-003	0.00000E+000	-3.70030E-001	0.00000E+000	10	...........	1583.05
	599	5.99	4.09548E-002	-1.23001E-003	0.00000E+000	-3.70030E-001	0.00000E+000	10	...........	1583.05
	600	6	3.95119E-002	-1.22998E-003	0.00000E+000	-3.70030E-001	0.00000E+000	10	...........	1583.05
	601	6.01	3.80720E-002	-1.22999E-003	0.00000E+000	-3.70030E-001	0.00000E+000	10	...........	1583.05
	602	6.02	3.66399E-002	-1.23003E-003	0.00000E+000	-3.70030E-001	0.00000E+000	10	...........	1583.05
	603	6.03	3.52064E-002	-1.22999E-003	0.00000E+000	-3.70030E-001	0.00000E+000	10	...........	1583.05
	604	6.04	3.37850E-002	-1.23002E-003	0.00000E+000	-3.70030E-001	0.00000E+000	10	...........	1583.05
	605	6.05	3.23644E-002	-1.23001E-003	0.00000E+000	-3.70030E-001	0.00000E+000	10	...........	1583.05
	606	6.06	3.09540E-002	-1.22998E-003	0.00000E+000	-3.70030E-001	0.00000E+000	10	...........	1583.05
	607	6.07	2.95431E-002	-1.22998E-003	0.00000E+000	-3.70030E-001	0.00000E+000	10	...........	1583.05
	608	6.08	2.81398E-002	-1.22997E-003	0.00000E+000	-3.70030E-001	0.00000E+000	10	...........	1583.05
	609	6.09	2.67364E-002	-1.23003E-003	0.00000E+000	-3.70030E-001	0.00000E+000	10	...........	1583.05
	610	6.1	2.53404E-002	-1.22999E-003	0.00000E+000	-3.70030E-001	0.00000E+000	10	...........	1583.05
	611	6.11	2.39487E-002	-1.23002E-003	0.00000E+000	-3.70030E-001	0.00000E+000	10	...........	1583.05
	612	6.12	2.25664E-002	-1.23001E-003	0.00000E+000	-3.70030E-001	0.00000E+000	10	...........	1583.05
	613	6.13	2.11854E-002	-1.23000E-003	0.00000E+000	-3.70030E-001	0.00000E+000	10	...........	1583.05
	614	6.14	1.98047E-002	-1.23004E-003	0.00000E+000	-3.70030E-001	0.00000E+000	10	...........	1583.05
	615	6.15	1.84313E-002	-1.23004E-003	0.00000E+000	-3.70030E-001	0.00000E+000	10	...........	1583.05
	616	6.16	1.70602E-002	-1.23006E-003	0.00000E+000	-3.70030E-001	0.00000E+000	10	...........	1583.05
	617	6.17	1.56937E-002	-1.23008E-003	0.00000E+000	-3.70030E-001	0.00000E+000	10	...........	1583.05
	618	6.18	1.43334E-002	-1.23005E-003	0.00000E+000	-3.70030E-001	0.00000E+000	10	...........	1583.05
	619	6.19	1.29778E-002	-1.23001E-003	0.00000E+000	-3.70030E-001	0.00000E+000	10	...........	1583.05
	620	6.2	1.16252E-002	-1.23001E-003	0.00000E+000	-3.70030E-001	0.00000E+000	10	...........	1583.05
	621	6.21	1.02807E-002	-1.23002E-003	0.00000E+000	-3.70030E-001	0.00000E+000	10	...........	1583.05
	622	6.22	8.93675E-003	-1.23002E-003	0.00000E+000	-3.70030E-001	0.00000E+000	10	...........	1583.05
	623	6.23	7.59978E-003	-1.22998E-003	0.00000E+000	-3.70030E-001	0.00000E+000	10	...........	1583.05
	624	6.24	6.26352E-003	-1.23002E-003	0.00000E+000	-3.70030E-001	0.00000E+000	10	...........	1583.05
	625	6.25	4.93477E-003	-1.23001E-003	0.00000E+000	-3.70030E-001	0.00000E+000	10	...........	1583.05
	626	6.26	3.61137E-003	-1.23001E-003	0.00000E+000	-3.70030E-001	0.00000E+000	10	...........	1583.05
	627	6.27	2.28885E-003	-1.23003E-003	0.00000E+000	-3.70030E-001	0.00000E+000	10	...........	1583.05
	628	6.28	9.74499E-004	-1.23000E-003	0.00000E+000	-3.70030E-001	0.00000E+000	10	...........	1583.25
	629	6.29	-3.38548E-004	-1.23000E-003	0.00000E+000	-3.70030E-001	0.00000E+000	10	...........	1583.25
