EXPLAIN
TAG	CHRONOP
TITLE	LABEL	Chronopotentiometry Scan	Test Identifier
DATE	LABEL	22/1/2025	Date
TIME	LABEL	22:27:18	Time
NOTES	NOTES	1	Notes...
	
PSTAT	PSTAT	IFC1010-42004	Potentiostat
IPRESTEP	QUANT	0.00000E+000	Pre-step Current(A)
TPRESTEP	QUANT	0.00000E+000	Pre-step Delay Time (s)
ISTEP1	QUANT	1.23000E-003	Step 1 Current (A)
TSTEP1	QUANT	5.00000E+003	Step 1 Time (s)
ISTEP2	QUANT	-1.23000E-003	Step 2 Current (A)
TSTEP2	QUANT	5.00000E+003	Step 2 Time (s)
SAMPLETIME	QUANT	1.00000E-002	Sample Period (s)
DECIMATE	TOGGLE	F	Decimate
VLIMITLOWER	QUANT	0.00000E+000	Lower Limit V (V)
VLIMITUPPER	QUANT	8.00000E-001	Upper Limit V (V)
EQDELAY	QUANT	1.00000E+000	Equil. Time (s)
SAMPLINGMODE	SELECTOR	1	Sampling Mode
AREA	QUANT	2.00000E+000	Sample Area (cm^2)
ELECTRODETYPE	SELECTOR	0	Electrode Type
STRIPPING	TOGGLE	F	Used for Stripping
SEQUENCER	TOGGLE	TRUE	Run as Sequence
PSTATMODEL	IQUANT	64	Pstat Model
PSTATSECTION	LABEL	IFC1010-42004	Pstat Section
PSTATSERIALNO	LABEL	42004	Pstat Serial Number
CTRLMODE	IQUANT	0	Control Mode
ELECTROMETER	IQUANT	0	RE=0 or CS=1
IESTAB	IQUANT	0	I/E Stability
CASPEED	IQUANT	4	Control Amp Speed
CONVENTION	IQUANT	1	Current Convention
ICHRANGE	IQUANT	2	Ich Range
ICHRANGEMODE	TOGGLE	T	Ich Auto Range
ICHOFFSETENABLE	TOGGLE	F	Ich Offset Enable
ICHOFFSET	QUANT	0	Ich Offset (V)
ICHFILTER	IQUANT	3	Ich Filter
VCHRANGE	IQUANT	3	Vch Range
VCHRANGEMODE	TOGGLE	T	Vch Auto Range
VCHOFFSETENABLE	TOGGLE	F	Vch Offset Enable
VCHOFFSET	QUANT	0	Vch Offset (V)
VCHFILTER	IQUANT	3	Vch Filter
IERANGELOWERLIMIT	IQUANT	4	I/E Range Lower Limit
IERANGEMODE	TOGGLE	F	I/E AutoRange
IERANGE	IQUANT	11	I/E Range
ACHSELECT	IQUANT	0	Ach Select
ACHRANGE	IQUANT	2	Ach Range
ACHOFFSETENABLE	TOGGLE	F	Ach Offset Enable
ACHOFFSET	QUANT	0	Ach Offset (V)
ACHFILTER	IQUANT	1	Ach Filter
SENSECABLEID	IQUANT	14	Sense Cable ID
PWRCABLEID	IQUANT	14	Power Cable ID
DCCALDATE	LABEL	1/22/2025	DC Calibration Date
ACCALDATE	LABEL	11/15/2024	AC Calibration Date
FRAMEWORKVERSION	LABEL	7.10.4	Framework Version
INSTRUMENTVERSION	LABEL	4.91	Instrument Version
COMMVERSION	LABEL	3.10	Communications Version
CPUPLDVERSION	LABEL	2.54	CPU PLD Version
CTRLPLDVERSION	LABEL	0.00	CTRL PLD Version
PSTATPLDVERSION	LABEL	0.00	PSTAT PLD Version
CURVE	TABLE	675
	Pt	T	Vf	Im	Vu	Sig	Ach	IERange	Over	Temp
	#	s	V vs. Ref.	A	V	V	V	#	bits	deg C
	0	0	2.28293E-001	3.04014E-008	0.00000E+000	0.00000E+000	0.00000E+000	10	...........	1583.25
	1	0.01	2.40772E-001	1.22971E-003	0.00000E+000	3.70030E-001	0.00000E+000	10	...........	1583.25
	2	0.02	2.43321E-001	1.22973E-003	0.00000E+000	3.70030E-001	0.00000E+000	10	...........	1583.25
	3	0.03	2.45596E-001	1.22966E-003	0.00000E+000	3.70030E-001	0.00000E+000	10	...........	1583.25
	4	0.04	2.47788E-001	1.22968E-003	0.00000E+000	3.70030E-001	0.00000E+000	10	...........	1583.25
	5	0.05	2.49939E-001	1.22965E-003	0.00000E+000	3.70030E-001	0.00000E+000	10	...........	1583.25
	6	0.06	2.52063E-001	1.22967E-003	0.00000E+000	3.70030E-001	0.00000E+000	10	...........	1583.25
	7	0.07	2.54178E-001	1.22972E-003	0.00000E+000	3.70030E-001	0.00000E+000	10	...........	1583.25
	8	0.08	2.56284E-001	1.22982E-003	0.00000E+000	3.70030E-001	0.00000E+000	10	...........	1583.25
	9	0.09	2.58376E-001	1.22980E-003	0.00000E+000	3.70030E-001	0.00000E+000	10	...........	1583.25
	10	0.1	2.60463E-001	1.22969E-003	0.00000E+000	3.70030E-001	0.00000E+000	10	...........	1583.25
	11	0.11	2.62546E-001	1.22969E-003	0.00000E+000	3.70030E-001	0.00000E+000	10	...........	1583.25
	12	0.12	2.64622E-001	1.22968E-003	0.00000E+000	3.70030E-001	0.00000E+000	10	...........	1583.25
	13	0.13	2.66705E-001	1.22969E-003	0.00000E+000	3.70030E-001	0.00000E+000	10	...........	1583.25
	14	0.14	2.68743E-001	1.22973E-003	0.00000E+000	3.70030E-001	0.00000E+000	10	...........	1583.25
	15	0.15	2.70851E-001	1.22975E-003	0.00000E+000	3.70030E-001	0.00000E+000	10	...........	1583.25
	16	0.16	2.72917E-001	1.22971E-003	0.00000E+000	3.70030E-001	0.00000E+000	10	...........	1583.25
	17	0.17	2.74973E-001	1.22969E-003	0.00000E+000	3.70030E-001	0.00000E+000	10	...........	1583.25
	18	0.18	2.77051E-001	1.22975E-003	0.00000E+000	3.70030E-001	0.00000E+000	10	...........	1583.25
	19	0.19	2.79130E-001	1.22973E-003	0.00000E+000	3.70030E-001	0.00000E+000	10	...........	1583.25
	20	0.2	2.81212E-001	1.22979E-003	0.00000E+000	3.70030E-001	0.00000E+000	10	...........	1583.25
	21	0.21	2.83314E-001	1.22973E-003	0.00000E+000	3.70030E-001	0.00000E+000	10	...........	1583.25
	22	0.22	2.85361E-001	1.22972E-003	0.00000E+000	3.70030E-001	0.00000E+000	10	...........	1583.25
	23	0.23	2.87421E-001	1.22967E-003	0.00000E+000	3.70030E-001	0.00000E+000	10	...........	1583.25
	24	0.24	2.89490E-001	1.22972E-003	0.00000E+000	3.70030E-001	0.00000E+000	10	...........	1583.25
	25	0.25	2.91559E-001	1.22974E-003	0.00000E+000	3.70030E-001	0.00000E+000	10	...........	1583.25
	26	0.26	2.93604E-001	1.22974E-003	0.00000E+000	3.70030E-001	0.00000E+000	10	...........	1583.25
	27	0.27	2.95702E-001	1.22966E-003	0.00000E+000	3.70030E-001	0.00000E+000	10	...........	1583.25
	28	0.28	2.97750E-001	1.22967E-003	0.00000E+000	3.70030E-001	0.00000E+000	10	...........	1583.25
	29	0.29	2.99815E-001	1.22972E-003	0.00000E+000	3.70030E-001	0.00000E+000	10	...........	1583.25
	30	0.3	3.01895E-001	1.22977E-003	0.00000E+000	3.70030E-001	0.00000E+000	10	...........	1583.25
	31	0.31	3.03964E-001	1.22974E-003	0.00000E+000	3.70030E-001	0.00000E+000	10	...........	1583.25
	32	0.32	3.06009E-001	1.22977E-003	0.00000E+000	3.70030E-001	0.00000E+000	10	...........	1583.25
	33	0.33	3.08117E-001	1.22971E-003	0.00000E+000	3.70030E-001	0.00000E+000	10	...........	1583.25
	34	0.34	3.10171E-001	1.22969E-003	0.00000E+000	3.70030E-001	0.00000E+000	10	...........	1583.25
	35	0.35	3.12231E-001	1.22968E-003	0.00000E+000	3.70030E-001	0.00000E+000	10	...........	1583.25
	36	0.36	3.14302E-001	1.22970E-003	0.00000E+000	3.70030E-001	0.00000E+000	10	...........	1583.25
	37	0.37	3.16355E-001	1.22969E-003	0.00000E+000	3.70030E-001	0.00000E+000	10	...........	1583.25
	38	0.38	3.18420E-001	1.22971E-003	0.00000E+000	3.70030E-001	0.00000E+000	10	...........	1583.25
	39	0.39	3.20503E-001	1.22975E-003	0.00000E+000	3.70030E-001	0.00000E+000	10	...........	1583.25
	40	0.4	3.22573E-001	1.22975E-003	0.00000E+000	3.70030E-001	0.00000E+000	10	...........	1583.25
	41	0.41	3.24613E-001	1.22971E-003	0.00000E+000	3.70030E-001	0.00000E+000	10	...........	1583.25
	42	0.42	3.26691E-001	1.22965E-003	0.00000E+000	3.70030E-001	0.00000E+000	10	...........	1583.25
	43	0.43	3.28746E-001	1.22973E-003	0.00000E+000	3.70030E-001	0.00000E+000	10	...........	1583.25
	44	0.44	3.30807E-001	1.22970E-003	0.00000E+000	3.70030E-001	0.00000E+000	10	...........	1583.25
	45	0.45	3.32895E-001	1.22972E-003	0.00000E+000	3.70030E-001	0.00000E+000	10	...........	1583.25
	46	0.46	3.34959E-001	1.22974E-003	0.00000E+000	3.70030E-001	0.00000E+000	10	...........	1583.25
	47	0.47	3.37042E-001	1.22979E-003	0.00000E+000	3.70030E-001	0.00000E+000	10	...........	1583.25
	48	0.48	3.39082E-001	1.22979E-003	0.00000E+000	3.70030E-001	0.00000E+000	10	...........	1583.25
	49	0.49	3.41133E-001	1.22975E-003	0.00000E+000	3.70030E-001	0.00000E+000	10	...........	1583.25
	50	0.5	3.43192E-001	1.22972E-003	0.00000E+000	3.70030E-001	0.00000E+000	10	...........	1583.25
	51	0.51	3.45240E-001	1.22972E-003	0.00000E+000	3.70030E-001	0.00000E+000	10	...........	1583.25
	52	0.52	3.47317E-001	1.22970E-003	0.00000E+000	3.70030E-001	0.00000E+000	10	...........	1583.25
	53	0.53	3.49381E-001	1.22978E-003	0.00000E+000	3.70030E-001	0.00000E+000	10	...........	1583.25
	54	0.54	3.51451E-001	1.22974E-003	0.00000E+000	3.70030E-001	0.00000E+000	10	...........	1583.25
	55	0.55	3.53500E-001	1.22975E-003	0.00000E+000	3.70030E-001	0.00000E+000	10	...........	1583.25
	56	0.56	3.55574E-001	1.22978E-003	0.00000E+000	3.70030E-001	0.00000E+000	10	...........	1583.25
	57	0.57	3.57618E-001	1.22980E-003	0.00000E+000	3.70030E-001	0.00000E+000	10	...........	1583.25
	58	0.58	3.59703E-001	1.22974E-003	0.00000E+000	3.70030E-001	0.00000E+000	10	...........	1583.25
	59	0.59	3.61757E-001	1.22972E-003	0.00000E+000	3.70030E-001	0.00000E+000	10	...........	1583.25
	60	0.6	3.63835E-001	1.22975E-003	0.00000E+000	3.70030E-001	0.00000E+000	10	...........	1583.25
	61	0.61	3.65893E-001	1.22974E-003	0.00000E+000	3.70030E-001	0.00000E+000	10	...........	1583.25
	62	0.62	3.67925E-001	1.22973E-003	0.00000E+000	3.70030E-001	0.00000E+000	10	...........	1583.25
	63	0.63	3.69993E-001	1.22974E-003	0.00000E+000	3.70030E-001	0.00000E+000	10	...........	1583.25
	64	0.64	3.72071E-001	1.22969E-003	0.00000E+000	3.70030E-001	0.00000E+000	10	...........	1583.25
	65	0.65	3.74116E-001	1.22970E-003	0.00000E+000	3.70030E-001	0.00000E+000	10	...........	1583.25
	66	0.66	3.76183E-001	1.22971E-003	0.00000E+000	3.70030E-001	0.00000E+000	10	...........	1583.25
	67	0.67	3.78244E-001	1.22974E-003	0.00000E+000	3.70030E-001	0.00000E+000	10	...........	1583.25
	68	0.68	3.80299E-001	1.22973E-003	0.00000E+000	3.70030E-001	0.00000E+000	10	...........	1583.25
	69	0.69	3.82355E-001	1.22972E-003	0.00000E+000	3.70030E-001	0.00000E+000	10	...........	1583.25
	70	0.7	3.84433E-001	1.22974E-003	0.00000E+000	3.70030E-001	0.00000E+000	10	...........	1583.25
	71	0.71	3.86507E-001	1.22974E-003	0.00000E+000	3.70030E-001	0.00000E+000	10	...........	1583.25
	72	0.72	3.88556E-001	1.22974E-003	0.00000E+000	3.70030E-001	0.00000E+000	10	...........	1583.25
	73	0.73	3.90600E-001	1.22968E-003	0.00000E+000	3.70030E-001	0.00000E+000	10	...........	1583.25
	74	0.74	3.92668E-001	1.22975E-003	0.00000E+000	3.70030E-001	0.00000E+000	10	...........	1583.25
	75	0.75	3.94721E-001	1.22976E-003	0.00000E+000	3.70030E-001	0.00000E+000	10	...........	1583.25
	76	0.76	3.96793E-001	1.22974E-003	0.00000E+000	3.70030E-001	0.00000E+000	10	...........	1583.25
	77	0.77	3.98855E-001	1.22973E-003	0.00000E+000	3.70030E-001	0.00000E+000	10	...........	1583.25
	78	0.78	4.00898E-001	1.22969E-003	0.00000E+000	3.70030E-001	0.00000E+000	10	...........	1583.53
	79	0.79	4.02948E-001	1.22968E-003	0.00000E+000	3.70030E-001	0.00000E+000	10	...........	1583.53
	80	0.8	4.05006E-001	1.22974E-003	0.00000E+000	3.70030E-001	0.00000E+000	10	...........	1583.53
	81	0.81	4.07088E-001	1.22978E-003	0.00000E+000	3.70030E-001	0.00000E+000	10	...........	1583.53
	82	0.82	4.09161E-001	1.22970E-003	0.00000E+000	3.70030E-001	0.00000E+000	10	...........	1583.53
	83	0.83	4.11217E-001	1.22975E-003	0.00000E+000	3.70030E-001	0.00000E+000	10	...........	1583.53
	84	0.84	4.13267E-001	1.22969E-003	0.00000E+000	3.70030E-001	0.00000E+000	10	...........	1583.53
	85	0.85	4.15311E-001	1.22971E-003	0.00000E+000	3.70030E-001	0.00000E+000	10	...........	1583.53
	86	0.86	4.17362E-001	1.22969E-003	0.00000E+000	3.70030E-001	0.00000E+000	10	...........	1583.53
	87	0.87	4.19443E-001	1.22973E-003	0.00000E+000	3.70030E-001	0.00000E+000	10	...........	1583.53
	88	0.88	4.21477E-001	1.22976E-003	0.00000E+000	3.70030E-001	0.00000E+000	10	...........	1583.53
	89	0.89	4.23553E-001	1.22972E-003	0.00000E+000	3.70030E-001	0.00000E+000	10	...........	1583.53
	90	0.9	4.25611E-001	1.22969E-003	0.00000E+000	3.70030E-001	0.00000E+000	10	...........	1583.53
	91	0.91	4.27662E-001	1.22976E-003	0.00000E+000	3.70030E-001	0.00000E+000	10	...........	1583.53
	92	0.92	4.29722E-001	1.22976E-003	0.00000E+000	3.70030E-001	0.00000E+000	10	...........	1583.53
	93	0.93	4.31775E-001	1.22971E-003	0.00000E+000	3.70030E-001	0.00000E+000	10	...........	1583.53
	94	0.94	4.33821E-001	1.22970E-003	0.00000E+000	3.70030E-001	0.00000E+000	10	...........	1583.53
	95	0.95	4.35910E-001	1.22967E-003	0.00000E+000	3.70030E-001	0.00000E+000	10	...........	1583.53
	96	0.96	4.37957E-001	1.22971E-003	0.00000E+000	3.70030E-001	0.00000E+000	10	...........	1583.53
	97	0.97	4.40004E-001	1.22973E-003	0.00000E+000	3.70030E-001	0.00000E+000	10	...........	1583.53
	98	0.98	4.42078E-001	1.22969E-003	0.00000E+000	3.70030E-001	0.00000E+000	10	...........	1583.53
	99	0.99	4.44104E-001	1.22969E-003	0.00000E+000	3.70030E-001	0.00000E+000	10	...........	1583.53
	100	1	4.46168E-001	1.22968E-003	0.00000E+000	3.70030E-001	0.00000E+000	10	...........	1583.53
	101	1.01	4.48244E-001	1.22972E-003	0.00000E+000	3.70030E-001	0.00000E+000	10	...........	1583.53
	102	1.02	4.50276E-001	1.22967E-003	0.00000E+000	3.70030E-001	0.00000E+000	10	...........	1583.53
	103	1.03	4.52329E-001	1.22969E-003	0.00000E+000	3.70030E-001	0.00000E+000	10	...........	1583.53
	104	1.04	4.54380E-001	1.22972E-003	0.00000E+000	3.70030E-001	0.00000E+000	10	...........	1583.53
	105	1.05	4.56442E-001	1.22973E-003	0.00000E+000	3.70030E-001	0.00000E+000	10	...........	1583.53
	106	1.06	4.58502E-001	1.22974E-003	0.00000E+000	3.70030E-001	0.00000E+000	10	...........	1583.53
	107	1.07	4.60550E-001	1.22976E-003	0.00000E+000	3.70030E-001	0.00000E+000	10	...........	1583.53
	108	1.08	4.62649E-001	1.22980E-003	0.00000E+000	3.70030E-001	0.00000E+000	10	...........	1583.53
	109	1.09	4.64682E-001	1.22976E-003	0.00000E+000	3.70030E-001	0.00000E+000	10	...........	1583.53
	110	1.1	4.66732E-001	1.22973E-003	0.00000E+000	3.70030E-001	0.00000E+000	10	...........	1583.53
	111	1.11	4.68816E-001	1.22978E-003	0.00000E+000	3.70030E-001	0.00000E+000	10	...........	1583.53
	112	1.12	4.70849E-001	1.22971E-003	0.00000E+000	3.70030E-001	0.00000E+000	10	...........	1583.53
	113	1.13	4.72894E-001	1.22969E-003	0.00000E+000	3.70030E-001	0.00000E+000	10	...........	1583.53
	114	1.14	4.74954E-001	1.22973E-003	0.00000E+000	3.70030E-001	0.00000E+000	10	...........	1583.53
	115	1.15	4.77011E-001	1.22969E-003	0.00000E+000	3.70030E-001	0.00000E+000	10	...........	1583.53
	116	1.16	4.79068E-001	1.22974E-003	0.00000E+000	3.70030E-001	0.00000E+000	10	...........	1583.53
	117	1.17	4.81123E-001	1.22975E-003	0.00000E+000	3.70030E-001	0.00000E+000	10	...........	1583.53
	118	1.18	4.83174E-001	1.22978E-003	0.00000E+000	3.70030E-001	0.00000E+000	10	...........	1583.53
	119	1.19	4.85220E-001	1.22978E-003	0.00000E+000	3.70030E-001	0.00000E+000	10	...........	1583.53
	120	1.2	4.87297E-001	1.22973E-003	0.00000E+000	3.70030E-001	0.00000E+000	10	...........	1583.53
	121	1.21	4.89346E-001	1.22970E-003	0.00000E+000	3.70030E-001	0.00000E+000	10	...........	1583.53
	122	1.22	4.91400E-001	1.22976E-003	0.00000E+000	3.70030E-001	0.00000E+000	10	...........	1583.53
	123	1.23	4.93460E-001	1.22976E-003	0.00000E+000	3.70030E-001	0.00000E+000	10	...........	1583.53
	124	1.24	4.95505E-001	1.22977E-003	0.00000E+000	3.70030E-001	0.00000E+000	10	...........	1583.53
	125	1.25	4.97568E-001	1.22978E-003	0.00000E+000	3.70030E-001	0.00000E+000	10	...........	1583.53
	126	1.26	4.99635E-001	1.22974E-003	0.00000E+000	3.70030E-001	0.00000E+000	10	...........	1583.53
	127	1.27	5.01669E-001	1.22972E-003	0.00000E+000	3.70030E-001	0.00000E+000	10	...........	1583.53
	128	1.28	5.03714E-001	1.22967E-003	0.00000E+000	3.70030E-001	0.00000E+000	10	...........	1583.53
	129	1.29	5.05776E-001	1.22971E-003	0.00000E+000	3.70030E-001	0.00000E+000	10	...........	1583.53
	130	1.3	5.07798E-001	1.22969E-003	0.00000E+000	3.70030E-001	0.00000E+000	10	...........	1583.53
	131	1.31	5.09859E-001	1.22974E-003	0.00000E+000	3.70030E-001	0.00000E+000	10	...........	1583.53
	132	1.32	5.11922E-001	1.22971E-003	0.00000E+000	3.70030E-001	0.00000E+000	10	...........	1583.53
	133	1.33	5.13993E-001	1.22975E-003	0.00000E+000	3.70030E-001	0.00000E+000	10	...........	1583.53
	134	1.34	5.16045E-001	1.22971E-003	0.00000E+000	3.70030E-001	0.00000E+000	10	...........	1583.53
	135	1.35	5.18093E-001	1.22971E-003	0.00000E+000	3.70030E-001	0.00000E+000	10	...........	1583.53
	136	1.36	5.20136E-001	1.22977E-003	0.00000E+000	3.70030E-001	0.00000E+000	10	...........	1583.53
	137	1.37	5.22205E-001	1.22979E-003	0.00000E+000	3.70030E-001	0.00000E+000	10	...........	1583.53
	138	1.38	5.24227E-001	1.22976E-003	0.00000E+000	3.70030E-001	0.00000E+000	10	...........	1583.53
	139	1.39	5.26284E-001	1.22973E-003	0.00000E+000	3.70030E-001	0.00000E+000	10	...........	1583.53
	140	1.4	5.28344E-001	1.22975E-003	0.00000E+000	3.70030E-001	0.00000E+000	10	...........	1583.53
	141	1.41	5.30392E-001	1.22978E-003	0.00000E+000	3.70030E-001	0.00000E+000	10	...........	1583.53
	142	1.42	5.32460E-001	1.22980E-003	0.00000E+000	3.70030E-001	0.00000E+000	10	...........	1583.53
	143	1.43	5.34494E-001	1.22976E-003	0.00000E+000	3.70030E-001	0.00000E+000	10	...........	1583.53
	144	1.44	5.36532E-001	1.22971E-003	0.00000E+000	3.70030E-001	0.00000E+000	10	...........	1583.53
	145	1.45	5.38597E-001	1.22968E-003	0.00000E+000	3.70030E-001	0.00000E+000	10	...........	1583.53
	146	1.46	5.40619E-001	1.22966E-003	0.00000E+000	3.70030E-001	0.00000E+000	10	...........	1583.53
	147	1.47	5.42664E-001	1.22966E-003	0.00000E+000	3.70030E-001	0.00000E+000	10	...........	1583.53
	148	1.48	5.44721E-001	1.22973E-003	0.00000E+000	3.70030E-001	0.00000E+000	10	...........	1583.53
	149	1.49	5.46783E-001	1.22975E-003	0.00000E+000	3.70030E-001	0.00000E+000	10	...........	1583.53
	150	1.5	5.48828E-001	1.22975E-003	0.00000E+000	3.70030E-001	0.00000E+000	10	...........	1583.53
	151	1.51	5.50889E-001	1.22974E-003	0.00000E+000	3.70030E-001	0.00000E+000	10	...........	1583.53
	152	1.52	5.52908E-001	1.22971E-003	0.00000E+000	3.70030E-001	0.00000E+000	10	...........	1583.53
	153	1.53	5.54958E-001	1.22972E-003	0.00000E+000	3.70030E-001	0.00000E+000	10	...........	1583.53
	154	1.54	5.57000E-001	1.22973E-003	0.00000E+000	3.70030E-001	0.00000E+000	10	...........	1583.53
	155	1.55	5.59024E-001	1.22971E-003	0.00000E+000	3.70030E-001	0.00000E+000	10	...........	1583.53
	156	1.56	5.61053E-001	1.22967E-003	0.00000E+000	3.70030E-001	0.00000E+000	10	...........	1583.53
	157	1.57	5.63083E-001	1.22969E-003	0.00000E+000	3.70030E-001	0.00000E+000	10	...........	1583.53
	158	1.58	5.65166E-001	1.22972E-003	0.00000E+000	3.70030E-001	0.00000E+000	10	...........	1583.53
	159	1.59	5.67194E-001	1.22976E-003	0.00000E+000	3.70030E-001	0.00000E+000	10	...........	1583.53
	160	1.6	5.69225E-001	1.22975E-003	0.00000E+000	3.70030E-001	0.00000E+000	10	...........	1583.53
	161	1.61	5.71256E-001	1.22972E-003	0.00000E+000	3.70030E-001	0.00000E+000	10	...........	1583.53
	162	1.62	5.73302E-001	1.22974E-003	0.00000E+000	3.70030E-001	0.00000E+000	10	...........	1583.53
	163	1.63	5.75328E-001	1.22972E-003	0.00000E+000	3.70030E-001	0.00000E+000	10	...........	1583.53
	164	1.64	5.77375E-001	1.22972E-003	0.00000E+000	3.70030E-001	0.00000E+000	10	...........	1583.53
	165	1.65	5.79409E-001	1.22974E-003	0.00000E+000	3.70030E-001	0.00000E+000	10	...........	1583.53
	166	1.66	5.81414E-001	1.22970E-003	0.00000E+000	3.70030E-001	0.00000E+000	10	...........	1583.53
	167	1.67	5.83449E-001	1.22970E-003	0.00000E+000	3.70030E-001	0.00000E+000	10	...........	1583.53
	168	1.68	5.85464E-001	1.22971E-003	0.00000E+000	3.70030E-001	0.00000E+000	10	...........	1583.53
	169	1.69	5.87500E-001	1.22970E-003	0.00000E+000	3.70030E-001	0.00000E+000	10	...........	1583.53
	170	1.7	5.89549E-001	1.22973E-003	0.00000E+000	3.70030E-001	0.00000E+000	10	...........	1583.53
	171	1.71	5.91585E-001	1.22968E-003	0.00000E+000	3.70030E-001	0.00000E+000	10	...........	1583.53
	172	1.72	5.93618E-001	1.22976E-003	0.00000E+000	3.70030E-001	0.00000E+000	10	...........	1583.53
	173	1.73	5.95646E-001	1.22975E-003	0.00000E+000	3.70030E-001	0.00000E+000	10	...........	1583.53
	174	1.74	5.97671E-001	1.22974E-003	0.00000E+000	3.70030E-001	0.00000E+000	10	...........	1583.53
	175	1.75	5.99679E-001	1.22968E-003	0.00000E+000	3.70030E-001	0.00000E+000	10	...........	1583.53
	176	1.76	6.01684E-001	1.22968E-003	0.00000E+000	3.70030E-001	0.00000E+000	10	...........	1583.53
	177	1.77	6.03718E-001	1.22972E-003	0.00000E+000	3.70030E-001	0.00000E+000	10	...........	1583.53
	178	1.78	6.05725E-001	1.22969E-003	0.00000E+000	3.70030E-001	0.00000E+000	10	...........	1582.96
	179	1.79	6.07744E-001	1.22972E-003	0.00000E+000	3.70030E-001	0.00000E+000	10	...........	1582.96
	180	1.8	6.09760E-001	1.22974E-003	0.00000E+000	3.70030E-001	0.00000E+000	10	...........	1582.96
	181	1.81	6.11766E-001	1.22971E-003	0.00000E+000	3.70030E-001	0.00000E+000	10	...........	1582.96
	182	1.82	6.13786E-001	1.22971E-003	0.00000E+000	3.70030E-001	0.00000E+000	10	...........	1582.96
	183	1.83	6.15828E-001	1.22976E-003	0.00000E+000	3.70030E-001	0.00000E+000	10	...........	1582.96
	184	1.84	6.17830E-001	1.22971E-003	0.00000E+000	3.70030E-001	0.00000E+000	10	...........	1582.96
	185	1.85	6.19853E-001	1.22977E-003	0.00000E+000	3.70030E-001	0.00000E+000	10	...........	1582.96
	186	1.86	6.21860E-001	1.22971E-003	0.00000E+000	3.70030E-001	0.00000E+000	10	...........	1582.96
	187	1.87	6.23845E-001	1.22974E-003	0.00000E+000	3.70030E-001	0.00000E+000	10	...........	1582.96
	188	1.88	6.25841E-001	1.22972E-003	0.00000E+000	3.70030E-001	0.00000E+000	10	...........	1582.96
	189	1.89	6.27867E-001	1.22971E-003	0.00000E+000	3.70030E-001	0.00000E+000	10	...........	1582.96
	190	1.9	6.29856E-001	1.22973E-003	0.00000E+000	3.70030E-001	0.00000E+000	10	...........	1582.96
	191	1.91	6.31859E-001	1.22972E-003	0.00000E+000	3.70030E-001	0.00000E+000	10	...........	1582.96
	192	1.92	6.33865E-001	1.22978E-003	0.00000E+000	3.70030E-001	0.00000E+000	10	...........	1582.96
	193	1.93	6.35860E-001	1.22973E-003	0.00000E+000	3.70030E-001	0.00000E+000	10	...........	1582.96
	194	1.94	6.37852E-001	1.22974E-003	0.00000E+000	3.70030E-001	0.00000E+000	10	...........	1582.96
	195	1.95	6.39825E-001	1.22976E-003	0.00000E+000	3.70030E-001	0.00000E+000	10	...........	1582.96
	196	1.96	6.41836E-001	1.22971E-003	0.00000E+000	3.70030E-001	0.00000E+000	10	...........	1582.96
	197	1.97	6.43816E-001	1.22975E-003	0.00000E+000	3.70030E-001	0.00000E+000	10	...........	1582.96
	198	1.98	6.45787E-001	1.22967E-003	0.00000E+000	3.70030E-001	0.00000E+000	10	...........	1582.96
	199	1.99	6.47779E-001	1.22972E-003	0.00000E+000	3.70030E-001	0.00000E+000	10	...........	1582.96
	200	2	6.49764E-001	1.22972E-003	0.00000E+000	3.70030E-001	0.00000E+000	10	...........	1582.96
	201	2.01	6.51734E-001	1.22976E-003	0.00000E+000	3.70030E-001	0.00000E+000	10	...........	1582.96
	202	2.02	6.53734E-001	1.22972E-003	0.00000E+000	3.70030E-001	0.00000E+000	10	...........	1582.96
	203	2.03	6.55712E-001	1.22973E-003	0.00000E+000	3.70030E-001	0.00000E+000	10	...........	1582.96
	204	2.04	6.57669E-001	1.22969E-003	0.00000E+000	3.70030E-001	0.00000E+000	10	...........	1582.96
	205	2.05	6.59642E-001	1.22969E-003	0.00000E+000	3.70030E-001	0.00000E+000	10	...........	1582.96
	206	2.06	6.61581E-001	1.22971E-003	0.00000E+000	3.70030E-001	0.00000E+000	10	...........	1582.96
	207	2.07	6.63530E-001	1.22970E-003	0.00000E+000	3.70030E-001	0.00000E+000	10	...........	1582.96
	208	2.08	6.65502E-001	1.22972E-003	0.00000E+000	3.70030E-001	0.00000E+000	10	...........	1582.96
	209	2.09	6.67480E-001	1.22971E-003	0.00000E+000	3.70030E-001	0.00000E+000	10	...........	1582.96
	210	2.1	6.69438E-001	1.22969E-003	0.00000E+000	3.70030E-001	0.00000E+000	10	...........	1582.96
	211	2.11	6.71385E-001	1.22973E-003	0.00000E+000	3.70030E-001	0.00000E+000	10	...........	1582.96
	212	2.12	6.73325E-001	1.22972E-003	0.00000E+000	3.70030E-001	0.00000E+000	10	...........	1582.96
	213	2.13	6.75265E-001	1.22970E-003	0.00000E+000	3.70030E-001	0.00000E+000	10	...........	1582.96
	214	2.14	6.77212E-001	1.22979E-003	0.00000E+000	3.70030E-001	0.00000E+000	10	...........	1582.96
	215	2.15	6.79194E-001	1.22976E-003	0.00000E+000	3.70030E-001	0.00000E+000	10	...........	1582.96
	216	2.16	6.81115E-001	1.22973E-003	0.00000E+000	3.70030E-001	0.00000E+000	10	...........	1582.96
	217	2.17	6.83037E-001	1.22973E-003	0.00000E+000	3.70030E-001	0.00000E+000	10	...........	1582.96
	218	2.18	6.84954E-001	1.22973E-003	0.00000E+000	3.70030E-001	0.00000E+000	10	...........	1582.96
	219	2.19	6.86872E-001	1.22973E-003	0.00000E+000	3.70030E-001	0.00000E+000	10	...........	1582.96
	220	2.2	6.88794E-001	1.22973E-003	0.00000E+000	3.70030E-001	0.00000E+000	10	...........	1582.96
	221	2.21	6.90716E-001	1.22971E-003	0.00000E+000	3.70030E-001	0.00000E+000	10	...........	1582.96
	222	2.22	6.92655E-001	1.22971E-003	0.00000E+000	3.70030E-001	0.00000E+000	10	...........	1582.96
	223	2.23	6.94559E-001	1.22972E-003	0.00000E+000	3.70030E-001	0.00000E+000	10	...........	1582.96
	224	2.24	6.96451E-001	1.22970E-003	0.00000E+000	3.70030E-001	0.00000E+000	10	...........	1582.96
	225	2.25	6.98383E-001	1.22968E-003	0.00000E+000	3.70030E-001	0.00000E+000	10	...........	1582.96
	226	2.26	7.00276E-001	1.22968E-003	0.00000E+000	3.70030E-001	0.00000E+000	10	...........	1582.96
	227	2.27	7.02159E-001	1.22965E-003	0.00000E+000	3.70030E-001	0.00000E+000	10	...........	1582.96
	228	2.28	7.04050E-001	1.22973E-003	0.00000E+000	3.70030E-001	0.00000E+000	10	...........	1582.96
	229	2.29	7.05972E-001	1.22969E-003	0.00000E+000	3.70030E-001	0.00000E+000	10	...........	1582.96
	230	2.3	7.07869E-001	1.22973E-003	0.00000E+000	3.70030E-001	0.00000E+000	10	...........	1582.96
	231	2.31	7.09722E-001	1.22970E-003	0.00000E+000	3.70030E-001	0.00000E+000	10	...........	1582.96
	232	2.32	7.11606E-001	1.22976E-003	0.00000E+000	3.70030E-001	0.00000E+000	10	...........	1582.96
	233	2.33	7.13462E-001	1.22975E-003	0.00000E+000	3.70030E-001	0.00000E+000	10	...........	1582.96
	234	2.34	7.15328E-001	1.22978E-003	0.00000E+000	3.70030E-001	0.00000E+000	10	...........	1582.96
	235	2.35	7.17206E-001	1.22977E-003	0.00000E+000	3.70030E-001	0.00000E+000	10	...........	1582.96
	236	2.36	7.19116E-001	1.22977E-003	0.00000E+000	3.70030E-001	0.00000E+000	10	...........	1582.96
	237	2.37	7.20937E-001	1.22975E-003	0.00000E+000	3.70030E-001	0.00000E+000	10	...........	1582.96
	238	2.38	7.22788E-001	1.22975E-003	0.00000E+000	3.70030E-001	0.00000E+000	10	...........	1582.96
	239	2.39	7.24649E-001	1.22970E-003	0.00000E+000	3.70030E-001	0.00000E+000	10	...........	1582.96
	240	2.4	7.26456E-001	1.22971E-003	0.00000E+000	3.70030E-001	0.00000E+000	10	...........	1582.96
	241	2.41	7.28295E-001	1.22966E-003	0.00000E+000	3.70030E-001	0.00000E+000	10	...........	1582.96
	242	2.42	7.30148E-001	1.22972E-003	0.00000E+000	3.70030E-001	0.00000E+000	10	...........	1582.96
	243	2.43	7.31967E-001	1.22972E-003	0.00000E+000	3.70030E-001	0.00000E+000	10	...........	1582.96
	244	2.44	7.33788E-001	1.22969E-003	0.00000E+000	3.70030E-001	0.00000E+000	10	...........	1582.96
	245	2.45	7.35597E-001	1.22970E-003	0.00000E+000	3.70030E-001	0.00000E+000	10	...........	1582.96
	246	2.46	7.37417E-001	1.22973E-003	0.00000E+000	3.70030E-001	0.00000E+000	10	...........	1582.96
	247	2.47	7.39193E-001	1.22967E-003	0.00000E+000	3.70030E-001	0.00000E+000	10	...........	1582.96
	248	2.48	7.41025E-001	1.22970E-003	0.00000E+000	3.70030E-001	0.00000E+000	10	...........	1582.96
	249	2.49	7.42817E-001	1.22967E-003	0.00000E+000	3.70030E-001	0.00000E+000	10	...........	1582.96
	250	2.5	7.44630E-001	1.22968E-003	0.00000E+000	3.70030E-001	0.00000E+000	10	...........	1582.96
	251	2.51	7.46415E-001	1.22973E-003	0.00000E+000	3.70030E-001	0.00000E+000	10	...........	1582.96
	252	2.52	7.48178E-001	1.22971E-003	0.00000E+000	3.70030E-001	0.00000E+000	10	...........	1582.96
	253	2.53	7.49948E-001	1.22976E-003	0.00000E+000	3.70030E-001	0.00000E+000	10	...........	1582.96
	254	2.54	7.51720E-001	1.22971E-003	0.00000E+000	3.70030E-001	0.00000E+000	10	...........	1582.96
	255	2.55	7.53492E-001	1.22974E-003	0.00000E+000	3.70030E-001	0.00000E+000	10	...........	1582.96
	256	2.56	7.55238E-001	1.22974E-003	0.00000E+000	3.70030E-001	0.00000E+000	10	...........	1582.96
	257	2.57	7.57003E-001	1.22974E-003	0.00000E+000	3.70030E-001	0.00000E+000	10	...........	1582.96
	258	2.58	7.58760E-001	1.22970E-003	0.00000E+000	3.70030E-001	0.00000E+000	10	...........	1582.96
	259	2.59	7.60467E-001	1.22971E-003	0.00000E+000	3.70030E-001	0.00000E+000	10	...........	1582.96
	260	2.6	7.62218E-001	1.22973E-003	0.00000E+000	3.70030E-001	0.00000E+000	10	...........	1582.96
	261	2.61	7.63933E-001	1.22972E-003	0.00000E+000	3.70030E-001	0.00000E+000	10	...........	1582.96
	262	2.62	7.65654E-001	1.22969E-003	0.00000E+000	3.70030E-001	0.00000E+000	10	...........	1582.96
	263	2.63	7.67337E-001	1.22969E-003	0.00000E+000	3.70030E-001	0.00000E+000	10	...........	1582.96
	264	2.64	7.69085E-001	1.22975E-003	0.00000E+000	3.70030E-001	0.00000E+000	10	...........	1582.96
	265	2.65	7.70784E-001	1.22973E-003	0.00000E+000	3.70030E-001	0.00000E+000	10	...........	1582.96
	266	2.66	7.72485E-001	1.22976E-003	0.00000E+000	3.70030E-001	0.00000E+000	10	...........	1582.96
	267	2.67	7.74170E-001	1.22971E-003	0.00000E+000	3.70030E-001	0.00000E+000	10	...........	1582.96
	268	2.68	7.75837E-001	1.22972E-003	0.00000E+000	3.70030E-001	0.00000E+000	10	...........	1582.96
	269	2.69	7.77496E-001	1.22971E-003	0.00000E+000	3.70030E-001	0.00000E+000	10	...........	1582.96
	270	2.7	7.79175E-001	1.22973E-003	0.00000E+000	3.70030E-001	0.00000E+000	10	...........	1582.96
	271	2.71	7.80818E-001	1.22972E-003	0.00000E+000	3.70030E-001	0.00000E+000	10	...........	1582.96
	272	2.72	7.82496E-001	1.22976E-003	0.00000E+000	3.70030E-001	0.00000E+000	10	...........	1582.96
	273	2.73	7.84110E-001	1.22970E-003	0.00000E+000	3.70030E-001	0.00000E+000	10	...........	1582.96
	274	2.74	7.85757E-001	1.22977E-003	0.00000E+000	3.70030E-001	0.00000E+000	10	...........	1582.96
	275	2.75	7.87386E-001	1.22967E-003	0.00000E+000	3.70030E-001	0.00000E+000	10	...........	1582.96
	276	2.76	7.89008E-001	1.22970E-003	0.00000E+000	3.70030E-001	0.00000E+000	10	...........	1582.96
	277	2.77	7.90619E-001	1.22973E-003	0.00000E+000	3.70030E-001	0.00000E+000	10	...........	1582.96
	278	2.78	7.92224E-001	1.22969E-003	0.00000E+000	3.70030E-001	0.00000E+000	10	...........	1583.05
	279	2.79	7.93830E-001	1.22969E-003	0.00000E+000	3.70030E-001	0.00000E+000	10	...........	1583.05
	280	2.8	7.95436E-001	1.22964E-003	0.00000E+000	3.70030E-001	0.00000E+000	10	...........	1583.05
	281	2.81	7.97010E-001	1.22972E-003	0.00000E+000	3.70030E-001	0.00000E+000	10	...........	1583.05
	282	2.82	7.98597E-001	1.22971E-003	0.00000E+000	3.70030E-001	0.00000E+000	10	...........	1583.05
	283	2.83	8.00159E-001	1.22973E-003	0.00000E+000	3.70030E-001	0.00000E+000	10	...........	1583.05
	284	2.84	8.01722E-001	1.22972E-003	0.00000E+000	3.70030E-001	0.00000E+000	10	...........	1583.05
	285	2.85	8.03276E-001	1.22969E-003	0.00000E+000	3.70030E-001	0.00000E+000	10	...........	1583.05
	286	2.86	7.79674E-001	-1.22973E-003	0.00000E+000	-3.70030E-001	0.00000E+000	10	...........	1583.05
	287	2.87	7.75172E-001	-1.22986E-003	0.00000E+000	-3.70030E-001	0.00000E+000	10	...........	1583.05
	288	2.88	7.71340E-001	-1.22986E-003	0.00000E+000	-3.70030E-001	0.00000E+000	10	...........	1583.05
	289	2.89	7.67830E-001	-1.22994E-003	0.00000E+000	-3.70030E-001	0.00000E+000	10	...........	1583.05
	290	2.9	7.64553E-001	-1.22992E-003	0.00000E+000	-3.70030E-001	0.00000E+000	10	...........	1583.05
	291	2.91	7.61402E-001	-1.22991E-003	0.00000E+000	-3.70030E-001	0.00000E+000	10	...........	1583.05
	292	2.92	7.58381E-001	-1.22996E-003	0.00000E+000	-3.70030E-001	0.00000E+000	10	...........	1583.05
	293	2.93	7.55386E-001	-1.22993E-003	0.00000E+000	-3.70030E-001	0.00000E+000	10	...........	1583.05
	294	2.94	7.52485E-001	-1.23002E-003	0.00000E+000	-3.70030E-001	0.00000E+000	10	...........	1583.05
	295	2.95	7.49630E-001	-1.22998E-003	0.00000E+000	-3.70030E-001	0.00000E+000	10	...........	1583.05
	296	2.96	7.46841E-001	-1.22999E-003	0.00000E+000	-3.70030E-001	0.00000E+000	10	...........	1583.05
	297	2.97	7.44057E-001	-1.22996E-003	0.00000E+000	-3.70030E-001	0.00000E+000	10	...........	1583.05
	298	2.98	7.41300E-001	-1.22997E-003	0.00000E+000	-3.70030E-001	0.00000E+000	10	...........	1583.05
	299	2.99	7.38585E-001	-1.22998E-003	0.00000E+000	-3.70030E-001	0.00000E+000	10	...........	1583.05
	300	3	7.35883E-001	-1.22997E-003	0.00000E+000	-3.70030E-001	0.00000E+000	10	...........	1583.05
	301	3.01	7.33226E-001	-1.23001E-003	0.00000E+000	-3.70030E-001	0.00000E+000	10	...........	1583.05
	302	3.02	7.30580E-001	-1.23002E-003	0.00000E+000	-3.70030E-001	0.00000E+000	10	...........	1583.05
	303	3.03	7.27929E-001	-1.23001E-003	0.00000E+000	-3.70030E-001	0.00000E+000	10	...........	1583.05
	304	3.04	7.25326E-001	-1.23000E-003	0.00000E+000	-3.70030E-001	0.00000E+000	10	...........	1583.05
	305	3.05	7.22703E-001	-1.22999E-003	0.00000E+000	-3.70030E-001	0.00000E+000	10	...........	1583.05
	306	3.06	7.20111E-001	-1.22999E-003	0.00000E+000	-3.70030E-001	0.00000E+000	10	...........	1583.05
	307	3.07	7.17540E-001	-1.23003E-003	0.00000E+000	-3.70030E-001	0.00000E+000	10	...........	1583.05
	308	3.08	7.14926E-001	-1.23004E-003	0.00000E+000	-3.70030E-001	0.00000E+000	10	...........	1583.05
	309	3.09	7.12392E-001	-1.23006E-003	0.00000E+000	-3.70030E-001	0.00000E+000	10	...........	1583.05
	310	3.1	7.09834E-001	-1.23002E-003	0.00000E+000	-3.70030E-001	0.00000E+000	10	...........	1583.05
	311	3.11	7.07309E-001	-1.23003E-003	0.00000E+000	-3.70030E-001	0.00000E+000	10	...........	1583.05
	312	3.12	7.04786E-001	-1.22997E-003	0.00000E+000	-3.70030E-001	0.00000E+000	10	...........	1583.05
	313	3.13	7.02240E-001	-1.23001E-003	0.00000E+000	-3.70030E-001	0.00000E+000	10	...........	1583.05
	314	3.14	6.99747E-001	-1.23000E-003	0.00000E+000	-3.70030E-001	0.00000E+000	10	...........	1583.05
	315	3.15	6.97238E-001	-1.23000E-003	0.00000E+000	-3.70030E-001	0.00000E+000	10	...........	1583.05
	316	3.16	6.94733E-001	-1.23003E-003	0.00000E+000	-3.70030E-001	0.00000E+000	10	...........	1583.05
	317	3.17	6.92225E-001	-1.22999E-003	0.00000E+000	-3.70030E-001	0.00000E+000	10	...........	1583.05
	318	3.18	6.89715E-001	-1.23003E-003	0.00000E+000	-3.70030E-001	0.00000E+000	10	...........	1583.05
	319	3.19	6.87220E-001	-1.23006E-003	0.00000E+000	-3.70030E-001	0.00000E+000	10	...........	1583.05
	320	3.2	6.84730E-001	-1.23004E-003	0.00000E+000	-3.70030E-001	0.00000E+000	10	...........	1583.05
	321	3.21	6.82285E-001	-1.23005E-003	0.00000E+000	-3.70030E-001	0.00000E+000	10	...........	1583.05
	322	3.22	6.79819E-001	-1.23007E-003	0.00000E+000	-3.70030E-001	0.00000E+000	10	...........	1583.05
	323	3.23	6.77335E-001	-1.23001E-003	0.00000E+000	-3.70030E-001	0.00000E+000	10	...........	1583.05
	324	3.24	6.74882E-001	-1.23006E-003	0.00000E+000	-3.70030E-001	0.00000E+000	10	...........	1583.05
	325	3.25	6.72428E-001	-1.23008E-003	0.00000E+000	-3.70030E-001	0.00000E+000	10	...........	1583.05
	326	3.26	6.69983E-001	-1.23010E-003	0.00000E+000	-3.70030E-001	0.00000E+000	10	...........	1583.05
	327	3.27	6.67518E-001	-1.23006E-003	0.00000E+000	-3.70030E-001	0.00000E+000	10	...........	1583.05
	328	3.28	6.65054E-001	-1.23004E-003	0.00000E+000	-3.70030E-001	0.00000E+000	10	...........	1583.05
	329	3.29	6.62628E-001	-1.22999E-003	0.00000E+000	-3.70030E-001	0.00000E+000	10	...........	1583.05
	330	3.3	6.60208E-001	-1.22999E-003	0.00000E+000	-3.70030E-001	0.00000E+000	10	...........	1583.05
	331	3.31	6.57775E-001	-1.23006E-003	0.00000E+000	-3.70030E-001	0.00000E+000	10	...........	1583.05
	332	3.32	6.55348E-001	-1.23006E-003	0.00000E+000	-3.70030E-001	0.00000E+000	10	...........	1583.05
	333	3.33	6.52910E-001	-1.23005E-003	0.00000E+000	-3.70030E-001	0.00000E+000	10	...........	1583.05
	334	3.34	6.50476E-001	-1.23008E-003	0.00000E+000	-3.70030E-001	0.00000E+000	10	...........	1583.05
	335	3.35	6.48062E-001	-1.23013E-003	0.00000E+000	-3.70030E-001	0.00000E+000	10	...........	1583.05
	336	3.36	6.45644E-001	-1.23006E-003	0.00000E+000	-3.70030E-001	0.00000E+000	10	...........	1583.05
	337	3.37	6.43247E-001	-1.23007E-003	0.00000E+000	-3.70030E-001	0.00000E+000	10	...........	1583.05
	338	3.38	6.40851E-001	-1.23004E-003	0.00000E+000	-3.70030E-001	0.00000E+000	10	...........	1583.05
	339	3.39	6.38411E-001	-1.23011E-003	0.00000E+000	-3.70030E-001	0.00000E+000	10	...........	1583.05
	340	3.4	6.36011E-001	-1.23007E-003	0.00000E+000	-3.70030E-001	0.00000E+000	10	...........	1583.05
	341	3.41	6.33633E-001	-1.23008E-003	0.00000E+000	-3.70030E-001	0.00000E+000	10	...........	1583.05
	342	3.42	6.31255E-001	-1.23007E-003	0.00000E+000	-3.70030E-001	0.00000E+000	10	...........	1583.05
	343	3.43	6.28866E-001	-1.23007E-003	0.00000E+000	-3.70030E-001	0.00000E+000	10	...........	1583.05
	344	3.44	6.26454E-001	-1.23004E-003	0.00000E+000	-3.70030E-001	0.00000E+000	10	...........	1583.05
	345	3.45	6.24075E-001	-1.23008E-003	0.00000E+000	-3.70030E-001	0.00000E+000	10	...........	1583.05
	346	3.46	6.21707E-001	-1.23009E-003	0.00000E+000	-3.70030E-001	0.00000E+000	10	...........	1583.05
	347	3.47	6.19339E-001	-1.23011E-003	0.00000E+000	-3.70030E-001	0.00000E+000	10	...........	1583.05
	348	3.48	6.16957E-001	-1.23007E-003	0.00000E+000	-3.70030E-001	0.00000E+000	10	...........	1583.05
	349	3.49	6.14564E-001	-1.23005E-003	0.00000E+000	-3.70030E-001	0.00000E+000	10	...........	1583.05
	350	3.5	6.12191E-001	-1.23008E-003	0.00000E+000	-3.70030E-001	0.00000E+000	10	...........	1583.05
	351	3.51	6.09836E-001	-1.23012E-003	0.00000E+000	-3.70030E-001	0.00000E+000	10	...........	1583.05
	352	3.52	6.07470E-001	-1.23009E-003	0.00000E+000	-3.70030E-001	0.00000E+000	10	...........	1583.05
	353	3.53	6.05113E-001	-1.23008E-003	0.00000E+000	-3.70030E-001	0.00000E+000	10	...........	1583.05
	354	3.54	6.02768E-001	-1.23005E-003	0.00000E+000	-3.70030E-001	0.00000E+000	10	...........	1583.05
	355	3.55	6.00388E-001	-1.23005E-003	0.00000E+000	-3.70030E-001	0.00000E+000	10	...........	1583.05
	356	3.56	5.98052E-001	-1.23006E-003	0.00000E+000	-3.70030E-001	0.00000E+000	10	...........	1583.05
	357	3.57	5.95724E-001	-1.23003E-003	0.00000E+000	-3.70030E-001	0.00000E+000	10	...........	1583.05
	358	3.58	5.93406E-001	-1.23006E-003	0.00000E+000	-3.70030E-001	0.00000E+000	10	...........	1583.05
	359	3.59	5.91062E-001	-1.23005E-003	0.00000E+000	-3.70030E-001	0.00000E+000	10	...........	1583.05
	360	3.6	5.88689E-001	-1.23008E-003	0.00000E+000	-3.70030E-001	0.00000E+000	10	...........	1583.05
	361	3.61	5.86361E-001	-1.23007E-003	0.00000E+000	-3.70030E-001	0.00000E+000	10	...........	1583.05
	362	3.62	5.84044E-001	-1.23009E-003	0.00000E+000	-3.70030E-001	0.00000E+000	10	...........	1583.05
	363	3.63	5.81707E-001	-1.23007E-003	0.00000E+000	-3.70030E-001	0.00000E+000	10	...........	1583.05
	364	3.64	5.79394E-001	-1.23011E-003	0.00000E+000	-3.70030E-001	0.00000E+000	10	...........	1583.05
	365	3.65	5.77094E-001	-1.23011E-003	0.00000E+000	-3.70030E-001	0.00000E+000	10	...........	1583.05
	366	3.66	5.74748E-001	-1.23007E-003	0.00000E+000	-3.70030E-001	0.00000E+000	10	...........	1583.05
	367	3.67	5.72452E-001	-1.23004E-003	0.00000E+000	-3.70030E-001	0.00000E+000	10	...........	1583.05
	368	3.68	5.70132E-001	-1.23006E-003	0.00000E+000	-3.70030E-001	0.00000E+000	10	...........	1583.05
	369	3.69	5.67833E-001	-1.23003E-003	0.00000E+000	-3.70030E-001	0.00000E+000	10	...........	1583.05
	370	3.7	5.65528E-001	-1.23006E-003	0.00000E+000	-3.70030E-001	0.00000E+000	10	...........	1583.05
	371	3.71	5.63216E-001	-1.23004E-003	0.00000E+000	-3.70030E-001	0.00000E+000	10	...........	1583.05
	372	3.72	5.60923E-001	-1.23009E-003	0.00000E+000	-3.70030E-001	0.00000E+000	10	...........	1583.05
	373	3.73	5.58643E-001	-1.23001E-003	0.00000E+000	-3.70030E-001	0.00000E+000	10	...........	1583.05
	374	3.74	5.56356E-001	-1.23001E-003	0.00000E+000	-3.70030E-001	0.00000E+000	10	...........	1583.05
	375	3.75	5.54067E-001	-1.23005E-003	0.00000E+000	-3.70030E-001	0.00000E+000	10	...........	1583.05
	376	3.76	5.51807E-001	-1.23001E-003	0.00000E+000	-3.70030E-001	0.00000E+000	10	...........	1583.05
	377	3.77	5.49510E-001	-1.23003E-003	0.00000E+000	-3.70030E-001	0.00000E+000	10	...........	1583.05
	378	3.78	5.47224E-001	-1.23003E-003	0.00000E+000	-3.70030E-001	0.00000E+000	10	...........	1583.25
	379	3.79	5.44970E-001	-1.23003E-003	0.00000E+000	-3.70030E-001	0.00000E+000	10	...........	1583.25
	380	3.8	5.42694E-001	-1.23002E-003	0.00000E+000	-3.70030E-001	0.00000E+000	10	...........	1583.25
	381	3.81	5.40426E-001	-1.23003E-003	0.00000E+000	-3.70030E-001	0.00000E+000	10	...........	1583.25
	382	3.82	5.38172E-001	-1.23001E-003	0.00000E+000	-3.70030E-001	0.00000E+000	10	...........	1583.25
	383	3.83	5.35902E-001	-1.23001E-003	0.00000E+000	-3.70030E-001	0.00000E+000	10	...........	1583.25
	384	3.84	5.33640E-001	-1.22999E-003	0.00000E+000	-3.70030E-001	0.00000E+000	10	...........	1583.25
	385	3.85	5.31418E-001	-1.22997E-003	0.00000E+000	-3.70030E-001	0.00000E+000	10	...........	1583.25
	386	3.86	5.29161E-001	-1.22999E-003	0.00000E+000	-3.70030E-001	0.00000E+000	10	...........	1583.25
	387	3.87	5.26904E-001	-1.22998E-003	0.00000E+000	-3.70030E-001	0.00000E+000	10	...........	1583.25
	388	3.88	5.24654E-001	-1.22998E-003	0.00000E+000	-3.70030E-001	0.00000E+000	10	...........	1583.25
	389	3.89	5.22414E-001	-1.23002E-003	0.00000E+000	-3.70030E-001	0.00000E+000	10	...........	1583.25
	390	3.9	5.20157E-001	-1.23006E-003	0.00000E+000	-3.70030E-001	0.00000E+000	10	...........	1583.25
	391	3.91	5.17918E-001	-1.23003E-003	0.00000E+000	-3.70030E-001	0.00000E+000	10	...........	1583.25
	392	3.92	5.15706E-001	-1.23000E-003	0.00000E+000	-3.70030E-001	0.00000E+000	10	...........	1583.25
	393	3.93	5.13452E-001	-1.23009E-003	0.00000E+000	-3.70030E-001	0.00000E+000	10	...........	1583.25
	394	3.94	5.11194E-001	-1.23004E-003	0.00000E+000	-3.70030E-001	0.00000E+000	10	...........	1583.25
	395	3.95	5.08985E-001	-1.23004E-003	0.00000E+000	-3.70030E-001	0.00000E+000	10	...........	1583.25
	396	3.96	5.06781E-001	-1.23002E-003	0.00000E+000	-3.70030E-001	0.00000E+000	10	...........	1583.25
	397	3.97	5.04574E-001	-1.23001E-003	0.00000E+000	-3.70030E-001	0.00000E+000	10	...........	1583.25
	398	3.98	5.02353E-001	-1.23002E-003	0.00000E+000	-3.70030E-001	0.00000E+000	10	...........	1583.25
	399	3.99	5.00142E-001	-1.23009E-003	0.00000E+000	-3.70030E-001	0.00000E+000	10	...........	1583.25
	400	4	4.97916E-001	-1.23006E-003	0.00000E+000	-3.70030E-001	0.00000E+000	10	...........	1583.25
	401	4.01	4.95716E-001	-1.23004E-003	0.00000E+000	-3.70030E-001	0.00000E+000	10	...........	1583.25
	402	4.02	4.93523E-001	-1.23004E-003	0.00000E+000	-3.70030E-001	0.00000E+000	10	...........	1583.25
	403	4.03	4.91315E-001	-1.23003E-003	0.00000E+000	-3.70030E-001	0.00000E+000	10	...........	1583.25
	404	4.04	4.89125E-001	-1.23006E-003	0.00000E+000	-3.70030E-001	0.00000E+000	10	...........	1583.25
	405	4.05	4.86940E-001	-1.23002E-003	0.00000E+000	-3.70030E-001	0.00000E+000	10	...........	1583.25
	406	4.06	4.84724E-001	-1.23004E-003	0.00000E+000	-3.70030E-001	0.00000E+000	10	...........	1583.25
	407	4.07	4.82557E-001	-1.23001E-003	0.00000E+000	-3.70030E-001	0.00000E+000	10	...........	1583.25
	408	4.08	4.80370E-001	-1.23007E-003	0.00000E+000	-3.70030E-001	0.00000E+000	10	...........	1583.25
	409	4.09	4.78175E-001	-1.23009E-003	0.00000E+000	-3.70030E-001	0.00000E+000	10	...........	1583.25
	410	4.1	4.75994E-001	-1.23010E-003	0.00000E+000	-3.70030E-001	0.00000E+000	10	...........	1583.25
	411	4.11	4.73821E-001	-1.23010E-003	0.00000E+000	-3.70030E-001	0.00000E+000	10	...........	1583.25
	412	4.12	4.71629E-001	-1.23009E-003	0.00000E+000	-3.70030E-001	0.00000E+000	10	...........	1583.25
	413	4.13	4.69475E-001	-1.23006E-003	0.00000E+000	-3.70030E-001	0.00000E+000	10	...........	1583.25
	414	4.14	4.67304E-001	-1.23006E-003	0.00000E+000	-3.70030E-001	0.00000E+000	10	...........	1583.25
	415	4.15	4.65118E-001	-1.23008E-003	0.00000E+000	-3.70030E-001	0.00000E+000	10	...........	1583.25
	416	4.16	4.62985E-001	-1.23009E-003	0.00000E+000	-3.70030E-001	0.00000E+000	10	...........	1583.25
	417	4.17	4.60816E-001	-1.23008E-003	0.00000E+000	-3.70030E-001	0.00000E+000	10	...........	1583.25
	418	4.18	4.58626E-001	-1.23013E-003	0.00000E+000	-3.70030E-001	0.00000E+000	10	...........	1583.25
	419	4.19	4.56473E-001	-1.23009E-003	0.00000E+000	-3.70030E-001	0.00000E+000	10	...........	1583.25
	420	4.2	4.54320E-001	-1.23013E-003	0.00000E+000	-3.70030E-001	0.00000E+000	10	...........	1583.25
	421	4.21	4.52186E-001	-1.23009E-003	0.00000E+000	-3.70030E-001	0.00000E+000	10	...........	1583.25
	422	4.22	4.50034E-001	-1.23013E-003	0.00000E+000	-3.70030E-001	0.00000E+000	10	...........	1583.25
	423	4.23	4.47890E-001	-1.23008E-003	0.00000E+000	-3.70030E-001	0.00000E+000	10	...........	1583.25
	424	4.24	4.45747E-001	-1.23011E-003	0.00000E+000	-3.70030E-001	0.00000E+000	10	...........	1583.25
	425	4.25	4.43616E-001	-1.23009E-003	0.00000E+000	-3.70030E-001	0.00000E+000	10	...........	1583.25
	426	4.26	4.41479E-001	-1.23005E-003	0.00000E+000	-3.70030E-001	0.00000E+000	10	...........	1583.25
	427	4.27	4.39347E-001	-1.23009E-003	0.00000E+000	-3.70030E-001	0.00000E+000	10	...........	1583.25
	428	4.28	4.37215E-001	-1.23006E-003	0.00000E+000	-3.70030E-001	0.00000E+000	10	...........	1583.25
	429	4.29	4.35056E-001	-1.23006E-003	0.00000E+000	-3.70030E-001	0.00000E+000	10	...........	1583.25
	430	4.3	4.32933E-001	-1.23010E-003	0.00000E+000	-3.70030E-001	0.00000E+000	10	...........	1583.25
	431	4.31	4.30812E-001	-1.23007E-003	0.00000E+000	-3.70030E-001	0.00000E+000	10	...........	1583.25
	432	4.32	4.28685E-001	-1.23005E-003	0.00000E+000	-3.70030E-001	0.00000E+000	10	...........	1583.25
	433	4.33	4.26591E-001	-1.23005E-003	0.00000E+000	-3.70030E-001	0.00000E+000	10	...........	1583.25
	434	4.34	4.24469E-001	-1.23004E-003	0.00000E+000	-3.70030E-001	0.00000E+000	10	...........	1583.25
	435	4.35	4.22348E-001	-1.23006E-003	0.00000E+000	-3.70030E-001	0.00000E+000	10	...........	1583.25
	436	4.36	4.20235E-001	-1.23003E-003	0.00000E+000	-3.70030E-001	0.00000E+000	10	...........	1583.25
	437	4.37	4.18133E-001	-1.23003E-003	0.00000E+000	-3.70030E-001	0.00000E+000	10	...........	1583.25
	438	4.38	4.16027E-001	-1.23005E-003	0.00000E+000	-3.70030E-001	0.00000E+000	10	...........	1583.25
	439	4.39	4.13923E-001	-1.23014E-003	0.00000E+000	-3.70030E-001	0.00000E+000	10	...........	1583.25
	440	4.4	4.11835E-001	-1.23006E-003	0.00000E+000	-3.70030E-001	0.00000E+000	10	...........	1583.25
	441	4.41	4.09731E-001	-1.23007E-003	0.00000E+000	-3.70030E-001	0.00000E+000	10	...........	1583.25
	442	4.42	4.07625E-001	-1.23009E-003	0.00000E+000	-3.70030E-001	0.00000E+000	10	...........	1583.25
	443	4.43	4.05518E-001	-1.23009E-003	0.00000E+000	-3.70030E-001	0.00000E+000	10	...........	1583.25
	444	4.44	4.03435E-001	-1.23008E-003	0.00000E+000	-3.70030E-001	0.00000E+000	10	...........	1583.25
	445	4.45	4.01354E-001	-1.23009E-003	0.00000E+000	-3.70030E-001	0.00000E+000	10	...........	1583.25
	446	4.46	3.99264E-001	-1.23007E-003	0.00000E+000	-3.70030E-001	0.00000E+000	10	...........	1583.25
	447	4.47	3.97198E-001	-1.23008E-003	0.00000E+000	-3.70030E-001	0.00000E+000	10	...........	1583.25
	448	4.48	3.95093E-001	-1.23003E-003	0.00000E+000	-3.70030E-001	0.00000E+000	10	...........	1583.25
	449	4.49	3.93031E-001	-1.23003E-003	0.00000E+000	-3.70030E-001	0.00000E+000	10	...........	1583.25
	450	4.5	3.90963E-001	-1.23001E-003	0.00000E+000	-3.70030E-001	0.00000E+000	10	...........	1583.25
	451	4.51	3.88885E-001	-1.23002E-003	0.00000E+000	-3.70030E-001	0.00000E+000	10	...........	1583.25
	452	4.52	3.86808E-001	-1.23010E-003	0.00000E+000	-3.70030E-001	0.00000E+000	10	...........	1583.25
	453	4.53	3.84708E-001	-1.23011E-003	0.00000E+000	-3.70030E-001	0.00000E+000	10	...........	1583.25
	454	4.54	3.82628E-001	-1.23011E-003	0.00000E+000	-3.70030E-001	0.00000E+000	10	...........	1583.25
	455	4.55	3.80549E-001	-1.23009E-003	0.00000E+000	-3.70030E-001	0.00000E+000	10	...........	1583.25
	456	4.56	3.78519E-001	-1.22999E-003	0.00000E+000	-3.70030E-001	0.00000E+000	10	...........	1583.25
	457	4.57	3.76480E-001	-1.23000E-003	0.00000E+000	-3.70030E-001	0.00000E+000	10	...........	1583.25
	458	4.58	3.74408E-001	-1.23002E-003	0.00000E+000	-3.70030E-001	0.00000E+000	10	...........	1583.25
	459	4.59	3.72360E-001	-1.23006E-003	0.00000E+000	-3.70030E-001	0.00000E+000	10	...........	1583.25
	460	4.6	3.70274E-001	-1.23006E-003	0.00000E+000	-3.70030E-001	0.00000E+000	10	...........	1583.25
	461	4.61	3.68214E-001	-1.23007E-003	0.00000E+000	-3.70030E-001	0.00000E+000	10	...........	1583.25
	462	4.62	3.66178E-001	-1.23003E-003	0.00000E+000	-3.70030E-001	0.00000E+000	10	...........	1583.25
	463	4.63	3.64127E-001	-1.23004E-003	0.00000E+000	-3.70030E-001	0.00000E+000	10	...........	1583.25
	464	4.64	3.62078E-001	-1.23006E-003	0.00000E+000	-3.70030E-001	0.00000E+000	10	...........	1583.25
	465	4.65	3.60032E-001	-1.23007E-003	0.00000E+000	-3.70030E-001	0.00000E+000	10	...........	1583.25
	466	4.66	3.57949E-001	-1.23005E-003	0.00000E+000	-3.70030E-001	0.00000E+000	10	...........	1583.25
	467	4.67	3.55939E-001	-1.23007E-003	0.00000E+000	-3.70030E-001	0.00000E+000	10	...........	1583.25
	468	4.68	3.53902E-001	-1.23002E-003	0.00000E+000	-3.70030E-001	0.00000E+000	10	...........	1583.25
	469	4.69	3.51866E-001	-1.23007E-003	0.00000E+000	-3.70030E-001	0.00000E+000	10	...........	1583.25
	470	4.7	3.49838E-001	-1.23003E-003	0.00000E+000	-3.70030E-001	0.00000E+000	10	...........	1583.25
	471	4.71	3.47811E-001	-1.23002E-003	0.00000E+000	-3.70030E-001	0.00000E+000	10	...........	1583.25
	472	4.72	3.45790E-001	-1.23006E-003	0.00000E+000	-3.70030E-001	0.00000E+000	10	...........	1583.25
	473	4.73	3.43760E-001	-1.23006E-003	0.00000E+000	-3.70030E-001	0.00000E+000	10	...........	1583.25
	474	4.74	3.41736E-001	-1.23011E-003	0.00000E+000	-3.70030E-001	0.00000E+000	10	...........	1583.25
	475	4.75	3.39698E-001	-1.23013E-003	0.00000E+000	-3.70030E-001	0.00000E+000	10	...........	1583.25
	476	4.76	3.37688E-001	-1.23013E-003	0.00000E+000	-3.70030E-001	0.00000E+000	10	...........	1583.25
	477	4.77	3.35669E-001	-1.23011E-003	0.00000E+000	-3.70030E-001	0.00000E+000	10	...........	1583.25
	478	4.78	3.33653E-001	-1.23010E-003	0.00000E+000	-3.70030E-001	0.00000E+000	10	...........	1582.96
	479	4.79	3.31612E-001	-1.23009E-003	0.00000E+000	-3.70030E-001	0.00000E+000	10	...........	1582.96
	480	4.8	3.29605E-001	-1.23009E-003	0.00000E+000	-3.70030E-001	0.00000E+000	10	...........	1582.96
	481	4.81	3.27608E-001	-1.23009E-003	0.00000E+000	-3.70030E-001	0.00000E+000	10	...........	1582.96
	482	4.82	3.25586E-001	-1.23005E-003	0.00000E+000	-3.70030E-001	0.00000E+000	10	...........	1582.96
	483	4.83	3.23588E-001	-1.23006E-003	0.00000E+000	-3.70030E-001	0.00000E+000	10	...........	1582.96
	484	4.84	3.21590E-001	-1.23007E-003	0.00000E+000	-3.70030E-001	0.00000E+000	10	...........	1582.96
	485	4.85	3.19574E-001	-1.23002E-003	0.00000E+000	-3.70030E-001	0.00000E+000	10	...........	1582.96
	486	4.86	3.17578E-001	-1.23008E-003	0.00000E+000	-3.70030E-001	0.00000E+000	10	...........	1582.96
	487	4.87	3.15598E-001	-1.23006E-003	0.00000E+000	-3.70030E-001	0.00000E+000	10	...........	1582.96
	488	4.88	3.13601E-001	-1.23002E-003	0.00000E+000	-3.70030E-001	0.00000E+000	10	...........	1582.96
	489	4.89	3.11618E-001	-1.22999E-003	0.00000E+000	-3.70030E-001	0.00000E+000	10	...........	1582.96
	490	4.9	3.09625E-001	-1.23004E-003	0.00000E+000	-3.70030E-001	0.00000E+000	10	...........	1582.96
	491	4.91	3.07604E-001	-1.23009E-003	0.00000E+000	-3.70030E-001	0.00000E+000	10	...........	1582.96
	492	4.92	3.05589E-001	-1.23008E-003	0.00000E+000	-3.70030E-001	0.00000E+000	10	...........	1582.96
	493	4.93	3.03620E-001	-1.23008E-003	0.00000E+000	-3.70030E-001	0.00000E+000	10	...........	1582.96
	494	4.94	3.01647E-001	-1.23009E-003	0.00000E+000	-3.70030E-001	0.00000E+000	10	...........	1582.96
	495	4.95	2.99638E-001	-1.23010E-003	0.00000E+000	-3.70030E-001	0.00000E+000	10	...........	1582.96
	496	4.96	2.97676E-001	-1.23008E-003	0.00000E+000	-3.70030E-001	0.00000E+000	10	...........	1582.96
	497	4.97	2.95702E-001	-1.23008E-003	0.00000E+000	-3.70030E-001	0.00000E+000	10	...........	1582.96
	498	4.98	2.93702E-001	-1.23006E-003	0.00000E+000	-3.70030E-001	0.00000E+000	10	...........	1582.96
	499	4.99	2.91754E-001	-1.23006E-003	0.00000E+000	-3.70030E-001	0.00000E+000	10	...........	1582.96
	500	5	2.89795E-001	-1.23010E-003	0.00000E+000	-3.70030E-001	0.00000E+000	10	...........	1582.96
	501	5.01	2.87810E-001	-1.23011E-003	0.00000E+000	-3.70030E-001	0.00000E+000	10	...........	1582.96
	502	5.02	2.85823E-001	-1.23011E-003	0.00000E+000	-3.70030E-001	0.00000E+000	10	...........	1582.96
	503	5.03	2.83874E-001	-1.23012E-003	0.00000E+000	-3.70030E-001	0.00000E+000	10	...........	1582.96
	504	5.04	2.81898E-001	-1.23009E-003	0.00000E+000	-3.70030E-001	0.00000E+000	10	...........	1582.96
	505	5.05	2.79929E-001	-1.23011E-003	0.00000E+000	-3.70030E-001	0.00000E+000	10	...........	1582.96
	506	5.06	2.77971E-001	-1.23008E-003	0.00000E+000	-3.70030E-001	0.00000E+000	10	...........	1582.96
	507	5.07	2.76021E-001	-1.23011E-003	0.00000E+000	-3.70030E-001	0.00000E+000	10	...........	1582.96
	508	5.08	2.74061E-001	-1.23010E-003	0.00000E+000	-3.70030E-001	0.00000E+000	10	...........	1582.96
	509	5.09	2.72101E-001	-1.23015E-003	0.00000E+000	-3.70030E-001	0.00000E+000	10	...........	1582.96
	510	5.1	2.70159E-001	-1.23017E-003	0.00000E+000	-3.70030E-001	0.00000E+000	10	...........	1582.96
	511	5.11	2.68190E-001	-1.23013E-003	0.00000E+000	-3.70030E-001	0.00000E+000	10	...........	1582.96
	512	5.12	2.66262E-001	-1.23007E-003	0.00000E+000	-3.70030E-001	0.00000E+000	10	...........	1582.96
	513	5.13	2.64325E-001	-1.23004E-003	0.00000E+000	-3.70030E-001	0.00000E+000	10	...........	1582.96
	514	5.14	2.62368E-001	-1.23004E-003	0.00000E+000	-3.70030E-001	0.00000E+000	10	...........	1582.96
	515	5.15	2.60433E-001	-1.23005E-003	0.00000E+000	-3.70030E-001	0.00000E+000	10	...........	1582.96
	516	5.16	2.58501E-001	-1.23001E-003	0.00000E+000	-3.70030E-001	0.00000E+000	10	...........	1582.96
	517	5.17	2.56560E-001	-1.23002E-003	0.00000E+000	-3.70030E-001	0.00000E+000	10	...........	1582.96
	518	5.18	2.54606E-001	-1.23007E-003	0.00000E+000	-3.70030E-001	0.00000E+000	10	...........	1582.96
	519	5.19	2.52661E-001	-1.23006E-003	0.00000E+000	-3.70030E-001	0.00000E+000	10	...........	1582.96
	520	5.2	2.50742E-001	-1.23006E-003	0.00000E+000	-3.70030E-001	0.00000E+000	10	...........	1582.96
	521	5.21	2.48812E-001	-1.23004E-003	0.00000E+000	-3.70030E-001	0.00000E+000	10	...........	1582.96
	522	5.22	2.46898E-001	-1.23003E-003	0.00000E+000	-3.70030E-001	0.00000E+000	10	...........	1582.96
	523	5.23	2.44985E-001	-1.23003E-003	0.00000E+000	-3.70030E-001	0.00000E+000	10	...........	1582.96
	524	5.24	2.43049E-001	-1.23000E-003	0.00000E+000	-3.70030E-001	0.00000E+000	10	...........	1582.96
	525	5.25	2.41148E-001	-1.23001E-003	0.00000E+000	-3.70030E-001	0.00000E+000	10	...........	1582.96
	526	5.26	2.39227E-001	-1.23002E-003	0.00000E+000	-3.70030E-001	0.00000E+000	10	...........	1582.96
	527	5.27	2.37316E-001	-1.23000E-003	0.00000E+000	-3.70030E-001	0.00000E+000	10	...........	1582.96
	528	5.28	2.35402E-001	-1.23001E-003	0.00000E+000	-3.70030E-001	0.00000E+000	10	...........	1582.96
	529	5.29	2.33491E-001	-1.23006E-003	0.00000E+000	-3.70030E-001	0.00000E+000	10	...........	1582.96
	530	5.3	2.31580E-001	-1.23008E-003	0.00000E+000	-3.70030E-001	0.00000E+000	10	...........	1582.96
	531	5.31	2.29677E-001	-1.23007E-003	0.00000E+000	-3.70030E-001	0.00000E+000	10	...........	1582.96
	532	5.32	2.27772E-001	-1.23006E-003	0.00000E+000	-3.70030E-001	0.00000E+000	10	...........	1582.96
	533	5.33	2.25874E-001	-1.23006E-003	0.00000E+000	-3.70030E-001	0.00000E+000	10	...........	1582.96
	534	5.34	2.23978E-001	-1.23009E-003	0.00000E+000	-3.70030E-001	0.00000E+000	10	...........	1582.96
	535	5.35	2.22083E-001	-1.23003E-003	0.00000E+000	-3.70030E-001	0.00000E+000	10	...........	1582.96
	536	5.36	2.20193E-001	-1.23006E-003	0.00000E+000	-3.70030E-001	0.00000E+000	10	...........	1582.96
	537	5.37	2.18303E-001	-1.23001E-003	0.00000E+000	-3.70030E-001	0.00000E+000	10	...........	1582.96
	538	5.38	2.16417E-001	-1.23007E-003	0.00000E+000	-3.70030E-001	0.00000E+000	10	...........	1582.96
	539	5.39	2.14536E-001	-1.23006E-003	0.00000E+000	-3.70030E-001	0.00000E+000	10	...........	1582.96
	540	5.4	2.12654E-001	-1.23006E-003	0.00000E+000	-3.70030E-001	0.00000E+000	10	...........	1582.96
	541	5.41	2.10778E-001	-1.23011E-003	0.00000E+000	-3.70030E-001	0.00000E+000	10	...........	1582.96
	542	5.42	2.08903E-001	-1.23002E-003	0.00000E+000	-3.70030E-001	0.00000E+000	10	...........	1582.96
	543	5.43	2.07037E-001	-1.23001E-003	0.00000E+000	-3.70030E-001	0.00000E+000	10	...........	1582.96
	544	5.44	2.05170E-001	-1.23000E-003	0.00000E+000	-3.70030E-001	0.00000E+000	10	...........	1582.96
	545	5.45	2.03304E-001	-1.23002E-003	0.00000E+000	-3.70030E-001	0.00000E+000	10	...........	1582.96
	546	5.46	2.01441E-001	-1.23004E-003	0.00000E+000	-3.70030E-001	0.00000E+000	10	...........	1582.96
	547	5.47	1.99583E-001	-1.23008E-003	0.00000E+000	-3.70030E-001	0.00000E+000	10	...........	1582.96
	548	5.48	1.97726E-001	-1.23007E-003	0.00000E+000	-3.70030E-001	0.00000E+000	10	...........	1582.96
	549	5.49	1.95874E-001	-1.23006E-003	0.00000E+000	-3.70030E-001	0.00000E+000	10	...........	1582.96
	550	5.5	1.94025E-001	-1.23009E-003	0.00000E+000	-3.70030E-001	0.00000E+000	10	...........	1582.96
	551	5.51	1.92179E-001	-1.23006E-003	0.00000E+000	-3.70030E-001	0.00000E+000	10	...........	1582.96
	552	5.52	1.90335E-001	-1.23005E-003	0.00000E+000	-3.70030E-001	0.00000E+000	10	...........	1582.96
	553	5.53	1.88494E-001	-1.23008E-003	0.00000E+000	-3.70030E-001	0.00000E+000	10	...........	1582.96
	554	5.54	1.86660E-001	-1.23005E-003	0.00000E+000	-3.70030E-001	0.00000E+000	10	...........	1582.96
	555	5.55	1.84831E-001	-1.23001E-003	0.00000E+000	-3.70030E-001	0.00000E+000	10	...........	1582.96
	556	5.56	1.82999E-001	-1.23004E-003	0.00000E+000	-3.70030E-001	0.00000E+000	10	...........	1582.96
	557	5.57	1.81176E-001	-1.23002E-003	0.00000E+000	-3.70030E-001	0.00000E+000	10	...........	1582.96
	558	5.58	1.79354E-001	-1.23003E-003	0.00000E+000	-3.70030E-001	0.00000E+000	10	...........	1582.96
	559	5.59	1.77534E-001	-1.23009E-003	0.00000E+000	-3.70030E-001	0.00000E+000	10	...........	1582.96
	560	5.6	1.75724E-001	-1.23004E-003	0.00000E+000	-3.70030E-001	0.00000E+000	10	...........	1582.96
	561	5.61	1.73914E-001	-1.23003E-003	0.00000E+000	-3.70030E-001	0.00000E+000	10	...........	1582.96
	562	5.62	1.72109E-001	-1.23005E-003	0.00000E+000	-3.70030E-001	0.00000E+000	10	...........	1582.96
	563	5.63	1.70306E-001	-1.23002E-003	0.00000E+000	-3.70030E-001	0.00000E+000	10	...........	1582.96
	564	5.64	1.68507E-001	-1.23001E-003	0.00000E+000	-3.70030E-001	0.00000E+000	10	...........	1582.96
	565	5.65	1.66716E-001	-1.23003E-003	0.00000E+000	-3.70030E-001	0.00000E+000	10	...........	1582.96
	566	5.66	1.64923E-001	-1.23000E-003	0.00000E+000	-3.70030E-001	0.00000E+000	10	...........	1582.96
	567	5.67	1.63142E-001	-1.23002E-003	0.00000E+000	-3.70030E-001	0.00000E+000	10	...........	1582.96
	568	5.68	1.61358E-001	-1.23004E-003	0.00000E+000	-3.70030E-001	0.00000E+000	10	...........	1582.96
	569	5.69	1.59578E-001	-1.23007E-003	0.00000E+000	-3.70030E-001	0.00000E+000	10	...........	1582.96
	570	5.7	1.57806E-001	-1.23006E-003	0.00000E+000	-3.70030E-001	0.00000E+000	10	...........	1582.96
	571	5.71	1.56034E-001	-1.23007E-003	0.00000E+000	-3.70030E-001	0.00000E+000	10	...........	1582.96
	572	5.72	1.54268E-001	-1.23011E-003	0.00000E+000	-3.70030E-001	0.00000E+000	10	...........	1582.96
	573	5.73	1.52506E-001	-1.23002E-003	0.00000E+000	-3.70030E-001	0.00000E+000	10	...........	1582.96
	574	5.74	1.50748E-001	-1.23010E-003	0.00000E+000	-3.70030E-001	0.00000E+000	10	...........	1582.96
	575	5.75	1.48997E-001	-1.23007E-003	0.00000E+000	-3.70030E-001	0.00000E+000	10	...........	1582.96
	576	5.76	1.47246E-001	-1.23008E-003	0.00000E+000	-3.70030E-001	0.00000E+000	10	...........	1582.96
	577	5.77	1.45501E-001	-1.23010E-003	0.00000E+000	-3.70030E-001	0.00000E+000	10	...........	1582.96
	578	5.78	1.43762E-001	-1.23007E-003	0.00000E+000	-3.70030E-001	0.00000E+000	10	...........	1582.96
	579	5.79	1.42026E-001	-1.23011E-003	0.00000E+000	-3.70030E-001	0.00000E+000	10	...........	1582.96
	580	5.8	1.40294E-001	-1.23009E-003	0.00000E+000	-3.70030E-001	0.00000E+000	10	...........	1582.96
	581	5.81	1.38570E-001	-1.23012E-003	0.00000E+000	-3.70030E-001	0.00000E+000	10	...........	1582.96
	582	5.82	1.36846E-001	-1.23010E-003	0.00000E+000	-3.70030E-001	0.00000E+000	10	...........	1582.96
	583	5.83	1.35130E-001	-1.23008E-003	0.00000E+000	-3.70030E-001	0.00000E+000	10	...........	1582.96
	584	5.84	1.33418E-001	-1.23005E-003	0.00000E+000	-3.70030E-001	0.00000E+000	10	...........	1582.96
	585	5.85	1.31712E-001	-1.23008E-003	0.00000E+000	-3.70030E-001	0.00000E+000	10	...........	1582.96
	586	5.86	1.30006E-001	-1.23001E-003	0.00000E+000	-3.70030E-001	0.00000E+000	10	...........	1582.96
	587	5.87	1.28311E-001	-1.23002E-003	0.00000E+000	-3.70030E-001	0.00000E+000	10	...........	1582.96
	588	5.88	1.26615E-001	-1.23007E-003	0.00000E+000	-3.70030E-001	0.00000E+000	10	...........	1582.96
	589	5.89	1.24924E-001	-1.23011E-003	0.00000E+000	-3.70030E-001	0.00000E+000	10	...........	1582.96
	590	5.9	1.23242E-001	-1.23008E-003	0.00000E+000	-3.70030E-001	0.00000E+000	10	...........	1582.96
	591	5.91	1.21558E-001	-1.23006E-003	0.00000E+000	-3.70030E-001	0.00000E+000	10	...........	1582.96
	592	5.92	1.19887E-001	-1.23004E-003	0.00000E+000	-3.70030E-001	0.00000E+000	10	...........	1582.96
	593	5.93	1.18216E-001	-1.23007E-003	0.00000E+000	-3.70030E-001	0.00000E+000	10	...........	1582.96
	594	5.94	1.16551E-001	-1.23007E-003	0.00000E+000	-3.70030E-001	0.00000E+000	10	...........	1582.96
	595	5.95	1.14888E-001	-1.23010E-003	0.00000E+000	-3.70030E-001	0.00000E+000	10	...........	1582.96
	596	5.96	1.13236E-001	-1.23007E-003	0.00000E+000	-3.70030E-001	0.00000E+000	10	...........	1582.96
	597	5.97	1.11582E-001	-1.23009E-003	0.00000E+000	-3.70030E-001	0.00000E+000	10	...........	1582.96
	598	5.98	1.09937E-001	-1.23005E-003	0.00000E+000	-3.70030E-001	0.00000E+000	10	...........	1582.96
	599	5.99	1.08293E-001	-1.23005E-003	0.00000E+000	-3.70030E-001	0.00000E+000	10	...........	1582.96
	600	6	1.06660E-001	-1.23004E-003	0.00000E+000	-3.70030E-001	0.00000E+000	10	...........	1582.96
	601	6.01	1.05031E-001	-1.23000E-003	0.00000E+000	-3.70030E-001	0.00000E+000	10	...........	1582.96
	602	6.02	1.03403E-001	-1.23000E-003	0.00000E+000	-3.70030E-001	0.00000E+000	10	...........	1582.96
	603	6.03	1.01779E-001	-1.23000E-003	0.00000E+000	-3.70030E-001	0.00000E+000	10	...........	1582.96
	604	6.04	1.00162E-001	-1.23009E-003	0.00000E+000	-3.70030E-001	0.00000E+000	10	...........	1582.96
	605	6.05	9.85489E-002	-1.23008E-003	0.00000E+000	-3.70030E-001	0.00000E+000	10	...........	1582.96
	606	6.06	9.69399E-002	-1.23009E-003	0.00000E+000	-3.70030E-001	0.00000E+000	10	...........	1582.96
	607	6.07	9.53412E-002	-1.23008E-003	0.00000E+000	-3.70030E-001	0.00000E+000	10	...........	1582.96
	608	6.08	9.37430E-002	-1.23001E-003	0.00000E+000	-3.70030E-001	0.00000E+000	10	...........	1582.96
	609	6.09	9.21553E-002	-1.23000E-003	0.00000E+000	-3.70030E-001	0.00000E+000	10	...........	1582.96
	610	6.1	9.05634E-002	-1.23001E-003	0.00000E+000	-3.70030E-001	0.00000E+000	10	...........	1582.96
	611	6.11	8.89809E-002	-1.23006E-003	0.00000E+000	-3.70030E-001	0.00000E+000	10	...........	1582.96
	612	6.12	8.74041E-002	-1.23008E-003	0.00000E+000	-3.70030E-001	0.00000E+000	10	...........	1582.96
	613	6.13	8.58284E-002	-1.23009E-003	0.00000E+000	-3.70030E-001	0.00000E+000	10	...........	1582.96
	614	6.14	8.42600E-002	-1.23010E-003	0.00000E+000	-3.70030E-001	0.00000E+000	10	...........	1582.96
	615	6.15	8.26975E-002	-1.23012E-003	0.00000E+000	-3.70030E-001	0.00000E+000	10	...........	1582.96
	616	6.16	8.11427E-002	-1.23012E-003	0.00000E+000	-3.70030E-001	0.00000E+000	10	...........	1582.96
	617	6.17	7.95904E-002	-1.23008E-003	0.00000E+000	-3.70030E-001	0.00000E+000	10	...........	1582.96
	618	6.18	7.80440E-002	-1.23006E-003	0.00000E+000	-3.70030E-001	0.00000E+000	10	...........	1582.96
	619	6.19	7.64973E-002	-1.23004E-003	0.00000E+000	-3.70030E-001	0.00000E+000	10	...........	1582.96
	620	6.2	7.49627E-002	-1.23009E-003	0.00000E+000	-3.70030E-001	0.00000E+000	10	...........	1582.96
	621	6.21	7.34263E-002	-1.23006E-003	0.00000E+000	-3.70030E-001	0.00000E+000	10	...........	1582.96
	622	6.22	7.18998E-002	-1.23002E-003	0.00000E+000	-3.70030E-001	0.00000E+000	10	...........	1582.96
	623	6.23	7.03788E-002	-1.23001E-003	0.00000E+000	-3.70030E-001	0.00000E+000	10	...........	1582.96
	624	6.24	6.88570E-002	-1.23009E-003	0.00000E+000	-3.70030E-001	0.00000E+000	10	...........	1582.96
	625	6.25	6.73418E-002	-1.23010E-003	0.00000E+000	-3.70030E-001	0.00000E+000	10	...........	1582.96
	626	6.26	6.58318E-002	-1.23006E-003	0.00000E+000	-3.70030E-001	0.00000E+000	10	...........	1582.96
	627	6.27	6.43290E-002	-1.23006E-003	0.00000E+000	-3.70030E-001	0.00000E+000	10	...........	1582.96
	628	6.28	6.28272E-002	-1.23003E-003	0.00000E+000	-3.70030E-001	0.00000E+000	10	...........	1582.96
	629	6.29	6.13348E-002	-1.23009E-003	0.00000E+000	-3.70030E-001	0.00000E+000	10	...........	1582.96
	630	6.3	5.98438E-002	-1.23007E-003	0.00000E+000	-3.70030E-001	0.00000E+000	10	...........	1582.96
	631	6.31	5.83616E-002	-1.23007E-003	0.00000E+000	-3.70030E-001	0.00000E+000	10	...........	1582.96
	632	6.32	5.68798E-002	-1.23006E-003	0.00000E+000	-3.70030E-001	0.00000E+000	10	...........	1582.96
	633	6.33	5.54034E-002	-1.23007E-003	0.00000E+000	-3.70030E-001	0.00000E+000	10	...........	1582.96
	634	6.34	5.39384E-002	-1.23000E-003	0.00000E+000	-3.70030E-001	0.00000E+000	10	...........	1582.96
	635	6.35	5.24720E-002	-1.23004E-003	0.00000E+000	-3.70030E-001	0.00000E+000	10	...........	1582.96
	636	6.36	5.10086E-002	-1.23007E-003	0.00000E+000	-3.70030E-001	0.00000E+000	10	...........	1582.96
	637	6.37	4.95548E-002	-1.23005E-003	0.00000E+000	-3.70030E-001	0.00000E+000	10	...........	1582.96
	638	6.38	4.81013E-002	-1.23005E-003	0.00000E+000	-3.70030E-001	0.00000E+000	10	...........	1582.96
	639	6.39	4.66563E-002	-1.23003E-003	0.00000E+000	-3.70030E-001	0.00000E+000	10	...........	1582.96
	640	6.4	4.52144E-002	-1.23009E-003	0.00000E+000	-3.70030E-001	0.00000E+000	10	...........	1582.96
	641	6.41	4.37787E-002	-1.23006E-003	0.00000E+000	-3.70030E-001	0.00000E+000	10	...........	1582.96
	642	6.42	4.23476E-002	-1.23004E-003	0.00000E+000	-3.70030E-001	0.00000E+000	10	...........	1582.96
	643	6.43	4.09233E-002	-1.23007E-003	0.00000E+000	-3.70030E-001	0.00000E+000	10	...........	1582.96
	644	6.44	3.94972E-002	-1.23004E-003	0.00000E+000	-3.70030E-001	0.00000E+000	10	...........	1582.96
	645	6.45	3.80777E-002	-1.23006E-003	0.00000E+000	-3.70030E-001	0.00000E+000	10	...........	1582.96
	646	6.46	3.66681E-002	-1.23001E-003	0.00000E+000	-3.70030E-001	0.00000E+000	10	...........	1582.96
	647	6.47	3.52586E-002	-1.23004E-003	0.00000E+000	-3.70030E-001	0.00000E+000	10	...........	1582.96
	648	6.48	3.38534E-002	-1.23004E-003	0.00000E+000	-3.70030E-001	0.00000E+000	10	...........	1582.96
	649	6.49	3.24537E-002	-1.23003E-003	0.00000E+000	-3.70030E-001	0.00000E+000	10	...........	1582.96
	650	6.5	3.10610E-002	-1.23008E-003	0.00000E+000	-3.70030E-001	0.00000E+000	10	...........	1582.96
	651	6.51	2.96712E-002	-1.23001E-003	0.00000E+000	-3.70030E-001	0.00000E+000	10	...........	1582.96
	652	6.52	2.82860E-002	-1.23007E-003	0.00000E+000	-3.70030E-001	0.00000E+000	10	...........	1582.96
	653	6.53	2.69051E-002	-1.23004E-003	0.00000E+000	-3.70030E-001	0.00000E+000	10	...........	1582.96
	654	6.54	2.55278E-002	-1.23005E-003	0.00000E+000	-3.70030E-001	0.00000E+000	10	...........	1582.96
	655	6.55	2.41579E-002	-1.23006E-003	0.00000E+000	-3.70030E-001	0.00000E+000	10	...........	1582.96
	656	6.56	2.27917E-002	-1.23011E-003	0.00000E+000	-3.70030E-001	0.00000E+000	10	...........	1582.96
	657	6.57	2.14318E-002	-1.23007E-003	0.00000E+000	-3.70030E-001	0.00000E+000	10	...........	1582.96
	658	6.58	2.00699E-002	-1.23003E-003	0.00000E+000	-3.70030E-001	0.00000E+000	10	...........	1582.96
	659	6.59	1.87183E-002	-1.23010E-003	0.00000E+000	-3.70030E-001	0.00000E+000	10	...........	1582.96
	660	6.6	1.73681E-002	-1.23009E-003	0.00000E+000	-3.70030E-001	0.00000E+000	10	...........	1582.96
	661	6.61	1.60216E-002	-1.23008E-003	0.00000E+000	-3.70030E-001	0.00000E+000	10	...........	1582.96
	662	6.62	1.46800E-002	-1.23006E-003	0.00000E+000	-3.70030E-001	0.00000E+000	10	...........	1582.96
	663	6.63	1.33447E-002	-1.23003E-003	0.00000E+000	-3.70030E-001	0.00000E+000	10	...........	1582.96
	664	6.64	1.20103E-002	-1.23005E-003	0.00000E+000	-3.70030E-001	0.00000E+000	10	...........	1582.96
	665	6.65	1.06826E-002	-1.23005E-003	0.00000E+000	-3.70030E-001	0.00000E+000	10	...........	1582.96
	666	6.66	9.36175E-003	-1.23006E-003	0.00000E+000	-3.70030E-001	0.00000E+000	10	...........	1582.96
	667	6.67	8.03930E-003	-1.23008E-003	0.00000E+000	-3.70030E-001	0.00000E+000	10	...........	1582.96
	668	6.68	6.72627E-003	-1.23008E-003	0.00000E+000	-3.70030E-001	0.00000E+000	10	...........	1582.96
	669	6.69	5.41690E-003	-1.23008E-003	0.00000E+000	-3.70030E-001	0.00000E+000	10	...........	1582.96
	670	6.7	4.10905E-003	-1.23008E-003	0.00000E+000	-3.70030E-001	0.00000E+000	10	...........	1582.96
	671	6.71	2.80437E-003	-1.23009E-003	0.00000E+000	-3.70030E-001	0.00000E+000	10	...........	1582.96
	672	6.72	1.50702E-003	-1.23012E-003	0.00000E+000	-3.70030E-001	0.00000E+000	10	...........	1582.96
	673	6.73	2.12120E-004	-1.23009E-003	0.00000E+000	-3.70030E-001	0.00000E+000	10	...........	1582.96
	674	6.74	-1.07896E-003	-1.23007E-003	0.00000E+000	-3.70030E-001	0.00000E+000	10	...........	1582.96
