EXPLAIN
TAG	CHRONOP
TITLE	LABEL	Chronopotentiometry Scan	Test Identifier
DATE	LABEL	23/1/2025	Date
TIME	LABEL	10:38:37	Time
NOTES	NOTES	1	Notes...
	
PSTAT	PSTAT	IFC1010-42004	Potentiostat
IPRESTEP	QUANT	0.00000E+000	Pre-step Current(A)
TPRESTEP	QUANT	0.00000E+000	Pre-step Delay Time (s)
ISTEP1	QUANT	1.23000E-003	Step 1 Current (A)
TSTEP1	QUANT	5.00000E+003	Step 1 Time (s)
ISTEP2	QUANT	-1.23000E-003	Step 2 Current (A)
TSTEP2	QUANT	5.00000E+003	Step 2 Time (s)
SAMPLETIME	QUANT	1.00000E-002	Sample Period (s)
DECIMATE	TOGGLE	F	Decimate
VLIMITLOWER	QUANT	0.00000E+000	Lower Limit V (V)
VLIMITUPPER	QUANT	8.00000E-001	Upper Limit V (V)
EQDELAY	QUANT	1.00000E+000	Equil. Time (s)
SAMPLINGMODE	SELECTOR	1	Sampling Mode
AREA	QUANT	2.00000E+000	Sample Area (cm^2)
ELECTRODETYPE	SELECTOR	0	Electrode Type
STRIPPING	TOGGLE	F	Used for Stripping
SEQUENCER	TOGGLE	TRUE	Run as Sequence
PSTATMODEL	IQUANT	64	Pstat Model
PSTATSECTION	LABEL	IFC1010-42004	Pstat Section
PSTATSERIALNO	LABEL	42004	Pstat Serial Number
CTRLMODE	IQUANT	0	Control Mode
ELECTROMETER	IQUANT	0	RE=0 or CS=1
IESTAB	IQUANT	0	I/E Stability
CASPEED	IQUANT	4	Control Amp Speed
CONVENTION	IQUANT	1	Current Convention
ICHRANGE	IQUANT	2	Ich Range
ICHRANGEMODE	TOGGLE	T	Ich Auto Range
ICHOFFSETENABLE	TOGGLE	F	Ich Offset Enable
ICHOFFSET	QUANT	0	Ich Offset (V)
ICHFILTER	IQUANT	3	Ich Filter
VCHRANGE	IQUANT	3	Vch Range
VCHRANGEMODE	TOGGLE	T	Vch Auto Range
VCHOFFSETENABLE	TOGGLE	F	Vch Offset Enable
VCHOFFSET	QUANT	0	Vch Offset (V)
VCHFILTER	IQUANT	3	Vch Filter
IERANGELOWERLIMIT	IQUANT	4	I/E Range Lower Limit
IERANGEMODE	TOGGLE	F	I/E AutoRange
IERANGE	IQUANT	11	I/E Range
ACHSELECT	IQUANT	0	Ach Select
ACHRANGE	IQUANT	2	Ach Range
ACHOFFSETENABLE	TOGGLE	F	Ach Offset Enable
ACHOFFSET	QUANT	0	Ach Offset (V)
ACHFILTER	IQUANT	1	Ach Filter
SENSECABLEID	IQUANT	14	Sense Cable ID
PWRCABLEID	IQUANT	14	Power Cable ID
DCCALDATE	LABEL	1/22/2025	DC Calibration Date
ACCALDATE	LABEL	11/15/2024	AC Calibration Date
FRAMEWORKVERSION	LABEL	7.10.4	Framework Version
INSTRUMENTVERSION	LABEL	4.91	Instrument Version
COMMVERSION	LABEL	3.10	Communications Version
CPUPLDVERSION	LABEL	2.54	CPU PLD Version
CTRLPLDVERSION	LABEL	0.00	CTRL PLD Version
PSTATPLDVERSION	LABEL	0.00	PSTAT PLD Version
CURVE	TABLE	603
	Pt	T	Vf	Im	Vu	Sig	Ach	IERange	Over	Temp
	#	s	V vs. Ref.	A	V	V	V	#	bits	deg C
	0	0	2.40364E-001	-7.49280E-008	0.00000E+000	0.00000E+000	0.00000E+000	10	...........	1583.53
	1	0.01	2.55985E-001	1.22961E-003	0.00000E+000	3.70030E-001	0.00000E+000	10	...........	1583.53
	2	0.02	2.58734E-001	1.22969E-003	0.00000E+000	3.70030E-001	0.00000E+000	10	...........	1583.53
	3	0.03	2.61153E-001	1.22967E-003	0.00000E+000	3.70030E-001	0.00000E+000	10	...........	1583.53
	4	0.04	2.63453E-001	1.22967E-003	0.00000E+000	3.70030E-001	0.00000E+000	10	...........	1583.53
	5	0.05	2.65707E-001	1.22966E-003	0.00000E+000	3.70030E-001	0.00000E+000	10	...........	1583.53
	6	0.06	2.67929E-001	1.22962E-003	0.00000E+000	3.70030E-001	0.00000E+000	10	...........	1583.53
	7	0.07	2.70141E-001	1.22963E-003	0.00000E+000	3.70030E-001	0.00000E+000	10	...........	1583.53
	8	0.08	2.72327E-001	1.22962E-003	0.00000E+000	3.70030E-001	0.00000E+000	10	...........	1583.53
	9	0.09	2.74525E-001	1.22961E-003	0.00000E+000	3.70030E-001	0.00000E+000	10	...........	1583.53
	10	0.1	2.76681E-001	1.22966E-003	0.00000E+000	3.70030E-001	0.00000E+000	10	...........	1583.53
	11	0.11	2.78870E-001	1.22967E-003	0.00000E+000	3.70030E-001	0.00000E+000	10	...........	1583.53
	12	0.12	2.81042E-001	1.22962E-003	0.00000E+000	3.70030E-001	0.00000E+000	10	...........	1583.53
	13	0.13	2.83237E-001	1.22962E-003	0.00000E+000	3.70030E-001	0.00000E+000	10	...........	1583.53
	14	0.14	2.85405E-001	1.22966E-003	0.00000E+000	3.70030E-001	0.00000E+000	10	...........	1583.53
	15	0.15	2.87569E-001	1.22963E-003	0.00000E+000	3.70030E-001	0.00000E+000	10	...........	1583.53
	16	0.16	2.89752E-001	1.22968E-003	0.00000E+000	3.70030E-001	0.00000E+000	10	...........	1583.53
	17	0.17	2.91918E-001	1.22970E-003	0.00000E+000	3.70030E-001	0.00000E+000	10	...........	1583.53
	18	0.18	2.94094E-001	1.22970E-003	0.00000E+000	3.70030E-001	0.00000E+000	10	...........	1583.53
	19	0.19	2.96293E-001	1.22970E-003	0.00000E+000	3.70030E-001	0.00000E+000	10	...........	1583.53
	20	0.2	2.98446E-001	1.22977E-003	0.00000E+000	3.70030E-001	0.00000E+000	10	...........	1583.53
	21	0.21	3.00619E-001	1.22966E-003	0.00000E+000	3.70030E-001	0.00000E+000	10	...........	1583.53
	22	0.22	3.02807E-001	1.22966E-003	0.00000E+000	3.70030E-001	0.00000E+000	10	...........	1583.53
	23	0.23	3.04989E-001	1.22966E-003	0.00000E+000	3.70030E-001	0.00000E+000	10	...........	1583.53
	24	0.24	3.07167E-001	1.22970E-003	0.00000E+000	3.70030E-001	0.00000E+000	10	...........	1583.53
	25	0.25	3.09397E-001	1.22966E-003	0.00000E+000	3.70030E-001	0.00000E+000	10	...........	1583.53
	26	0.26	3.11569E-001	1.22972E-003	0.00000E+000	3.70030E-001	0.00000E+000	10	...........	1583.53
	27	0.27	3.13766E-001	1.22967E-003	0.00000E+000	3.70030E-001	0.00000E+000	10	...........	1583.53
	28	0.28	3.15927E-001	1.22962E-003	0.00000E+000	3.70030E-001	0.00000E+000	10	...........	1583.53
	29	0.29	3.18125E-001	1.22962E-003	0.00000E+000	3.70030E-001	0.00000E+000	10	...........	1583.53
	30	0.3	3.20348E-001	1.22964E-003	0.00000E+000	3.70030E-001	0.00000E+000	10	...........	1583.53
	31	0.31	3.22536E-001	1.22961E-003	0.00000E+000	3.70030E-001	0.00000E+000	10	...........	1583.53
	32	0.32	3.24712E-001	1.22964E-003	0.00000E+000	3.70030E-001	0.00000E+000	10	...........	1583.53
	33	0.33	3.26907E-001	1.22964E-003	0.00000E+000	3.70030E-001	0.00000E+000	10	...........	1583.53
	34	0.34	3.29100E-001	1.22960E-003	0.00000E+000	3.70030E-001	0.00000E+000	10	...........	1583.53
	35	0.35	3.31292E-001	1.22961E-003	0.00000E+000	3.70030E-001	0.00000E+000	10	...........	1583.53
	36	0.36	3.33531E-001	1.22964E-003	0.00000E+000	3.70030E-001	0.00000E+000	10	...........	1583.53
	37	0.37	3.35726E-001	1.22966E-003	0.00000E+000	3.70030E-001	0.00000E+000	10	...........	1583.53
	38	0.38	3.37938E-001	1.22965E-003	0.00000E+000	3.70030E-001	0.00000E+000	10	...........	1583.53
	39	0.39	3.40131E-001	1.22968E-003	0.00000E+000	3.70030E-001	0.00000E+000	10	...........	1583.53
	40	0.4	3.42346E-001	1.22961E-003	0.00000E+000	3.70030E-001	0.00000E+000	10	...........	1583.53
	41	0.41	3.44580E-001	1.22966E-003	0.00000E+000	3.70030E-001	0.00000E+000	10	...........	1583.53
	42	0.42	3.46799E-001	1.22966E-003	0.00000E+000	3.70030E-001	0.00000E+000	10	...........	1583.53
	43	0.43	3.49037E-001	1.22968E-003	0.00000E+000	3.70030E-001	0.00000E+000	10	...........	1583.53
	44	0.44	3.51237E-001	1.22969E-003	0.00000E+000	3.70030E-001	0.00000E+000	10	...........	1583.53
	45	0.45	3.53462E-001	1.22968E-003	0.00000E+000	3.70030E-001	0.00000E+000	10	...........	1583.53
	46	0.46	3.55678E-001	1.22969E-003	0.00000E+000	3.70030E-001	0.00000E+000	10	...........	1583.53
	47	0.47	3.57879E-001	1.22968E-003	0.00000E+000	3.70030E-001	0.00000E+000	10	...........	1583.53
	48	0.48	3.60149E-001	1.22969E-003	0.00000E+000	3.70030E-001	0.00000E+000	10	...........	1583.53
	49	0.49	3.62380E-001	1.22968E-003	0.00000E+000	3.70030E-001	0.00000E+000	10	...........	1583.53
	50	0.5	3.64626E-001	1.22973E-003	0.00000E+000	3.70030E-001	0.00000E+000	10	...........	1583.53
	51	0.51	3.66854E-001	1.22966E-003	0.00000E+000	3.70030E-001	0.00000E+000	10	...........	1583.53
	52	0.52	3.69083E-001	1.22968E-003	0.00000E+000	3.70030E-001	0.00000E+000	10	...........	1583.53
	53	0.53	3.71335E-001	1.22971E-003	0.00000E+000	3.70030E-001	0.00000E+000	10	...........	1583.53
	54	0.54	3.73567E-001	1.22969E-003	0.00000E+000	3.70030E-001	0.00000E+000	10	...........	1583.53
	55	0.55	3.75812E-001	1.22971E-003	0.00000E+000	3.70030E-001	0.00000E+000	10	...........	1583.53
	56	0.56	3.78051E-001	1.22968E-003	0.00000E+000	3.70030E-001	0.00000E+000	10	...........	1583.53
	57	0.57	3.80288E-001	1.22964E-003	0.00000E+000	3.70030E-001	0.00000E+000	10	...........	1583.53
	58	0.58	3.82524E-001	1.22971E-003	0.00000E+000	3.70030E-001	0.00000E+000	10	...........	1583.53
	59	0.59	3.84786E-001	1.22969E-003	0.00000E+000	3.70030E-001	0.00000E+000	10	...........	1583.53
	60	0.6	3.87055E-001	1.22970E-003	0.00000E+000	3.70030E-001	0.00000E+000	10	...........	1583.53
	61	0.61	3.89292E-001	1.22964E-003	0.00000E+000	3.70030E-001	0.00000E+000	10	...........	1583.53
	62	0.62	3.91554E-001	1.22967E-003	0.00000E+000	3.70030E-001	0.00000E+000	10	...........	1583.53
	63	0.63	3.93813E-001	1.22973E-003	0.00000E+000	3.70030E-001	0.00000E+000	10	...........	1583.53
	64	0.64	3.96057E-001	1.22969E-003	0.00000E+000	3.70030E-001	0.00000E+000	10	...........	1583.53
	65	0.65	3.98346E-001	1.22970E-003	0.00000E+000	3.70030E-001	0.00000E+000	10	...........	1583.53
	66	0.66	4.00609E-001	1.22966E-003	0.00000E+000	3.70030E-001	0.00000E+000	10	...........	1583.53
	67	0.67	4.02864E-001	1.22967E-003	0.00000E+000	3.70030E-001	0.00000E+000	10	...........	1583.53
	68	0.68	4.05141E-001	1.22973E-003	0.00000E+000	3.70030E-001	0.00000E+000	10	...........	1583.53
	69	0.69	4.07411E-001	1.22971E-003	0.00000E+000	3.70030E-001	0.00000E+000	10	...........	1583.53
	70	0.7	4.09696E-001	1.22968E-003	0.00000E+000	3.70030E-001	0.00000E+000	10	...........	1583.53
	71	0.71	4.11973E-001	1.22966E-003	0.00000E+000	3.70030E-001	0.00000E+000	10	...........	1583.53
	72	0.72	4.14241E-001	1.22974E-003	0.00000E+000	3.70030E-001	0.00000E+000	10	...........	1583.53
	73	0.73	4.16546E-001	1.22978E-003	0.00000E+000	3.70030E-001	0.00000E+000	10	...........	1583.53
	74	0.74	4.18809E-001	1.22973E-003	0.00000E+000	3.70030E-001	0.00000E+000	10	...........	1583.53
	75	0.75	4.21084E-001	1.22976E-003	0.00000E+000	3.70030E-001	0.00000E+000	10	...........	1583.73
	76	0.76	4.23396E-001	1.22972E-003	0.00000E+000	3.70030E-001	0.00000E+000	10	...........	1583.73
	77	0.77	4.25667E-001	1.22969E-003	0.00000E+000	3.70030E-001	0.00000E+000	10	...........	1583.73
	78	0.78	4.27940E-001	1.22966E-003	0.00000E+000	3.70030E-001	0.00000E+000	10	...........	1583.73
	79	0.79	4.30228E-001	1.22963E-003	0.00000E+000	3.70030E-001	0.00000E+000	10	...........	1583.73
	80	0.8	4.32508E-001	1.22965E-003	0.00000E+000	3.70030E-001	0.00000E+000	10	...........	1583.73
	81	0.81	4.34789E-001	1.22962E-003	0.00000E+000	3.70030E-001	0.00000E+000	10	...........	1583.73
	82	0.82	4.37125E-001	1.22963E-003	0.00000E+000	3.70030E-001	0.00000E+000	10	...........	1583.73
	83	0.83	4.39420E-001	1.22962E-003	0.00000E+000	3.70030E-001	0.00000E+000	10	...........	1583.73
	84	0.84	4.41712E-001	1.22961E-003	0.00000E+000	3.70030E-001	0.00000E+000	10	...........	1583.73
	85	0.85	4.43993E-001	1.22965E-003	0.00000E+000	3.70030E-001	0.00000E+000	10	...........	1583.73
	86	0.86	4.46301E-001	1.22964E-003	0.00000E+000	3.70030E-001	0.00000E+000	10	...........	1583.73
	87	0.87	4.48604E-001	1.22961E-003	0.00000E+000	3.70030E-001	0.00000E+000	10	...........	1583.73
	88	0.88	4.50908E-001	1.22967E-003	0.00000E+000	3.70030E-001	0.00000E+000	10	...........	1583.73
	89	0.89	4.53222E-001	1.22966E-003	0.00000E+000	3.70030E-001	0.00000E+000	10	...........	1583.73
	90	0.9	4.55527E-001	1.22966E-003	0.00000E+000	3.70030E-001	0.00000E+000	10	...........	1583.73
	91	0.91	4.57832E-001	1.22966E-003	0.00000E+000	3.70030E-001	0.00000E+000	10	...........	1583.73
	92	0.92	4.60122E-001	1.22962E-003	0.00000E+000	3.70030E-001	0.00000E+000	10	...........	1583.73
	93	0.93	4.62467E-001	1.22963E-003	0.00000E+000	3.70030E-001	0.00000E+000	10	...........	1583.73
	94	0.94	4.64779E-001	1.22965E-003	0.00000E+000	3.70030E-001	0.00000E+000	10	...........	1583.73
	95	0.95	4.67091E-001	1.22973E-003	0.00000E+000	3.70030E-001	0.00000E+000	10	...........	1583.73
	96	0.96	4.69426E-001	1.22973E-003	0.00000E+000	3.70030E-001	0.00000E+000	10	...........	1583.73
	97	0.97	4.71750E-001	1.22974E-003	0.00000E+000	3.70030E-001	0.00000E+000	10	...........	1583.73
	98	0.98	4.74077E-001	1.22968E-003	0.00000E+000	3.70030E-001	0.00000E+000	10	...........	1583.73
	99	0.99	4.76398E-001	1.22973E-003	0.00000E+000	3.70030E-001	0.00000E+000	10	...........	1583.73
	100	1	4.78696E-001	1.22969E-003	0.00000E+000	3.70030E-001	0.00000E+000	10	...........	1583.73
	101	1.01	4.81035E-001	1.22970E-003	0.00000E+000	3.70030E-001	0.00000E+000	10	...........	1583.73
	102	1.02	4.83358E-001	1.22966E-003	0.00000E+000	3.70030E-001	0.00000E+000	10	...........	1583.73
	103	1.03	4.85666E-001	1.22968E-003	0.00000E+000	3.70030E-001	0.00000E+000	10	...........	1583.73
	104	1.04	4.88031E-001	1.22973E-003	0.00000E+000	3.70030E-001	0.00000E+000	10	...........	1583.73
	105	1.05	4.90349E-001	1.22963E-003	0.00000E+000	3.70030E-001	0.00000E+000	10	...........	1583.73
	106	1.06	4.92669E-001	1.22967E-003	0.00000E+000	3.70030E-001	0.00000E+000	10	...........	1583.73
	107	1.07	4.95004E-001	1.22972E-003	0.00000E+000	3.70030E-001	0.00000E+000	10	...........	1583.73
	108	1.08	4.97353E-001	1.22979E-003	0.00000E+000	3.70030E-001	0.00000E+000	10	...........	1583.73
	109	1.09	4.99705E-001	1.22970E-003	0.00000E+000	3.70030E-001	0.00000E+000	10	...........	1583.73
	110	1.1	5.02023E-001	1.22974E-003	0.00000E+000	3.70030E-001	0.00000E+000	10	...........	1583.73
	111	1.11	5.04373E-001	1.22971E-003	0.00000E+000	3.70030E-001	0.00000E+000	10	...........	1583.73
	112	1.12	5.06724E-001	1.22971E-003	0.00000E+000	3.70030E-001	0.00000E+000	10	...........	1583.73
	113	1.13	5.09039E-001	1.22975E-003	0.00000E+000	3.70030E-001	0.00000E+000	10	...........	1583.73
	114	1.14	5.11369E-001	1.22969E-003	0.00000E+000	3.70030E-001	0.00000E+000	10	...........	1583.73
	115	1.15	5.13752E-001	1.22970E-003	0.00000E+000	3.70030E-001	0.00000E+000	10	...........	1583.73
	116	1.16	5.16093E-001	1.22971E-003	0.00000E+000	3.70030E-001	0.00000E+000	10	...........	1583.73
	117	1.17	5.18428E-001	1.22967E-003	0.00000E+000	3.70030E-001	0.00000E+000	10	...........	1583.73
	118	1.18	5.20773E-001	1.22973E-003	0.00000E+000	3.70030E-001	0.00000E+000	10	...........	1583.73
	119	1.19	5.23122E-001	1.22967E-003	0.00000E+000	3.70030E-001	0.00000E+000	10	...........	1583.73
	120	1.2	5.25485E-001	1.22969E-003	0.00000E+000	3.70030E-001	0.00000E+000	10	...........	1583.73
	121	1.21	5.27832E-001	1.22970E-003	0.00000E+000	3.70030E-001	0.00000E+000	10	...........	1583.73
	122	1.22	5.30169E-001	1.22970E-003	0.00000E+000	3.70030E-001	0.00000E+000	10	...........	1583.73
	123	1.23	5.32512E-001	1.22966E-003	0.00000E+000	3.70030E-001	0.00000E+000	10	...........	1583.73
	124	1.24	5.34864E-001	1.22964E-003	0.00000E+000	3.70030E-001	0.00000E+000	10	...........	1583.73
	125	1.25	5.37202E-001	1.22964E-003	0.00000E+000	3.70030E-001	0.00000E+000	10	...........	1583.73
	126	1.26	5.39573E-001	1.22966E-003	0.00000E+000	3.70030E-001	0.00000E+000	10	...........	1583.73
	127	1.27	5.41926E-001	1.22965E-003	0.00000E+000	3.70030E-001	0.00000E+000	10	...........	1583.73
	128	1.28	5.44281E-001	1.22966E-003	0.00000E+000	3.70030E-001	0.00000E+000	10	...........	1583.73
	129	1.29	5.46618E-001	1.22969E-003	0.00000E+000	3.70030E-001	0.00000E+000	10	...........	1583.73
	130	1.3	5.48964E-001	1.22969E-003	0.00000E+000	3.70030E-001	0.00000E+000	10	...........	1583.73
	131	1.31	5.51345E-001	1.22967E-003	0.00000E+000	3.70030E-001	0.00000E+000	10	...........	1583.73
	132	1.32	5.53699E-001	1.22974E-003	0.00000E+000	3.70030E-001	0.00000E+000	10	...........	1583.73
	133	1.33	5.56047E-001	1.22969E-003	0.00000E+000	3.70030E-001	0.00000E+000	10	...........	1583.73
	134	1.34	5.58395E-001	1.22969E-003	0.00000E+000	3.70030E-001	0.00000E+000	10	...........	1583.73
	135	1.35	5.60743E-001	1.22970E-003	0.00000E+000	3.70030E-001	0.00000E+000	10	...........	1583.73
	136	1.36	5.63102E-001	1.22965E-003	0.00000E+000	3.70030E-001	0.00000E+000	10	...........	1583.73
	137	1.37	5.65479E-001	1.22965E-003	0.00000E+000	3.70030E-001	0.00000E+000	10	...........	1583.73
	138	1.38	5.67814E-001	1.22964E-003	0.00000E+000	3.70030E-001	0.00000E+000	10	...........	1583.73
	139	1.39	5.70171E-001	1.22963E-003	0.00000E+000	3.70030E-001	0.00000E+000	10	...........	1583.73
	140	1.4	5.72522E-001	1.22962E-003	0.00000E+000	3.70030E-001	0.00000E+000	10	...........	1583.73
	141	1.41	5.74865E-001	1.22966E-003	0.00000E+000	3.70030E-001	0.00000E+000	10	...........	1583.73
	142	1.42	5.77244E-001	1.22963E-003	0.00000E+000	3.70030E-001	0.00000E+000	10	...........	1583.73
	143	1.43	5.79599E-001	1.22962E-003	0.00000E+000	3.70030E-001	0.00000E+000	10	...........	1583.73
	144	1.44	5.81936E-001	1.22970E-003	0.00000E+000	3.70030E-001	0.00000E+000	10	...........	1583.73
	145	1.45	5.84274E-001	1.22967E-003	0.00000E+000	3.70030E-001	0.00000E+000	10	...........	1583.73
	146	1.46	5.86637E-001	1.22963E-003	0.00000E+000	3.70030E-001	0.00000E+000	10	...........	1583.73
	147	1.47	5.88968E-001	1.22964E-003	0.00000E+000	3.70030E-001	0.00000E+000	10	...........	1583.73
	148	1.48	5.91362E-001	1.22968E-003	0.00000E+000	3.70030E-001	0.00000E+000	10	...........	1583.73
	149	1.49	5.93700E-001	1.22968E-003	0.00000E+000	3.70030E-001	0.00000E+000	10	...........	1583.73
	150	1.5	5.96046E-001	1.22969E-003	0.00000E+000	3.70030E-001	0.00000E+000	10	...........	1583.73
	151	1.51	5.98383E-001	1.22971E-003	0.00000E+000	3.70030E-001	0.00000E+000	10	...........	1583.73
	152	1.52	6.00730E-001	1.22963E-003	0.00000E+000	3.70030E-001	0.00000E+000	10	...........	1583.73
	153	1.53	6.03103E-001	1.22970E-003	0.00000E+000	3.70030E-001	0.00000E+000	10	...........	1583.73
	154	1.54	6.05429E-001	1.22974E-003	0.00000E+000	3.70030E-001	0.00000E+000	10	...........	1583.73
	155	1.55	6.07768E-001	1.22967E-003	0.00000E+000	3.70030E-001	0.00000E+000	10	...........	1583.73
	156	1.56	6.10114E-001	1.22968E-003	0.00000E+000	3.70030E-001	0.00000E+000	10	...........	1583.73
	157	1.57	6.12448E-001	1.22971E-003	0.00000E+000	3.70030E-001	0.00000E+000	10	...........	1583.73
	158	1.58	6.14789E-001	1.22972E-003	0.00000E+000	3.70030E-001	0.00000E+000	10	...........	1583.73
	159	1.59	6.17152E-001	1.22965E-003	0.00000E+000	3.70030E-001	0.00000E+000	10	...........	1583.73
	160	1.6	6.19490E-001	1.22969E-003	0.00000E+000	3.70030E-001	0.00000E+000	10	...........	1583.73
	161	1.61	6.21822E-001	1.22973E-003	0.00000E+000	3.70030E-001	0.00000E+000	10	...........	1583.73
	162	1.62	6.24151E-001	1.22968E-003	0.00000E+000	3.70030E-001	0.00000E+000	10	...........	1583.73
	163	1.63	6.26473E-001	1.22964E-003	0.00000E+000	3.70030E-001	0.00000E+000	10	...........	1583.73
	164	1.64	6.28812E-001	1.22970E-003	0.00000E+000	3.70030E-001	0.00000E+000	10	...........	1583.73
	165	1.65	6.31116E-001	1.22969E-003	0.00000E+000	3.70030E-001	0.00000E+000	10	...........	1583.73
	166	1.66	6.33424E-001	1.22970E-003	0.00000E+000	3.70030E-001	0.00000E+000	10	...........	1583.73
	167	1.67	6.35748E-001	1.22968E-003	0.00000E+000	3.70030E-001	0.00000E+000	10	...........	1583.73
	168	1.68	6.38058E-001	1.22966E-003	0.00000E+000	3.70030E-001	0.00000E+000	10	...........	1583.73
	169	1.69	6.40394E-001	1.22969E-003	0.00000E+000	3.70030E-001	0.00000E+000	10	...........	1583.73
	170	1.7	6.42696E-001	1.22968E-003	0.00000E+000	3.70030E-001	0.00000E+000	10	...........	1583.73
	171	1.71	6.45005E-001	1.22967E-003	0.00000E+000	3.70030E-001	0.00000E+000	10	...........	1583.73
	172	1.72	6.47317E-001	1.22964E-003	0.00000E+000	3.70030E-001	0.00000E+000	10	...........	1583.73
	173	1.73	6.49606E-001	1.22966E-003	0.00000E+000	3.70030E-001	0.00000E+000	10	...........	1583.73
	174	1.74	6.51890E-001	1.22971E-003	0.00000E+000	3.70030E-001	0.00000E+000	10	...........	1583.73
	175	1.75	6.54192E-001	1.22971E-003	0.00000E+000	3.70030E-001	0.00000E+000	10	...........	1583.25
	176	1.76	6.56489E-001	1.22966E-003	0.00000E+000	3.70030E-001	0.00000E+000	10	...........	1583.25
	177	1.77	6.58764E-001	1.22969E-003	0.00000E+000	3.70030E-001	0.00000E+000	10	...........	1583.25
	178	1.78	6.61057E-001	1.22969E-003	0.00000E+000	3.70030E-001	0.00000E+000	10	...........	1583.25
	179	1.79	6.63322E-001	1.22969E-003	0.00000E+000	3.70030E-001	0.00000E+000	10	...........	1583.25
	180	1.8	6.65592E-001	1.22966E-003	0.00000E+000	3.70030E-001	0.00000E+000	10	...........	1583.25
	181	1.81	6.67893E-001	1.22968E-003	0.00000E+000	3.70030E-001	0.00000E+000	10	...........	1583.25
	182	1.82	6.70148E-001	1.22970E-003	0.00000E+000	3.70030E-001	0.00000E+000	10	...........	1583.25
	183	1.83	6.72427E-001	1.22969E-003	0.00000E+000	3.70030E-001	0.00000E+000	10	...........	1583.25
	184	1.84	6.74685E-001	1.22974E-003	0.00000E+000	3.70030E-001	0.00000E+000	10	...........	1583.25
	185	1.85	6.76919E-001	1.22964E-003	0.00000E+000	3.70030E-001	0.00000E+000	10	...........	1583.25
	186	1.86	6.79187E-001	1.22968E-003	0.00000E+000	3.70030E-001	0.00000E+000	10	...........	1583.25
	187	1.87	6.81418E-001	1.22972E-003	0.00000E+000	3.70030E-001	0.00000E+000	10	...........	1583.25
	188	1.88	6.83658E-001	1.22967E-003	0.00000E+000	3.70030E-001	0.00000E+000	10	...........	1583.25
	189	1.89	6.85882E-001	1.22964E-003	0.00000E+000	3.70030E-001	0.00000E+000	10	...........	1583.25
	190	1.9	6.88100E-001	1.22966E-003	0.00000E+000	3.70030E-001	0.00000E+000	10	...........	1583.25
	191	1.91	6.90329E-001	1.22962E-003	0.00000E+000	3.70030E-001	0.00000E+000	10	...........	1583.25
	192	1.92	6.92579E-001	1.22963E-003	0.00000E+000	3.70030E-001	0.00000E+000	10	...........	1583.25
	193	1.93	6.94801E-001	1.22965E-003	0.00000E+000	3.70030E-001	0.00000E+000	10	...........	1583.25
	194	1.94	6.96977E-001	1.22962E-003	0.00000E+000	3.70030E-001	0.00000E+000	10	...........	1583.25
	195	1.95	6.99184E-001	1.22963E-003	0.00000E+000	3.70030E-001	0.00000E+000	10	...........	1583.25
	196	1.96	7.01364E-001	1.22964E-003	0.00000E+000	3.70030E-001	0.00000E+000	10	...........	1583.25
	197	1.97	7.03541E-001	1.22967E-003	0.00000E+000	3.70030E-001	0.00000E+000	10	...........	1583.25
	198	1.98	7.05752E-001	1.22961E-003	0.00000E+000	3.70030E-001	0.00000E+000	10	...........	1583.25
	199	1.99	7.07925E-001	1.22965E-003	0.00000E+000	3.70030E-001	0.00000E+000	10	...........	1583.25
	200	2	7.10078E-001	1.22964E-003	0.00000E+000	3.70030E-001	0.00000E+000	10	...........	1583.25
	201	2.01	7.12234E-001	1.22964E-003	0.00000E+000	3.70030E-001	0.00000E+000	10	...........	1583.25
	202	2.02	7.14387E-001	1.22968E-003	0.00000E+000	3.70030E-001	0.00000E+000	10	...........	1583.25
	203	2.03	7.16525E-001	1.22963E-003	0.00000E+000	3.70030E-001	0.00000E+000	10	...........	1583.25
	204	2.04	7.18717E-001	1.22962E-003	0.00000E+000	3.70030E-001	0.00000E+000	10	...........	1583.25
	205	2.05	7.20831E-001	1.22959E-003	0.00000E+000	3.70030E-001	0.00000E+000	10	...........	1583.25
	206	2.06	7.22966E-001	1.22966E-003	0.00000E+000	3.70030E-001	0.00000E+000	10	...........	1583.25
	207	2.07	7.25087E-001	1.22964E-003	0.00000E+000	3.70030E-001	0.00000E+000	10	...........	1583.25
	208	2.08	7.27190E-001	1.22964E-003	0.00000E+000	3.70030E-001	0.00000E+000	10	...........	1583.25
	209	2.09	7.29287E-001	1.22965E-003	0.00000E+000	3.70030E-001	0.00000E+000	10	...........	1583.25
	210	2.1	7.31412E-001	1.22969E-003	0.00000E+000	3.70030E-001	0.00000E+000	10	...........	1583.25
	211	2.11	7.33481E-001	1.22970E-003	0.00000E+000	3.70030E-001	0.00000E+000	10	...........	1583.25
	212	2.12	7.35558E-001	1.22968E-003	0.00000E+000	3.70030E-001	0.00000E+000	10	...........	1583.25
	213	2.13	7.37634E-001	1.22966E-003	0.00000E+000	3.70030E-001	0.00000E+000	10	...........	1583.25
	214	2.14	7.39701E-001	1.22968E-003	0.00000E+000	3.70030E-001	0.00000E+000	10	...........	1583.25
	215	2.15	7.41763E-001	1.22972E-003	0.00000E+000	3.70030E-001	0.00000E+000	10	...........	1583.25
	216	2.16	7.43860E-001	1.22974E-003	0.00000E+000	3.70030E-001	0.00000E+000	10	...........	1583.25
	217	2.17	7.45870E-001	1.22965E-003	0.00000E+000	3.70030E-001	0.00000E+000	10	...........	1583.25
	218	2.18	7.47897E-001	1.22970E-003	0.00000E+000	3.70030E-001	0.00000E+000	10	...........	1583.25
	219	2.19	7.49928E-001	1.22967E-003	0.00000E+000	3.70030E-001	0.00000E+000	10	...........	1583.25
	220	2.2	7.51944E-001	1.22969E-003	0.00000E+000	3.70030E-001	0.00000E+000	10	...........	1583.25
	221	2.21	7.53960E-001	1.22970E-003	0.00000E+000	3.70030E-001	0.00000E+000	10	...........	1583.25
	222	2.22	7.55969E-001	1.22964E-003	0.00000E+000	3.70030E-001	0.00000E+000	10	...........	1583.25
	223	2.23	7.57963E-001	1.22971E-003	0.00000E+000	3.70030E-001	0.00000E+000	10	...........	1583.25
	224	2.24	7.59922E-001	1.22966E-003	0.00000E+000	3.70030E-001	0.00000E+000	10	...........	1583.25
	225	2.25	7.61886E-001	1.22968E-003	0.00000E+000	3.70030E-001	0.00000E+000	10	...........	1583.25
	226	2.26	7.63830E-001	1.22966E-003	0.00000E+000	3.70030E-001	0.00000E+000	10	...........	1583.25
	227	2.27	7.65804E-001	1.22965E-003	0.00000E+000	3.70030E-001	0.00000E+000	10	...........	1583.25
	228	2.28	7.67733E-001	1.22971E-003	0.00000E+000	3.70030E-001	0.00000E+000	10	...........	1583.25
	229	2.29	7.69717E-001	1.22973E-003	0.00000E+000	3.70030E-001	0.00000E+000	10	...........	1583.25
	230	2.3	7.71640E-001	1.22967E-003	0.00000E+000	3.70030E-001	0.00000E+000	10	...........	1583.25
	231	2.31	7.73544E-001	1.22970E-003	0.00000E+000	3.70030E-001	0.00000E+000	10	...........	1583.25
	232	2.32	7.75447E-001	1.22967E-003	0.00000E+000	3.70030E-001	0.00000E+000	10	...........	1583.25
	233	2.33	7.77313E-001	1.22966E-003	0.00000E+000	3.70030E-001	0.00000E+000	10	...........	1583.25
	234	2.34	7.79204E-001	1.22963E-003	0.00000E+000	3.70030E-001	0.00000E+000	10	...........	1583.25
	235	2.35	7.81086E-001	1.22965E-003	0.00000E+000	3.70030E-001	0.00000E+000	10	...........	1583.25
	236	2.36	7.82946E-001	1.22968E-003	0.00000E+000	3.70030E-001	0.00000E+000	10	...........	1583.25
	237	2.37	7.84799E-001	1.22961E-003	0.00000E+000	3.70030E-001	0.00000E+000	10	...........	1583.25
	238	2.38	7.86640E-001	1.22966E-003	0.00000E+000	3.70030E-001	0.00000E+000	10	...........	1583.25
	239	2.39	7.88481E-001	1.22964E-003	0.00000E+000	3.70030E-001	0.00000E+000	10	...........	1583.25
	240	2.4	7.90294E-001	1.22966E-003	0.00000E+000	3.70030E-001	0.00000E+000	10	...........	1583.25
	241	2.41	7.92114E-001	1.22964E-003	0.00000E+000	3.70030E-001	0.00000E+000	10	...........	1583.25
	242	2.42	7.93909E-001	1.22968E-003	0.00000E+000	3.70030E-001	0.00000E+000	10	...........	1583.25
	243	2.43	7.95736E-001	1.22969E-003	0.00000E+000	3.70030E-001	0.00000E+000	10	...........	1583.25
	244	2.44	7.97523E-001	1.22970E-003	0.00000E+000	3.70030E-001	0.00000E+000	10	...........	1583.25
	245	2.45	7.99289E-001	1.22968E-003	0.00000E+000	3.70030E-001	0.00000E+000	10	...........	1583.25
	246	2.46	8.01049E-001	1.22968E-003	0.00000E+000	3.70030E-001	0.00000E+000	10	...........	1583.25
	247	2.47	8.02800E-001	1.22968E-003	0.00000E+000	3.70030E-001	0.00000E+000	10	...........	1583.25
	248	2.48	8.04559E-001	1.22966E-003	0.00000E+000	3.70030E-001	0.00000E+000	10	...........	1583.25
	249	2.49	7.74000E-001	-1.22980E-003	0.00000E+000	-3.70030E-001	0.00000E+000	10	...........	1583.25
	250	2.5	7.68470E-001	-1.22982E-003	0.00000E+000	-3.70030E-001	0.00000E+000	10	...........	1583.25
	251	2.51	7.63884E-001	-1.22985E-003	0.00000E+000	-3.70030E-001	0.00000E+000	10	...........	1583.25
	252	2.52	7.59719E-001	-1.22988E-003	0.00000E+000	-3.70030E-001	0.00000E+000	10	...........	1583.25
	253	2.53	7.55823E-001	-1.22993E-003	0.00000E+000	-3.70030E-001	0.00000E+000	10	...........	1583.25
	254	2.54	7.52083E-001	-1.22990E-003	0.00000E+000	-3.70030E-001	0.00000E+000	10	...........	1583.25
	255	2.55	7.48469E-001	-1.22996E-003	0.00000E+000	-3.70030E-001	0.00000E+000	10	...........	1583.25
	256	2.56	7.44949E-001	-1.22997E-003	0.00000E+000	-3.70030E-001	0.00000E+000	10	...........	1583.25
	257	2.57	7.41482E-001	-1.23003E-003	0.00000E+000	-3.70030E-001	0.00000E+000	10	...........	1583.25
	258	2.58	7.38113E-001	-1.22999E-003	0.00000E+000	-3.70030E-001	0.00000E+000	10	...........	1583.25
	259	2.59	7.34791E-001	-1.23001E-003	0.00000E+000	-3.70030E-001	0.00000E+000	10	...........	1583.25
	260	2.6	7.31525E-001	-1.23003E-003	0.00000E+000	-3.70030E-001	0.00000E+000	10	...........	1583.25
	261	2.61	7.28268E-001	-1.22998E-003	0.00000E+000	-3.70030E-001	0.00000E+000	10	...........	1583.25
	262	2.62	7.25071E-001	-1.23002E-003	0.00000E+000	-3.70030E-001	0.00000E+000	10	...........	1583.25
	263	2.63	7.21884E-001	-1.23001E-003	0.00000E+000	-3.70030E-001	0.00000E+000	10	...........	1583.25
	264	2.64	7.18730E-001	-1.23000E-003	0.00000E+000	-3.70030E-001	0.00000E+000	10	...........	1583.25
	265	2.65	7.15545E-001	-1.23008E-003	0.00000E+000	-3.70030E-001	0.00000E+000	10	...........	1583.25
	266	2.66	7.12426E-001	-1.23008E-003	0.00000E+000	-3.70030E-001	0.00000E+000	10	...........	1583.25
	267	2.67	7.09302E-001	-1.23009E-003	0.00000E+000	-3.70030E-001	0.00000E+000	10	...........	1583.25
	268	2.68	7.06226E-001	-1.23009E-003	0.00000E+000	-3.70030E-001	0.00000E+000	10	...........	1583.25
	269	2.69	7.03111E-001	-1.23009E-003	0.00000E+000	-3.70030E-001	0.00000E+000	10	...........	1583.25
	270	2.7	7.00059E-001	-1.23006E-003	0.00000E+000	-3.70030E-001	0.00000E+000	10	...........	1583.25
	271	2.71	6.96990E-001	-1.23011E-003	0.00000E+000	-3.70030E-001	0.00000E+000	10	...........	1583.25
	272	2.72	6.93957E-001	-1.23007E-003	0.00000E+000	-3.70030E-001	0.00000E+000	10	...........	1583.25
	273	2.73	6.90892E-001	-1.23008E-003	0.00000E+000	-3.70030E-001	0.00000E+000	10	...........	1583.25
	274	2.74	6.87874E-001	-1.23009E-003	0.00000E+000	-3.70030E-001	0.00000E+000	10	...........	1583.25
	275	2.75	6.84856E-001	-1.23008E-003	0.00000E+000	-3.70030E-001	0.00000E+000	10	...........	1583.34
	276	2.76	6.81858E-001	-1.23007E-003	0.00000E+000	-3.70030E-001	0.00000E+000	10	...........	1583.34
	277	2.77	6.78861E-001	-1.23011E-003	0.00000E+000	-3.70030E-001	0.00000E+000	10	...........	1583.34
	278	2.78	6.75853E-001	-1.23009E-003	0.00000E+000	-3.70030E-001	0.00000E+000	10	...........	1583.34
	279	2.79	6.72879E-001	-1.23009E-003	0.00000E+000	-3.70030E-001	0.00000E+000	10	...........	1583.34
	280	2.8	6.69903E-001	-1.23009E-003	0.00000E+000	-3.70030E-001	0.00000E+000	10	...........	1583.34
	281	2.81	6.66928E-001	-1.23011E-003	0.00000E+000	-3.70030E-001	0.00000E+000	10	...........	1583.34
	282	2.82	6.63929E-001	-1.23008E-003	0.00000E+000	-3.70030E-001	0.00000E+000	10	...........	1583.34
	283	2.83	6.60985E-001	-1.23010E-003	0.00000E+000	-3.70030E-001	0.00000E+000	10	...........	1583.34
	284	2.84	6.58020E-001	-1.23015E-003	0.00000E+000	-3.70030E-001	0.00000E+000	10	...........	1583.34
	285	2.85	6.55082E-001	-1.23007E-003	0.00000E+000	-3.70030E-001	0.00000E+000	10	...........	1583.34
	286	2.86	6.52130E-001	-1.23013E-003	0.00000E+000	-3.70030E-001	0.00000E+000	10	...........	1583.34
	287	2.87	6.49193E-001	-1.23007E-003	0.00000E+000	-3.70030E-001	0.00000E+000	10	...........	1583.34
	288	2.88	6.46261E-001	-1.23010E-003	0.00000E+000	-3.70030E-001	0.00000E+000	10	...........	1583.34
	289	2.89	6.43357E-001	-1.23007E-003	0.00000E+000	-3.70030E-001	0.00000E+000	10	...........	1583.34
	290	2.9	6.40422E-001	-1.23011E-003	0.00000E+000	-3.70030E-001	0.00000E+000	10	...........	1583.34
	291	2.91	6.37507E-001	-1.23007E-003	0.00000E+000	-3.70030E-001	0.00000E+000	10	...........	1583.34
	292	2.92	6.34595E-001	-1.23010E-003	0.00000E+000	-3.70030E-001	0.00000E+000	10	...........	1583.34
	293	2.93	6.31704E-001	-1.23007E-003	0.00000E+000	-3.70030E-001	0.00000E+000	10	...........	1583.34
	294	2.94	6.28797E-001	-1.23012E-003	0.00000E+000	-3.70030E-001	0.00000E+000	10	...........	1583.34
	295	2.95	6.25905E-001	-1.23011E-003	0.00000E+000	-3.70030E-001	0.00000E+000	10	...........	1583.34
	296	2.96	6.23018E-001	-1.23012E-003	0.00000E+000	-3.70030E-001	0.00000E+000	10	...........	1583.34
	297	2.97	6.20161E-001	-1.23008E-003	0.00000E+000	-3.70030E-001	0.00000E+000	10	...........	1583.34
	298	2.98	6.17266E-001	-1.23012E-003	0.00000E+000	-3.70030E-001	0.00000E+000	10	...........	1583.34
	299	2.99	6.14392E-001	-1.23011E-003	0.00000E+000	-3.70030E-001	0.00000E+000	10	...........	1583.34
	300	3	6.11514E-001	-1.23011E-003	0.00000E+000	-3.70030E-001	0.00000E+000	10	...........	1583.34
	301	3.01	6.08672E-001	-1.23012E-003	0.00000E+000	-3.70030E-001	0.00000E+000	10	...........	1583.34
	302	3.02	6.05824E-001	-1.23009E-003	0.00000E+000	-3.70030E-001	0.00000E+000	10	...........	1583.34
	303	3.03	6.02998E-001	-1.23011E-003	0.00000E+000	-3.70030E-001	0.00000E+000	10	...........	1583.34
	304	3.04	6.00145E-001	-1.23013E-003	0.00000E+000	-3.70030E-001	0.00000E+000	10	...........	1583.34
	305	3.05	5.97329E-001	-1.23014E-003	0.00000E+000	-3.70030E-001	0.00000E+000	10	...........	1583.34
	306	3.06	5.94506E-001	-1.23015E-003	0.00000E+000	-3.70030E-001	0.00000E+000	10	...........	1583.34
	307	3.07	5.91684E-001	-1.23012E-003	0.00000E+000	-3.70030E-001	0.00000E+000	10	...........	1583.34
	308	3.08	5.88866E-001	-1.23008E-003	0.00000E+000	-3.70030E-001	0.00000E+000	10	...........	1583.34
	309	3.09	5.86077E-001	-1.23011E-003	0.00000E+000	-3.70030E-001	0.00000E+000	10	...........	1583.34
	310	3.1	5.83280E-001	-1.23010E-003	0.00000E+000	-3.70030E-001	0.00000E+000	10	...........	1583.34
	311	3.11	5.80508E-001	-1.23008E-003	0.00000E+000	-3.70030E-001	0.00000E+000	10	...........	1583.34
	312	3.12	5.77727E-001	-1.23013E-003	0.00000E+000	-3.70030E-001	0.00000E+000	10	...........	1583.34
	313	3.13	5.74928E-001	-1.23008E-003	0.00000E+000	-3.70030E-001	0.00000E+000	10	...........	1583.34
	314	3.14	5.72156E-001	-1.23015E-003	0.00000E+000	-3.70030E-001	0.00000E+000	10	...........	1583.34
	315	3.15	5.69389E-001	-1.23013E-003	0.00000E+000	-3.70030E-001	0.00000E+000	10	...........	1583.34
	316	3.16	5.66658E-001	-1.23006E-003	0.00000E+000	-3.70030E-001	0.00000E+000	10	...........	1583.34
	317	3.17	5.63907E-001	-1.23006E-003	0.00000E+000	-3.70030E-001	0.00000E+000	10	...........	1583.34
	318	3.18	5.61131E-001	-1.23008E-003	0.00000E+000	-3.70030E-001	0.00000E+000	10	...........	1583.34
	319	3.19	5.58392E-001	-1.23008E-003	0.00000E+000	-3.70030E-001	0.00000E+000	10	...........	1583.34
	320	3.2	5.55664E-001	-1.23018E-003	0.00000E+000	-3.70030E-001	0.00000E+000	10	...........	1583.34
	321	3.21	5.52945E-001	-1.23012E-003	0.00000E+000	-3.70030E-001	0.00000E+000	10	...........	1583.34
	322	3.22	5.50233E-001	-1.23009E-003	0.00000E+000	-3.70030E-001	0.00000E+000	10	...........	1583.34
	323	3.23	5.47537E-001	-1.23009E-003	0.00000E+000	-3.70030E-001	0.00000E+000	10	...........	1583.34
	324	3.24	5.44846E-001	-1.23007E-003	0.00000E+000	-3.70030E-001	0.00000E+000	10	...........	1583.34
	325	3.25	5.42135E-001	-1.23012E-003	0.00000E+000	-3.70030E-001	0.00000E+000	10	...........	1583.34
	326	3.26	5.39464E-001	-1.23011E-003	0.00000E+000	-3.70030E-001	0.00000E+000	10	...........	1583.34
	327	3.27	5.36751E-001	-1.23009E-003	0.00000E+000	-3.70030E-001	0.00000E+000	10	...........	1583.34
	328	3.28	5.34101E-001	-1.23010E-003	0.00000E+000	-3.70030E-001	0.00000E+000	10	...........	1583.34
	329	3.29	5.31436E-001	-1.23009E-003	0.00000E+000	-3.70030E-001	0.00000E+000	10	...........	1583.34
	330	3.3	5.28762E-001	-1.23013E-003	0.00000E+000	-3.70030E-001	0.00000E+000	10	...........	1583.34
	331	3.31	5.26091E-001	-1.23016E-003	0.00000E+000	-3.70030E-001	0.00000E+000	10	...........	1583.34
	332	3.32	5.23432E-001	-1.23013E-003	0.00000E+000	-3.70030E-001	0.00000E+000	10	...........	1583.34
	333	3.33	5.20793E-001	-1.23013E-003	0.00000E+000	-3.70030E-001	0.00000E+000	10	...........	1583.34
	334	3.34	5.18176E-001	-1.23015E-003	0.00000E+000	-3.70030E-001	0.00000E+000	10	...........	1583.34
	335	3.35	5.15552E-001	-1.23011E-003	0.00000E+000	-3.70030E-001	0.00000E+000	10	...........	1583.34
	336	3.36	5.12938E-001	-1.23017E-003	0.00000E+000	-3.70030E-001	0.00000E+000	10	...........	1583.34
	337	3.37	5.10305E-001	-1.23010E-003	0.00000E+000	-3.70030E-001	0.00000E+000	10	...........	1583.34
	338	3.38	5.07706E-001	-1.23006E-003	0.00000E+000	-3.70030E-001	0.00000E+000	10	...........	1583.34
	339	3.39	5.05105E-001	-1.23010E-003	0.00000E+000	-3.70030E-001	0.00000E+000	10	...........	1583.34
	340	3.4	5.02502E-001	-1.23011E-003	0.00000E+000	-3.70030E-001	0.00000E+000	10	...........	1583.34
	341	3.41	4.99937E-001	-1.23009E-003	0.00000E+000	-3.70030E-001	0.00000E+000	10	...........	1583.34
	342	3.42	4.97339E-001	-1.23011E-003	0.00000E+000	-3.70030E-001	0.00000E+000	10	...........	1583.34
	343	3.43	4.94747E-001	-1.23009E-003	0.00000E+000	-3.70030E-001	0.00000E+000	10	...........	1583.34
	344	3.44	4.92186E-001	-1.23012E-003	0.00000E+000	-3.70030E-001	0.00000E+000	10	...........	1583.34
	345	3.45	4.89620E-001	-1.23015E-003	0.00000E+000	-3.70030E-001	0.00000E+000	10	...........	1583.34
	346	3.46	4.87064E-001	-1.23012E-003	0.00000E+000	-3.70030E-001	0.00000E+000	10	...........	1583.34
	347	3.47	4.84511E-001	-1.23004E-003	0.00000E+000	-3.70030E-001	0.00000E+000	10	...........	1583.34
	348	3.48	4.81987E-001	-1.23004E-003	0.00000E+000	-3.70030E-001	0.00000E+000	10	...........	1583.34
	349	3.49	4.79446E-001	-1.23005E-003	0.00000E+000	-3.70030E-001	0.00000E+000	10	...........	1583.34
	350	3.5	4.76911E-001	-1.23011E-003	0.00000E+000	-3.70030E-001	0.00000E+000	10	...........	1583.34
	351	3.51	4.74382E-001	-1.23009E-003	0.00000E+000	-3.70030E-001	0.00000E+000	10	...........	1583.34
	352	3.52	4.71847E-001	-1.23009E-003	0.00000E+000	-3.70030E-001	0.00000E+000	10	...........	1583.34
	353	3.53	4.69344E-001	-1.23009E-003	0.00000E+000	-3.70030E-001	0.00000E+000	10	...........	1583.34
	354	3.54	4.66817E-001	-1.23012E-003	0.00000E+000	-3.70030E-001	0.00000E+000	10	...........	1583.34
	355	3.55	4.64329E-001	-1.23009E-003	0.00000E+000	-3.70030E-001	0.00000E+000	10	...........	1583.34
	356	3.56	4.61867E-001	-1.23007E-003	0.00000E+000	-3.70030E-001	0.00000E+000	10	...........	1583.34
	357	3.57	4.59355E-001	-1.23008E-003	0.00000E+000	-3.70030E-001	0.00000E+000	10	...........	1583.34
	358	3.58	4.56870E-001	-1.23010E-003	0.00000E+000	-3.70030E-001	0.00000E+000	10	...........	1583.34
	359	3.59	4.54402E-001	-1.23007E-003	0.00000E+000	-3.70030E-001	0.00000E+000	10	...........	1583.34
	360	3.6	4.51952E-001	-1.23006E-003	0.00000E+000	-3.70030E-001	0.00000E+000	10	...........	1583.34
	361	3.61	4.49473E-001	-1.23010E-003	0.00000E+000	-3.70030E-001	0.00000E+000	10	...........	1583.34
	362	3.62	4.47020E-001	-1.23010E-003	0.00000E+000	-3.70030E-001	0.00000E+000	10	...........	1583.34
	363	3.63	4.44566E-001	-1.23012E-003	0.00000E+000	-3.70030E-001	0.00000E+000	10	...........	1583.34
	364	3.64	4.42141E-001	-1.23006E-003	0.00000E+000	-3.70030E-001	0.00000E+000	10	...........	1583.34
	365	3.65	4.39712E-001	-1.23006E-003	0.00000E+000	-3.70030E-001	0.00000E+000	10	...........	1583.34
	366	3.66	4.37286E-001	-1.23009E-003	0.00000E+000	-3.70030E-001	0.00000E+000	10	...........	1583.34
	367	3.67	4.34825E-001	-1.23009E-003	0.00000E+000	-3.70030E-001	0.00000E+000	10	...........	1583.34
	368	3.68	4.32434E-001	-1.23012E-003	0.00000E+000	-3.70030E-001	0.00000E+000	10	...........	1583.34
	369	3.69	4.30010E-001	-1.23011E-003	0.00000E+000	-3.70030E-001	0.00000E+000	10	...........	1583.34
	370	3.7	4.27595E-001	-1.23009E-003	0.00000E+000	-3.70030E-001	0.00000E+000	10	...........	1583.34
	371	3.71	4.25206E-001	-1.23010E-003	0.00000E+000	-3.70030E-001	0.00000E+000	10	...........	1583.34
	372	3.72	4.22819E-001	-1.23009E-003	0.00000E+000	-3.70030E-001	0.00000E+000	10	...........	1583.34
	373	3.73	4.20408E-001	-1.23014E-003	0.00000E+000	-3.70030E-001	0.00000E+000	10	...........	1583.34
	374	3.74	4.18027E-001	-1.23009E-003	0.00000E+000	-3.70030E-001	0.00000E+000	10	...........	1583.34
	375	3.75	4.15657E-001	-1.23010E-003	0.00000E+000	-3.70030E-001	0.00000E+000	10	...........	1583.15
	376	3.76	4.13294E-001	-1.23015E-003	0.00000E+000	-3.70030E-001	0.00000E+000	10	...........	1583.15
	377	3.77	4.10913E-001	-1.23010E-003	0.00000E+000	-3.70030E-001	0.00000E+000	10	...........	1583.15
	378	3.78	4.08547E-001	-1.23010E-003	0.00000E+000	-3.70030E-001	0.00000E+000	10	...........	1583.15
	379	3.79	4.06178E-001	-1.23010E-003	0.00000E+000	-3.70030E-001	0.00000E+000	10	...........	1583.15
	380	3.8	4.03839E-001	-1.23014E-003	0.00000E+000	-3.70030E-001	0.00000E+000	10	...........	1583.15
	381	3.81	4.01488E-001	-1.23011E-003	0.00000E+000	-3.70030E-001	0.00000E+000	10	...........	1583.15
	382	3.82	3.99168E-001	-1.23007E-003	0.00000E+000	-3.70030E-001	0.00000E+000	10	...........	1583.15
	383	3.83	3.96818E-001	-1.23014E-003	0.00000E+000	-3.70030E-001	0.00000E+000	10	...........	1583.15
	384	3.84	3.94489E-001	-1.23012E-003	0.00000E+000	-3.70030E-001	0.00000E+000	10	...........	1583.15
	385	3.85	3.92162E-001	-1.23007E-003	0.00000E+000	-3.70030E-001	0.00000E+000	10	...........	1583.15
	386	3.86	3.89835E-001	-1.23009E-003	0.00000E+000	-3.70030E-001	0.00000E+000	10	...........	1583.15
	387	3.87	3.87548E-001	-1.23007E-003	0.00000E+000	-3.70030E-001	0.00000E+000	10	...........	1583.15
	388	3.88	3.85240E-001	-1.23011E-003	0.00000E+000	-3.70030E-001	0.00000E+000	10	...........	1583.15
	389	3.89	3.82907E-001	-1.23010E-003	0.00000E+000	-3.70030E-001	0.00000E+000	10	...........	1583.15
	390	3.9	3.80611E-001	-1.23008E-003	0.00000E+000	-3.70030E-001	0.00000E+000	10	...........	1583.15
	391	3.91	3.78338E-001	-1.23012E-003	0.00000E+000	-3.70030E-001	0.00000E+000	10	...........	1583.15
	392	3.92	3.76042E-001	-1.23007E-003	0.00000E+000	-3.70030E-001	0.00000E+000	10	...........	1583.15
	393	3.93	3.73770E-001	-1.23016E-003	0.00000E+000	-3.70030E-001	0.00000E+000	10	...........	1583.15
	394	3.94	3.71506E-001	-1.23008E-003	0.00000E+000	-3.70030E-001	0.00000E+000	10	...........	1583.15
	395	3.95	3.69213E-001	-1.23016E-003	0.00000E+000	-3.70030E-001	0.00000E+000	10	...........	1583.15
	396	3.96	3.66957E-001	-1.23009E-003	0.00000E+000	-3.70030E-001	0.00000E+000	10	...........	1583.15
	397	3.97	3.64699E-001	-1.23013E-003	0.00000E+000	-3.70030E-001	0.00000E+000	10	...........	1583.15
	398	3.98	3.62449E-001	-1.23010E-003	0.00000E+000	-3.70030E-001	0.00000E+000	10	...........	1583.15
	399	3.99	3.60197E-001	-1.23011E-003	0.00000E+000	-3.70030E-001	0.00000E+000	10	...........	1583.15
	400	4	3.57931E-001	-1.23007E-003	0.00000E+000	-3.70030E-001	0.00000E+000	10	...........	1583.15
	401	4.01	3.55688E-001	-1.23016E-003	0.00000E+000	-3.70030E-001	0.00000E+000	10	...........	1583.15
	402	4.02	3.53447E-001	-1.23009E-003	0.00000E+000	-3.70030E-001	0.00000E+000	10	...........	1583.15
	403	4.03	3.51217E-001	-1.23008E-003	0.00000E+000	-3.70030E-001	0.00000E+000	10	...........	1583.15
	404	4.04	3.49009E-001	-1.23012E-003	0.00000E+000	-3.70030E-001	0.00000E+000	10	...........	1583.15
	405	4.05	3.46787E-001	-1.23014E-003	0.00000E+000	-3.70030E-001	0.00000E+000	10	...........	1583.15
	406	4.06	3.44561E-001	-1.23018E-003	0.00000E+000	-3.70030E-001	0.00000E+000	10	...........	1583.15
	407	4.07	3.42349E-001	-1.23011E-003	0.00000E+000	-3.70030E-001	0.00000E+000	10	...........	1583.15
	408	4.08	3.40149E-001	-1.23007E-003	0.00000E+000	-3.70030E-001	0.00000E+000	10	...........	1583.15
	409	4.09	3.37950E-001	-1.23013E-003	0.00000E+000	-3.70030E-001	0.00000E+000	10	...........	1583.15
	410	4.1	3.35746E-001	-1.23012E-003	0.00000E+000	-3.70030E-001	0.00000E+000	10	...........	1583.15
	411	4.11	3.33557E-001	-1.23008E-003	0.00000E+000	-3.70030E-001	0.00000E+000	10	...........	1583.15
	412	4.12	3.31340E-001	-1.23015E-003	0.00000E+000	-3.70030E-001	0.00000E+000	10	...........	1583.15
	413	4.13	3.29155E-001	-1.23014E-003	0.00000E+000	-3.70030E-001	0.00000E+000	10	...........	1583.15
	414	4.14	3.26999E-001	-1.23011E-003	0.00000E+000	-3.70030E-001	0.00000E+000	10	...........	1583.15
	415	4.15	3.24843E-001	-1.23005E-003	0.00000E+000	-3.70030E-001	0.00000E+000	10	...........	1583.15
	416	4.16	3.22683E-001	-1.23007E-003	0.00000E+000	-3.70030E-001	0.00000E+000	10	...........	1583.15
	417	4.17	3.20505E-001	-1.23009E-003	0.00000E+000	-3.70030E-001	0.00000E+000	10	...........	1583.15
	418	4.18	3.18315E-001	-1.23012E-003	0.00000E+000	-3.70030E-001	0.00000E+000	10	...........	1583.15
	419	4.19	3.16160E-001	-1.23012E-003	0.00000E+000	-3.70030E-001	0.00000E+000	10	...........	1583.15
	420	4.2	3.14033E-001	-1.23011E-003	0.00000E+000	-3.70030E-001	0.00000E+000	10	...........	1583.15
	421	4.21	3.11878E-001	-1.23015E-003	0.00000E+000	-3.70030E-001	0.00000E+000	10	...........	1583.15
	422	4.22	3.09738E-001	-1.23010E-003	0.00000E+000	-3.70030E-001	0.00000E+000	10	...........	1583.15
	423	4.23	3.07603E-001	-1.23011E-003	0.00000E+000	-3.70030E-001	0.00000E+000	10	...........	1583.15
	424	4.24	3.05430E-001	-1.23011E-003	0.00000E+000	-3.70030E-001	0.00000E+000	10	...........	1583.15
	425	4.25	3.03318E-001	-1.23012E-003	0.00000E+000	-3.70030E-001	0.00000E+000	10	...........	1583.15
	426	4.26	3.01195E-001	-1.23011E-003	0.00000E+000	-3.70030E-001	0.00000E+000	10	...........	1583.15
	427	4.27	2.99072E-001	-1.23007E-003	0.00000E+000	-3.70030E-001	0.00000E+000	10	...........	1583.15
	428	4.28	2.96959E-001	-1.23010E-003	0.00000E+000	-3.70030E-001	0.00000E+000	10	...........	1583.15
	429	4.29	2.94854E-001	-1.23011E-003	0.00000E+000	-3.70030E-001	0.00000E+000	10	...........	1583.15
	430	4.3	2.92722E-001	-1.23011E-003	0.00000E+000	-3.70030E-001	0.00000E+000	10	...........	1583.15
	431	4.31	2.90644E-001	-1.23007E-003	0.00000E+000	-3.70030E-001	0.00000E+000	10	...........	1583.15
	432	4.32	2.88550E-001	-1.23007E-003	0.00000E+000	-3.70030E-001	0.00000E+000	10	...........	1583.15
	433	4.33	2.86446E-001	-1.23006E-003	0.00000E+000	-3.70030E-001	0.00000E+000	10	...........	1583.15
	434	4.34	2.84383E-001	-1.23006E-003	0.00000E+000	-3.70030E-001	0.00000E+000	10	...........	1583.15
	435	4.35	2.82314E-001	-1.23006E-003	0.00000E+000	-3.70030E-001	0.00000E+000	10	...........	1583.15
	436	4.36	2.80210E-001	-1.23009E-003	0.00000E+000	-3.70030E-001	0.00000E+000	10	...........	1583.15
	437	4.37	2.78126E-001	-1.23011E-003	0.00000E+000	-3.70030E-001	0.00000E+000	10	...........	1583.15
	438	4.38	2.76068E-001	-1.23011E-003	0.00000E+000	-3.70030E-001	0.00000E+000	10	...........	1583.15
	439	4.39	2.73995E-001	-1.23012E-003	0.00000E+000	-3.70030E-001	0.00000E+000	10	...........	1583.15
	440	4.4	2.71942E-001	-1.23012E-003	0.00000E+000	-3.70030E-001	0.00000E+000	10	...........	1583.15
	441	4.41	2.69881E-001	-1.23013E-003	0.00000E+000	-3.70030E-001	0.00000E+000	10	...........	1583.15
	442	4.42	2.67804E-001	-1.23009E-003	0.00000E+000	-3.70030E-001	0.00000E+000	10	...........	1583.15
	443	4.43	2.65770E-001	-1.23011E-003	0.00000E+000	-3.70030E-001	0.00000E+000	10	...........	1583.15
	444	4.44	2.63736E-001	-1.23007E-003	0.00000E+000	-3.70030E-001	0.00000E+000	10	...........	1583.15
	445	4.45	2.61703E-001	-1.23005E-003	0.00000E+000	-3.70030E-001	0.00000E+000	10	...........	1583.15
	446	4.46	2.59681E-001	-1.23010E-003	0.00000E+000	-3.70030E-001	0.00000E+000	10	...........	1583.15
	447	4.47	2.57649E-001	-1.23009E-003	0.00000E+000	-3.70030E-001	0.00000E+000	10	...........	1583.15
	448	4.48	2.55599E-001	-1.23005E-003	0.00000E+000	-3.70030E-001	0.00000E+000	10	...........	1583.15
	449	4.49	2.53569E-001	-1.23007E-003	0.00000E+000	-3.70030E-001	0.00000E+000	10	...........	1583.15
	450	4.5	2.51560E-001	-1.23009E-003	0.00000E+000	-3.70030E-001	0.00000E+000	10	...........	1583.15
	451	4.51	2.49552E-001	-1.23009E-003	0.00000E+000	-3.70030E-001	0.00000E+000	10	...........	1583.15
	452	4.52	2.47553E-001	-1.23008E-003	0.00000E+000	-3.70030E-001	0.00000E+000	10	...........	1583.15
	453	4.53	2.45564E-001	-1.23008E-003	0.00000E+000	-3.70030E-001	0.00000E+000	10	...........	1583.15
	454	4.54	2.43549E-001	-1.23012E-003	0.00000E+000	-3.70030E-001	0.00000E+000	10	...........	1583.15
	455	4.55	2.41541E-001	-1.23015E-003	0.00000E+000	-3.70030E-001	0.00000E+000	10	...........	1583.15
	456	4.56	2.39600E-001	-1.23014E-003	0.00000E+000	-3.70030E-001	0.00000E+000	10	...........	1583.15
	457	4.57	2.37611E-001	-1.23013E-003	0.00000E+000	-3.70030E-001	0.00000E+000	10	...........	1583.15
	458	4.58	2.35632E-001	-1.23011E-003	0.00000E+000	-3.70030E-001	0.00000E+000	10	...........	1583.15
	459	4.59	2.33657E-001	-1.23012E-003	0.00000E+000	-3.70030E-001	0.00000E+000	10	...........	1583.15
	460	4.6	2.31684E-001	-1.23003E-003	0.00000E+000	-3.70030E-001	0.00000E+000	10	...........	1583.15
	461	4.61	2.29718E-001	-1.23010E-003	0.00000E+000	-3.70030E-001	0.00000E+000	10	...........	1583.15
	462	4.62	2.27760E-001	-1.23009E-003	0.00000E+000	-3.70030E-001	0.00000E+000	10	...........	1583.15
	463	4.63	2.25800E-001	-1.23005E-003	0.00000E+000	-3.70030E-001	0.00000E+000	10	...........	1583.15
	464	4.64	2.23846E-001	-1.23012E-003	0.00000E+000	-3.70030E-001	0.00000E+000	10	...........	1583.15
	465	4.65	2.21901E-001	-1.23009E-003	0.00000E+000	-3.70030E-001	0.00000E+000	10	...........	1583.15
	466	4.66	2.19953E-001	-1.23007E-003	0.00000E+000	-3.70030E-001	0.00000E+000	10	...........	1583.15
	467	4.67	2.18018E-001	-1.23005E-003	0.00000E+000	-3.70030E-001	0.00000E+000	10	...........	1583.15
	468	4.68	2.16085E-001	-1.23009E-003	0.00000E+000	-3.70030E-001	0.00000E+000	10	...........	1583.15
	469	4.69	2.14151E-001	-1.23010E-003	0.00000E+000	-3.70030E-001	0.00000E+000	10	...........	1583.15
	470	4.7	2.12224E-001	-1.23008E-003	0.00000E+000	-3.70030E-001	0.00000E+000	10	...........	1583.15
	471	4.71	2.10306E-001	-1.23009E-003	0.00000E+000	-3.70030E-001	0.00000E+000	10	...........	1583.15
	472	4.72	2.08387E-001	-1.23011E-003	0.00000E+000	-3.70030E-001	0.00000E+000	10	...........	1583.15
	473	4.73	2.06476E-001	-1.23011E-003	0.00000E+000	-3.70030E-001	0.00000E+000	10	...........	1583.15
	474	4.74	2.04566E-001	-1.23009E-003	0.00000E+000	-3.70030E-001	0.00000E+000	10	...........	1583.15
	475	4.75	2.02665E-001	-1.23014E-003	0.00000E+000	-3.70030E-001	0.00000E+000	10	...........	1583.15
	476	4.76	2.00762E-001	-1.23012E-003	0.00000E+000	-3.70030E-001	0.00000E+000	10	...........	1583.15
	477	4.77	1.98870E-001	-1.23012E-003	0.00000E+000	-3.70030E-001	0.00000E+000	10	...........	1583.15
	478	4.78	1.96979E-001	-1.23009E-003	0.00000E+000	-3.70030E-001	0.00000E+000	10	...........	1583.15
	479	4.79	1.95093E-001	-1.23011E-003	0.00000E+000	-3.70030E-001	0.00000E+000	10	...........	1583.15
	480	4.8	1.93212E-001	-1.23011E-003	0.00000E+000	-3.70030E-001	0.00000E+000	10	...........	1583.15
	481	4.81	1.91333E-001	-1.23008E-003	0.00000E+000	-3.70030E-001	0.00000E+000	10	...........	1583.15
	482	4.82	1.89462E-001	-1.23010E-003	0.00000E+000	-3.70030E-001	0.00000E+000	10	...........	1583.15
	483	4.83	1.87598E-001	-1.23011E-003	0.00000E+000	-3.70030E-001	0.00000E+000	10	...........	1583.15
	484	4.84	1.85734E-001	-1.23011E-003	0.00000E+000	-3.70030E-001	0.00000E+000	10	...........	1583.15
	485	4.85	1.83873E-001	-1.23015E-003	0.00000E+000	-3.70030E-001	0.00000E+000	10	...........	1583.15
	486	4.86	1.82018E-001	-1.23010E-003	0.00000E+000	-3.70030E-001	0.00000E+000	10	...........	1583.15
	487	4.87	1.80171E-001	-1.23009E-003	0.00000E+000	-3.70030E-001	0.00000E+000	10	...........	1583.15
	488	4.88	1.78326E-001	-1.23010E-003	0.00000E+000	-3.70030E-001	0.00000E+000	10	...........	1583.15
	489	4.89	1.76488E-001	-1.23013E-003	0.00000E+000	-3.70030E-001	0.00000E+000	10	...........	1583.15
	490	4.9	1.74653E-001	-1.23009E-003	0.00000E+000	-3.70030E-001	0.00000E+000	10	...........	1583.15
	491	4.91	1.72824E-001	-1.23008E-003	0.00000E+000	-3.70030E-001	0.00000E+000	10	...........	1583.15
	492	4.92	1.70995E-001	-1.23012E-003	0.00000E+000	-3.70030E-001	0.00000E+000	10	...........	1583.15
	493	4.93	1.69178E-001	-1.23016E-003	0.00000E+000	-3.70030E-001	0.00000E+000	10	...........	1583.15
	494	4.94	1.67361E-001	-1.23016E-003	0.00000E+000	-3.70030E-001	0.00000E+000	10	...........	1583.15
	495	4.95	1.65547E-001	-1.23014E-003	0.00000E+000	-3.70030E-001	0.00000E+000	10	...........	1583.15
	496	4.96	1.63739E-001	-1.23015E-003	0.00000E+000	-3.70030E-001	0.00000E+000	10	...........	1583.15
	497	4.97	1.61942E-001	-1.23005E-003	0.00000E+000	-3.70030E-001	0.00000E+000	10	...........	1583.15
	498	4.98	1.60142E-001	-1.23012E-003	0.00000E+000	-3.70030E-001	0.00000E+000	10	...........	1583.15
	499	4.99	1.58347E-001	-1.23014E-003	0.00000E+000	-3.70030E-001	0.00000E+000	10	...........	1583.15
	500	5	1.56560E-001	-1.23010E-003	0.00000E+000	-3.70030E-001	0.00000E+000	10	...........	1583.15
	501	5.01	1.54776E-001	-1.23012E-003	0.00000E+000	-3.70030E-001	0.00000E+000	10	...........	1583.15
	502	5.02	1.52995E-001	-1.23009E-003	0.00000E+000	-3.70030E-001	0.00000E+000	10	...........	1583.15
	503	5.03	1.51224E-001	-1.23012E-003	0.00000E+000	-3.70030E-001	0.00000E+000	10	...........	1583.15
	504	5.04	1.49449E-001	-1.23010E-003	0.00000E+000	-3.70030E-001	0.00000E+000	10	...........	1583.15
	505	5.05	1.47687E-001	-1.23012E-003	0.00000E+000	-3.70030E-001	0.00000E+000	10	...........	1583.15
	506	5.06	1.45922E-001	-1.23009E-003	0.00000E+000	-3.70030E-001	0.00000E+000	10	...........	1583.15
	507	5.07	1.44170E-001	-1.23012E-003	0.00000E+000	-3.70030E-001	0.00000E+000	10	...........	1583.15
	508	5.08	1.42416E-001	-1.23012E-003	0.00000E+000	-3.70030E-001	0.00000E+000	10	...........	1583.15
	509	5.09	1.40669E-001	-1.23014E-003	0.00000E+000	-3.70030E-001	0.00000E+000	10	...........	1583.15
	510	5.1	1.38924E-001	-1.23008E-003	0.00000E+000	-3.70030E-001	0.00000E+000	10	...........	1583.15
	511	5.11	1.37185E-001	-1.23009E-003	0.00000E+000	-3.70030E-001	0.00000E+000	10	...........	1583.15
	512	5.12	1.35451E-001	-1.23007E-003	0.00000E+000	-3.70030E-001	0.00000E+000	10	...........	1583.15
	513	5.13	1.33723E-001	-1.23012E-003	0.00000E+000	-3.70030E-001	0.00000E+000	10	...........	1583.15
	514	5.14	1.32001E-001	-1.23009E-003	0.00000E+000	-3.70030E-001	0.00000E+000	10	...........	1583.15
	515	5.15	1.30281E-001	-1.23007E-003	0.00000E+000	-3.70030E-001	0.00000E+000	10	...........	1583.15
	516	5.16	1.28566E-001	-1.23007E-003	0.00000E+000	-3.70030E-001	0.00000E+000	10	...........	1583.15
	517	5.17	1.26859E-001	-1.23014E-003	0.00000E+000	-3.70030E-001	0.00000E+000	10	...........	1583.15
	518	5.18	1.25155E-001	-1.23009E-003	0.00000E+000	-3.70030E-001	0.00000E+000	10	...........	1583.15
	519	5.19	1.23460E-001	-1.23009E-003	0.00000E+000	-3.70030E-001	0.00000E+000	10	...........	1583.15
	520	5.2	1.21761E-001	-1.23014E-003	0.00000E+000	-3.70030E-001	0.00000E+000	10	...........	1583.15
	521	5.21	1.20069E-001	-1.23010E-003	0.00000E+000	-3.70030E-001	0.00000E+000	10	...........	1583.15
	522	5.22	1.18382E-001	-1.23014E-003	0.00000E+000	-3.70030E-001	0.00000E+000	10	...........	1583.15
	523	5.23	1.16704E-001	-1.23012E-003	0.00000E+000	-3.70030E-001	0.00000E+000	10	...........	1583.15
	524	5.24	1.15026E-001	-1.23012E-003	0.00000E+000	-3.70030E-001	0.00000E+000	10	...........	1583.15
	525	5.25	1.13353E-001	-1.23016E-003	0.00000E+000	-3.70030E-001	0.00000E+000	10	...........	1583.15
	526	5.26	1.11682E-001	-1.23013E-003	0.00000E+000	-3.70030E-001	0.00000E+000	10	...........	1583.15
	527	5.27	1.10022E-001	-1.23012E-003	0.00000E+000	-3.70030E-001	0.00000E+000	10	...........	1583.15
	528	5.28	1.08363E-001	-1.23007E-003	0.00000E+000	-3.70030E-001	0.00000E+000	10	...........	1583.15
	529	5.29	1.06715E-001	-1.23004E-003	0.00000E+000	-3.70030E-001	0.00000E+000	10	...........	1583.15
	530	5.3	1.05066E-001	-1.23011E-003	0.00000E+000	-3.70030E-001	0.00000E+000	10	...........	1583.15
	531	5.31	1.03420E-001	-1.23011E-003	0.00000E+000	-3.70030E-001	0.00000E+000	10	...........	1583.15
	532	5.32	1.01783E-001	-1.23009E-003	0.00000E+000	-3.70030E-001	0.00000E+000	10	...........	1583.15
	533	5.33	1.00147E-001	-1.23009E-003	0.00000E+000	-3.70030E-001	0.00000E+000	10	...........	1583.15
	534	5.34	9.85207E-002	-1.23007E-003	0.00000E+000	-3.70030E-001	0.00000E+000	10	...........	1583.15
	535	5.35	9.68972E-002	-1.23008E-003	0.00000E+000	-3.70030E-001	0.00000E+000	10	...........	1583.15
	536	5.36	9.52789E-002	-1.23009E-003	0.00000E+000	-3.70030E-001	0.00000E+000	10	...........	1583.15
	537	5.37	9.36608E-002	-1.23019E-003	0.00000E+000	-3.70030E-001	0.00000E+000	10	...........	1583.15
	538	5.38	9.20521E-002	-1.23011E-003	0.00000E+000	-3.70030E-001	0.00000E+000	10	...........	1583.15
	539	5.39	9.04428E-002	-1.23013E-003	0.00000E+000	-3.70030E-001	0.00000E+000	10	...........	1583.15
	540	5.4	8.88439E-002	-1.23016E-003	0.00000E+000	-3.70030E-001	0.00000E+000	10	...........	1583.15
	541	5.41	8.72489E-002	-1.23010E-003	0.00000E+000	-3.70030E-001	0.00000E+000	10	...........	1583.15
	542	5.42	8.56534E-002	-1.23011E-003	0.00000E+000	-3.70030E-001	0.00000E+000	10	...........	1583.15
	543	5.43	8.40673E-002	-1.23010E-003	0.00000E+000	-3.70030E-001	0.00000E+000	10	...........	1583.15
	544	5.44	8.24886E-002	-1.23013E-003	0.00000E+000	-3.70030E-001	0.00000E+000	10	...........	1583.15
	545	5.45	8.09121E-002	-1.23014E-003	0.00000E+000	-3.70030E-001	0.00000E+000	10	...........	1583.15
	546	5.46	7.93399E-002	-1.23012E-003	0.00000E+000	-3.70030E-001	0.00000E+000	10	...........	1583.15
	547	5.47	7.77727E-002	-1.23009E-003	0.00000E+000	-3.70030E-001	0.00000E+000	10	...........	1583.15
	548	5.48	7.62105E-002	-1.23014E-003	0.00000E+000	-3.70030E-001	0.00000E+000	10	...........	1583.15
	549	5.49	7.46547E-002	-1.23014E-003	0.00000E+000	-3.70030E-001	0.00000E+000	10	...........	1583.15
	550	5.5	7.31006E-002	-1.23008E-003	0.00000E+000	-3.70030E-001	0.00000E+000	10	...........	1583.15
	551	5.51	7.15567E-002	-1.23007E-003	0.00000E+000	-3.70030E-001	0.00000E+000	10	...........	1583.15
	552	5.52	7.00098E-002	-1.23006E-003	0.00000E+000	-3.70030E-001	0.00000E+000	10	...........	1583.15
	553	5.53	6.84721E-002	-1.23011E-003	0.00000E+000	-3.70030E-001	0.00000E+000	10	...........	1583.15
	554	5.54	6.69376E-002	-1.23014E-003	0.00000E+000	-3.70030E-001	0.00000E+000	10	...........	1583.15
	555	5.55	6.54110E-002	-1.23013E-003	0.00000E+000	-3.70030E-001	0.00000E+000	10	...........	1583.15
	556	5.56	6.38802E-002	-1.23010E-003	0.00000E+000	-3.70030E-001	0.00000E+000	10	...........	1583.15
	557	5.57	6.23631E-002	-1.23012E-003	0.00000E+000	-3.70030E-001	0.00000E+000	10	...........	1583.15
	558	5.58	6.08467E-002	-1.23017E-003	0.00000E+000	-3.70030E-001	0.00000E+000	10	...........	1583.15
	559	5.59	5.93390E-002	-1.23013E-003	0.00000E+000	-3.70030E-001	0.00000E+000	10	...........	1583.15
	560	5.6	5.78336E-002	-1.23009E-003	0.00000E+000	-3.70030E-001	0.00000E+000	10	...........	1583.15
	561	5.61	5.63345E-002	-1.23015E-003	0.00000E+000	-3.70030E-001	0.00000E+000	10	...........	1583.15
	562	5.62	5.48359E-002	-1.23010E-003	0.00000E+000	-3.70030E-001	0.00000E+000	10	...........	1583.15
	563	5.63	5.33438E-002	-1.23009E-003	0.00000E+000	-3.70030E-001	0.00000E+000	10	...........	1583.15
	564	5.64	5.18606E-002	-1.23006E-003	0.00000E+000	-3.70030E-001	0.00000E+000	10	...........	1583.15
	565	5.65	5.03799E-002	-1.23010E-003	0.00000E+000	-3.70030E-001	0.00000E+000	10	...........	1583.15
	566	5.66	4.89030E-002	-1.23011E-003	0.00000E+000	-3.70030E-001	0.00000E+000	10	...........	1583.15
	567	5.67	4.74311E-002	-1.23016E-003	0.00000E+000	-3.70030E-001	0.00000E+000	10	...........	1583.15
	568	5.68	4.59644E-002	-1.23012E-003	0.00000E+000	-3.70030E-001	0.00000E+000	10	...........	1583.15
	569	5.69	4.44987E-002	-1.23010E-003	0.00000E+000	-3.70030E-001	0.00000E+000	10	...........	1583.15
	570	5.7	4.30397E-002	-1.23015E-003	0.00000E+000	-3.70030E-001	0.00000E+000	10	...........	1583.15
	571	5.71	4.15848E-002	-1.23014E-003	0.00000E+000	-3.70030E-001	0.00000E+000	10	...........	1583.15
	572	5.72	4.01359E-002	-1.23014E-003	0.00000E+000	-3.70030E-001	0.00000E+000	10	...........	1583.15
	573	5.73	3.86949E-002	-1.23012E-003	0.00000E+000	-3.70030E-001	0.00000E+000	10	...........	1583.15
	574	5.74	3.72574E-002	-1.23006E-003	0.00000E+000	-3.70030E-001	0.00000E+000	10	...........	1583.15
	575	5.75	3.58229E-002	-1.23009E-003	0.00000E+000	-3.70030E-001	0.00000E+000	10	...........	1583.53
	576	5.76	3.43939E-002	-1.23011E-003	0.00000E+000	-3.70030E-001	0.00000E+000	10	...........	1583.53
	577	5.77	3.29654E-002	-1.23016E-003	0.00000E+000	-3.70030E-001	0.00000E+000	10	...........	1583.53
	578	5.78	3.15469E-002	-1.23011E-003	0.00000E+000	-3.70030E-001	0.00000E+000	10	...........	1583.53
	579	5.79	3.01315E-002	-1.23012E-003	0.00000E+000	-3.70030E-001	0.00000E+000	10	...........	1583.53
	580	5.8	2.87207E-002	-1.23014E-003	0.00000E+000	-3.70030E-001	0.00000E+000	10	...........	1583.53
	581	5.81	2.73149E-002	-1.23013E-003	0.00000E+000	-3.70030E-001	0.00000E+000	10	...........	1583.53
	582	5.82	2.59140E-002	-1.23012E-003	0.00000E+000	-3.70030E-001	0.00000E+000	10	...........	1583.53
	583	5.83	2.45179E-002	-1.23012E-003	0.00000E+000	-3.70030E-001	0.00000E+000	10	...........	1583.53
	584	5.84	2.31254E-002	-1.23010E-003	0.00000E+000	-3.70030E-001	0.00000E+000	10	...........	1583.53
	585	5.85	2.17415E-002	-1.23012E-003	0.00000E+000	-3.70030E-001	0.00000E+000	10	...........	1583.53
	586	5.86	2.03588E-002	-1.23010E-003	0.00000E+000	-3.70030E-001	0.00000E+000	10	...........	1583.53
	587	5.87	1.89793E-002	-1.23012E-003	0.00000E+000	-3.70030E-001	0.00000E+000	10	...........	1583.53
	588	5.88	1.76043E-002	-1.23005E-003	0.00000E+000	-3.70030E-001	0.00000E+000	10	...........	1583.53
	589	5.89	1.62367E-002	-1.23011E-003	0.00000E+000	-3.70030E-001	0.00000E+000	10	...........	1583.53
	590	5.9	1.48710E-002	-1.23009E-003	0.00000E+000	-3.70030E-001	0.00000E+000	10	...........	1583.53
	591	5.91	1.35128E-002	-1.23011E-003	0.00000E+000	-3.70030E-001	0.00000E+000	10	...........	1583.53
	592	5.92	1.21562E-002	-1.23005E-003	0.00000E+000	-3.70030E-001	0.00000E+000	10	...........	1583.53
	593	5.93	1.08043E-002	-1.23007E-003	0.00000E+000	-3.70030E-001	0.00000E+000	10	...........	1583.53
	594	5.94	9.45815E-003	-1.23008E-003	0.00000E+000	-3.70030E-001	0.00000E+000	10	...........	1583.53
	595	5.95	8.11861E-003	-1.23008E-003	0.00000E+000	-3.70030E-001	0.00000E+000	10	...........	1583.53
	596	5.96	6.77903E-003	-1.23011E-003	0.00000E+000	-3.70030E-001	0.00000E+000	10	...........	1583.53
	597	5.97	5.44710E-003	-1.23010E-003	0.00000E+000	-3.70030E-001	0.00000E+000	10	...........	1583.53
	598	5.98	4.11398E-003	-1.23007E-003	0.00000E+000	-3.70030E-001	0.00000E+000	10	...........	1583.53
	599	5.99	2.79357E-003	-1.23012E-003	0.00000E+000	-3.70030E-001	0.00000E+000	10	...........	1583.53
	600	6	1.47410E-003	-1.23005E-003	0.00000E+000	-3.70030E-001	0.00000E+000	10	...........	1583.53
	601	6.01	1.57009E-004	-1.23003E-003	0.00000E+000	-3.70030E-001	0.00000E+000	10	...........	1583.53
	602	6.02	-1.15812E-003	-1.23009E-003	0.00000E+000	-3.70030E-001	0.00000E+000	10	...........	1583.53
