EXPLAIN
TAG	CHRONOP
TITLE	LABEL	Chronopotentiometry Scan	Test Identifier
DATE	LABEL	23/1/2025	Date
TIME	LABEL	0:27:38	Time
NOTES	NOTES	1	Notes...
	
PSTAT	PSTAT	IFC1010-42004	Potentiostat
IPRESTEP	QUANT	0.00000E+000	Pre-step Current(A)
TPRESTEP	QUANT	0.00000E+000	Pre-step Delay Time (s)
ISTEP1	QUANT	1.23000E-003	Step 1 Current (A)
TSTEP1	QUANT	5.00000E+003	Step 1 Time (s)
ISTEP2	QUANT	-1.23000E-003	Step 2 Current (A)
TSTEP2	QUANT	5.00000E+003	Step 2 Time (s)
SAMPLETIME	QUANT	1.00000E-002	Sample Period (s)
DECIMATE	TOGGLE	F	Decimate
VLIMITLOWER	QUANT	0.00000E+000	Lower Limit V (V)
VLIMITUPPER	QUANT	8.00000E-001	Upper Limit V (V)
EQDELAY	QUANT	1.00000E+000	Equil. Time (s)
SAMPLINGMODE	SELECTOR	1	Sampling Mode
AREA	QUANT	2.00000E+000	Sample Area (cm^2)
ELECTRODETYPE	SELECTOR	0	Electrode Type
STRIPPING	TOGGLE	F	Used for Stripping
SEQUENCER	TOGGLE	TRUE	Run as Sequence
PSTATMODEL	IQUANT	64	Pstat Model
PSTATSECTION	LABEL	IFC1010-42004	Pstat Section
PSTATSERIALNO	LABEL	42004	Pstat Serial Number
CTRLMODE	IQUANT	0	Control Mode
ELECTROMETER	IQUANT	0	RE=0 or CS=1
IESTAB	IQUANT	0	I/E Stability
CASPEED	IQUANT	4	Control Amp Speed
CONVENTION	IQUANT	1	Current Convention
ICHRANGE	IQUANT	2	Ich Range
ICHRANGEMODE	TOGGLE	T	Ich Auto Range
ICHOFFSETENABLE	TOGGLE	F	Ich Offset Enable
ICHOFFSET	QUANT	0	Ich Offset (V)
ICHFILTER	IQUANT	3	Ich Filter
VCHRANGE	IQUANT	3	Vch Range
VCHRANGEMODE	TOGGLE	T	Vch Auto Range
VCHOFFSETENABLE	TOGGLE	F	Vch Offset Enable
VCHOFFSET	QUANT	0	Vch Offset (V)
VCHFILTER	IQUANT	3	Vch Filter
IERANGELOWERLIMIT	IQUANT	4	I/E Range Lower Limit
IERANGEMODE	TOGGLE	F	I/E AutoRange
IERANGE	IQUANT	11	I/E Range
ACHSELECT	IQUANT	0	Ach Select
ACHRANGE	IQUANT	2	Ach Range
ACHOFFSETENABLE	TOGGLE	F	Ach Offset Enable
ACHOFFSET	QUANT	0	Ach Offset (V)
ACHFILTER	IQUANT	1	Ach Filter
SENSECABLEID	IQUANT	14	Sense Cable ID
PWRCABLEID	IQUANT	14	Power Cable ID
DCCALDATE	LABEL	1/22/2025	DC Calibration Date
ACCALDATE	LABEL	11/15/2024	AC Calibration Date
FRAMEWORKVERSION	LABEL	7.10.4	Framework Version
INSTRUMENTVERSION	LABEL	4.91	Instrument Version
COMMVERSION	LABEL	3.10	Communications Version
CPUPLDVERSION	LABEL	2.54	CPU PLD Version
CTRLPLDVERSION	LABEL	0.00	CTRL PLD Version
PSTATPLDVERSION	LABEL	0.00	PSTAT PLD Version
CURVE	TABLE	649
	Pt	T	Vf	Im	Vu	Sig	Ach	IERange	Over	Temp
	#	s	V vs. Ref.	A	V	V	V	#	bits	deg C
	0	0	2.30494E-001	2.68312E-009	0.00000E+000	0.00000E+000	0.00000E+000	10	...........	1583.15
	1	0.01	2.43880E-001	1.22976E-003	0.00000E+000	3.70030E-001	0.00000E+000	10	...........	1583.15
	2	0.02	2.46446E-001	1.22972E-003	0.00000E+000	3.70030E-001	0.00000E+000	10	...........	1583.15
	3	0.03	2.48735E-001	1.22975E-003	0.00000E+000	3.70030E-001	0.00000E+000	10	...........	1583.15
	4	0.04	2.50937E-001	1.22973E-003	0.00000E+000	3.70030E-001	0.00000E+000	10	...........	1583.15
	5	0.05	2.53096E-001	1.22974E-003	0.00000E+000	3.70030E-001	0.00000E+000	10	...........	1583.15
	6	0.06	2.55223E-001	1.22981E-003	0.00000E+000	3.70030E-001	0.00000E+000	10	...........	1583.15
	7	0.07	2.57365E-001	1.22981E-003	0.00000E+000	3.70030E-001	0.00000E+000	10	...........	1583.15
	8	0.08	2.59484E-001	1.22974E-003	0.00000E+000	3.70030E-001	0.00000E+000	10	...........	1583.15
	9	0.09	2.61578E-001	1.22977E-003	0.00000E+000	3.70030E-001	0.00000E+000	10	...........	1583.15
	10	0.1	2.63671E-001	1.22978E-003	0.00000E+000	3.70030E-001	0.00000E+000	10	...........	1583.15
	11	0.11	2.65766E-001	1.22975E-003	0.00000E+000	3.70030E-001	0.00000E+000	10	...........	1583.15
	12	0.12	2.67863E-001	1.22979E-003	0.00000E+000	3.70030E-001	0.00000E+000	10	...........	1583.15
	13	0.13	2.69956E-001	1.22976E-003	0.00000E+000	3.70030E-001	0.00000E+000	10	...........	1583.15
	14	0.14	2.72032E-001	1.22970E-003	0.00000E+000	3.70030E-001	0.00000E+000	10	...........	1583.15
	15	0.15	2.74125E-001	1.22979E-003	0.00000E+000	3.70030E-001	0.00000E+000	10	...........	1583.15
	16	0.16	2.76201E-001	1.22979E-003	0.00000E+000	3.70030E-001	0.00000E+000	10	...........	1583.15
	17	0.17	2.78286E-001	1.22978E-003	0.00000E+000	3.70030E-001	0.00000E+000	10	...........	1583.15
	18	0.18	2.80371E-001	1.22982E-003	0.00000E+000	3.70030E-001	0.00000E+000	10	...........	1583.15
	19	0.19	2.82489E-001	1.22981E-003	0.00000E+000	3.70030E-001	0.00000E+000	10	...........	1583.15
	20	0.2	2.84566E-001	1.22977E-003	0.00000E+000	3.70030E-001	0.00000E+000	10	...........	1583.15
	21	0.21	2.86625E-001	1.22982E-003	0.00000E+000	3.70030E-001	0.00000E+000	10	...........	1583.15
	22	0.22	2.88726E-001	1.22981E-003	0.00000E+000	3.70030E-001	0.00000E+000	10	...........	1583.15
	23	0.23	2.90801E-001	1.22982E-003	0.00000E+000	3.70030E-001	0.00000E+000	10	...........	1583.15
	24	0.24	2.92876E-001	1.22983E-003	0.00000E+000	3.70030E-001	0.00000E+000	10	...........	1583.15
	25	0.25	2.94977E-001	1.22980E-003	0.00000E+000	3.70030E-001	0.00000E+000	10	...........	1583.15
	26	0.26	2.97072E-001	1.22981E-003	0.00000E+000	3.70030E-001	0.00000E+000	10	...........	1583.15
	27	0.27	2.99146E-001	1.22976E-003	0.00000E+000	3.70030E-001	0.00000E+000	10	...........	1583.15
	28	0.28	3.01234E-001	1.22980E-003	0.00000E+000	3.70030E-001	0.00000E+000	10	...........	1583.15
	29	0.29	3.03321E-001	1.22977E-003	0.00000E+000	3.70030E-001	0.00000E+000	10	...........	1583.15
	30	0.3	3.05414E-001	1.22984E-003	0.00000E+000	3.70030E-001	0.00000E+000	10	...........	1583.15
	31	0.31	3.07518E-001	1.22981E-003	0.00000E+000	3.70030E-001	0.00000E+000	10	...........	1583.15
	32	0.32	3.09623E-001	1.22978E-003	0.00000E+000	3.70030E-001	0.00000E+000	10	...........	1583.15
	33	0.33	3.11722E-001	1.22980E-003	0.00000E+000	3.70030E-001	0.00000E+000	10	...........	1583.15
	34	0.34	3.13816E-001	1.22979E-003	0.00000E+000	3.70030E-001	0.00000E+000	10	...........	1583.15
	35	0.35	3.15919E-001	1.22983E-003	0.00000E+000	3.70030E-001	0.00000E+000	10	...........	1583.15
	36	0.36	3.17998E-001	1.22983E-003	0.00000E+000	3.70030E-001	0.00000E+000	10	...........	1583.15
	37	0.37	3.20109E-001	1.22979E-003	0.00000E+000	3.70030E-001	0.00000E+000	10	...........	1583.15
	38	0.38	3.22195E-001	1.22980E-003	0.00000E+000	3.70030E-001	0.00000E+000	10	...........	1583.15
	39	0.39	3.24288E-001	1.22981E-003	0.00000E+000	3.70030E-001	0.00000E+000	10	...........	1583.15
	40	0.4	3.26377E-001	1.22975E-003	0.00000E+000	3.70030E-001	0.00000E+000	10	...........	1583.15
	41	0.41	3.28492E-001	1.22979E-003	0.00000E+000	3.70030E-001	0.00000E+000	10	...........	1583.15
	42	0.42	3.30585E-001	1.22976E-003	0.00000E+000	3.70030E-001	0.00000E+000	10	...........	1583.15
	43	0.43	3.32678E-001	1.22982E-003	0.00000E+000	3.70030E-001	0.00000E+000	10	...........	1583.15
	44	0.44	3.34794E-001	1.22982E-003	0.00000E+000	3.70030E-001	0.00000E+000	10	...........	1583.15
	45	0.45	3.36903E-001	1.22978E-003	0.00000E+000	3.70030E-001	0.00000E+000	10	...........	1583.15
	46	0.46	3.38996E-001	1.22979E-003	0.00000E+000	3.70030E-001	0.00000E+000	10	...........	1583.15
	47	0.47	3.41104E-001	1.22977E-003	0.00000E+000	3.70030E-001	0.00000E+000	10	...........	1583.15
	48	0.48	3.43212E-001	1.22977E-003	0.00000E+000	3.70030E-001	0.00000E+000	10	...........	1583.15
	49	0.49	3.45302E-001	1.22974E-003	0.00000E+000	3.70030E-001	0.00000E+000	10	...........	1583.15
	50	0.5	3.47426E-001	1.22977E-003	0.00000E+000	3.70030E-001	0.00000E+000	10	...........	1583.15
	51	0.51	3.49539E-001	1.22976E-003	0.00000E+000	3.70030E-001	0.00000E+000	10	...........	1583.15
	52	0.52	3.51623E-001	1.22973E-003	0.00000E+000	3.70030E-001	0.00000E+000	10	...........	1583.63
	53	0.53	3.53747E-001	1.22971E-003	0.00000E+000	3.70030E-001	0.00000E+000	10	...........	1583.63
	54	0.54	3.55863E-001	1.22970E-003	0.00000E+000	3.70030E-001	0.00000E+000	10	...........	1583.63
	55	0.55	3.57958E-001	1.22975E-003	0.00000E+000	3.70030E-001	0.00000E+000	10	...........	1583.63
	56	0.56	3.60094E-001	1.22971E-003	0.00000E+000	3.70030E-001	0.00000E+000	10	...........	1583.63
	57	0.57	3.62214E-001	1.22968E-003	0.00000E+000	3.70030E-001	0.00000E+000	10	...........	1583.63
	58	0.58	3.64323E-001	1.22979E-003	0.00000E+000	3.70030E-001	0.00000E+000	10	...........	1583.63
	59	0.59	3.66425E-001	1.22978E-003	0.00000E+000	3.70030E-001	0.00000E+000	10	...........	1583.63
	60	0.6	3.68551E-001	1.22974E-003	0.00000E+000	3.70030E-001	0.00000E+000	10	...........	1583.63
	61	0.61	3.70660E-001	1.22974E-003	0.00000E+000	3.70030E-001	0.00000E+000	10	...........	1583.63
	62	0.62	3.72803E-001	1.22975E-003	0.00000E+000	3.70030E-001	0.00000E+000	10	...........	1583.63
	63	0.63	3.74924E-001	1.22983E-003	0.00000E+000	3.70030E-001	0.00000E+000	10	...........	1583.63
	64	0.64	3.77033E-001	1.22983E-003	0.00000E+000	3.70030E-001	0.00000E+000	10	...........	1583.63
	65	0.65	3.79171E-001	1.22977E-003	0.00000E+000	3.70030E-001	0.00000E+000	10	...........	1583.63
	66	0.66	3.81264E-001	1.22972E-003	0.00000E+000	3.70030E-001	0.00000E+000	10	...........	1583.63
	67	0.67	3.83363E-001	1.22973E-003	0.00000E+000	3.70030E-001	0.00000E+000	10	...........	1583.63
	68	0.68	3.85512E-001	1.22974E-003	0.00000E+000	3.70030E-001	0.00000E+000	10	...........	1583.63
	69	0.69	3.87634E-001	1.22968E-003	0.00000E+000	3.70030E-001	0.00000E+000	10	...........	1583.63
	70	0.7	3.89736E-001	1.22969E-003	0.00000E+000	3.70030E-001	0.00000E+000	10	...........	1583.63
	71	0.71	3.91883E-001	1.22976E-003	0.00000E+000	3.70030E-001	0.00000E+000	10	...........	1583.63
	72	0.72	3.94008E-001	1.22977E-003	0.00000E+000	3.70030E-001	0.00000E+000	10	...........	1583.63
	73	0.73	3.96108E-001	1.22976E-003	0.00000E+000	3.70030E-001	0.00000E+000	10	...........	1583.63
	74	0.74	3.98269E-001	1.22975E-003	0.00000E+000	3.70030E-001	0.00000E+000	10	...........	1583.63
	75	0.75	4.00380E-001	1.22983E-003	0.00000E+000	3.70030E-001	0.00000E+000	10	...........	1583.63
	76	0.76	4.02519E-001	1.22976E-003	0.00000E+000	3.70030E-001	0.00000E+000	10	...........	1583.63
	77	0.77	4.04640E-001	1.22983E-003	0.00000E+000	3.70030E-001	0.00000E+000	10	...........	1583.63
	78	0.78	4.06760E-001	1.22978E-003	0.00000E+000	3.70030E-001	0.00000E+000	10	...........	1583.63
	79	0.79	4.08890E-001	1.22974E-003	0.00000E+000	3.70030E-001	0.00000E+000	10	...........	1583.63
	80	0.8	4.11036E-001	1.22971E-003	0.00000E+000	3.70030E-001	0.00000E+000	10	...........	1583.63
	81	0.81	4.13179E-001	1.22976E-003	0.00000E+000	3.70030E-001	0.00000E+000	10	...........	1583.63
	82	0.82	4.15294E-001	1.22979E-003	0.00000E+000	3.70030E-001	0.00000E+000	10	...........	1583.63
	83	0.83	4.17441E-001	1.22979E-003	0.00000E+000	3.70030E-001	0.00000E+000	10	...........	1583.63
	84	0.84	4.19563E-001	1.22983E-003	0.00000E+000	3.70030E-001	0.00000E+000	10	...........	1583.63
	85	0.85	4.21711E-001	1.22979E-003	0.00000E+000	3.70030E-001	0.00000E+000	10	...........	1583.63
	86	0.86	4.23863E-001	1.22980E-003	0.00000E+000	3.70030E-001	0.00000E+000	10	...........	1583.63
	87	0.87	4.25998E-001	1.22976E-003	0.00000E+000	3.70030E-001	0.00000E+000	10	...........	1583.63
	88	0.88	4.28113E-001	1.22976E-003	0.00000E+000	3.70030E-001	0.00000E+000	10	...........	1583.63
	89	0.89	4.30251E-001	1.22974E-003	0.00000E+000	3.70030E-001	0.00000E+000	10	...........	1583.63
	90	0.9	4.32388E-001	1.22973E-003	0.00000E+000	3.70030E-001	0.00000E+000	10	...........	1583.63
	91	0.91	4.34508E-001	1.22973E-003	0.00000E+000	3.70030E-001	0.00000E+000	10	...........	1583.63
	92	0.92	4.36684E-001	1.22974E-003	0.00000E+000	3.70030E-001	0.00000E+000	10	...........	1583.63
	93	0.93	4.38821E-001	1.22974E-003	0.00000E+000	3.70030E-001	0.00000E+000	10	...........	1583.63
	94	0.94	4.40969E-001	1.22980E-003	0.00000E+000	3.70030E-001	0.00000E+000	10	...........	1583.63
	95	0.95	4.43106E-001	1.22978E-003	0.00000E+000	3.70030E-001	0.00000E+000	10	...........	1583.63
	96	0.96	4.45260E-001	1.22981E-003	0.00000E+000	3.70030E-001	0.00000E+000	10	...........	1583.63
	97	0.97	4.47381E-001	1.22975E-003	0.00000E+000	3.70030E-001	0.00000E+000	10	...........	1583.63
	98	0.98	4.49525E-001	1.22970E-003	0.00000E+000	3.70030E-001	0.00000E+000	10	...........	1583.63
	99	0.99	4.51684E-001	1.22978E-003	0.00000E+000	3.70030E-001	0.00000E+000	10	...........	1583.63
	100	1	4.53817E-001	1.22977E-003	0.00000E+000	3.70030E-001	0.00000E+000	10	...........	1583.63
	101	1.01	4.55972E-001	1.22975E-003	0.00000E+000	3.70030E-001	0.00000E+000	10	...........	1583.63
	102	1.02	4.58118E-001	1.22978E-003	0.00000E+000	3.70030E-001	0.00000E+000	10	...........	1583.63
	103	1.03	4.60250E-001	1.22977E-003	0.00000E+000	3.70030E-001	0.00000E+000	10	...........	1583.63
	104	1.04	4.62429E-001	1.22975E-003	0.00000E+000	3.70030E-001	0.00000E+000	10	...........	1583.63
	105	1.05	4.64564E-001	1.22978E-003	0.00000E+000	3.70030E-001	0.00000E+000	10	...........	1583.63
	106	1.06	4.66709E-001	1.22974E-003	0.00000E+000	3.70030E-001	0.00000E+000	10	...........	1583.63
	107	1.07	4.68857E-001	1.22975E-003	0.00000E+000	3.70030E-001	0.00000E+000	10	...........	1583.63
	108	1.08	4.71003E-001	1.22978E-003	0.00000E+000	3.70030E-001	0.00000E+000	10	...........	1583.63
	109	1.09	4.73150E-001	1.22978E-003	0.00000E+000	3.70030E-001	0.00000E+000	10	...........	1583.63
	110	1.1	4.75315E-001	1.22981E-003	0.00000E+000	3.70030E-001	0.00000E+000	10	...........	1583.63
	111	1.11	4.77481E-001	1.22978E-003	0.00000E+000	3.70030E-001	0.00000E+000	10	...........	1583.63
	112	1.12	4.79626E-001	1.22974E-003	0.00000E+000	3.70030E-001	0.00000E+000	10	...........	1583.63
	113	1.13	4.81771E-001	1.22975E-003	0.00000E+000	3.70030E-001	0.00000E+000	10	...........	1583.63
	114	1.14	4.83916E-001	1.22974E-003	0.00000E+000	3.70030E-001	0.00000E+000	10	...........	1583.63
	115	1.15	4.86061E-001	1.22978E-003	0.00000E+000	3.70030E-001	0.00000E+000	10	...........	1583.63
	116	1.16	4.88264E-001	1.22981E-003	0.00000E+000	3.70030E-001	0.00000E+000	10	...........	1583.63
	117	1.17	4.90420E-001	1.22976E-003	0.00000E+000	3.70030E-001	0.00000E+000	10	...........	1583.63
	118	1.18	4.92558E-001	1.22974E-003	0.00000E+000	3.70030E-001	0.00000E+000	10	...........	1583.63
	119	1.19	4.94717E-001	1.22973E-003	0.00000E+000	3.70030E-001	0.00000E+000	10	...........	1583.63
	120	1.2	4.96861E-001	1.22977E-003	0.00000E+000	3.70030E-001	0.00000E+000	10	...........	1583.63
	121	1.21	4.99012E-001	1.22972E-003	0.00000E+000	3.70030E-001	0.00000E+000	10	...........	1583.63
	122	1.22	5.01193E-001	1.22972E-003	0.00000E+000	3.70030E-001	0.00000E+000	10	...........	1583.63
	123	1.23	5.03344E-001	1.22973E-003	0.00000E+000	3.70030E-001	0.00000E+000	10	...........	1583.63
	124	1.24	5.05511E-001	1.22976E-003	0.00000E+000	3.70030E-001	0.00000E+000	10	...........	1583.63
	125	1.25	5.07661E-001	1.22975E-003	0.00000E+000	3.70030E-001	0.00000E+000	10	...........	1583.63
	126	1.26	5.09813E-001	1.22976E-003	0.00000E+000	3.70030E-001	0.00000E+000	10	...........	1583.63
	127	1.27	5.11990E-001	1.22973E-003	0.00000E+000	3.70030E-001	0.00000E+000	10	...........	1583.63
	128	1.28	5.14154E-001	1.22976E-003	0.00000E+000	3.70030E-001	0.00000E+000	10	...........	1583.63
	129	1.29	5.16322E-001	1.22972E-003	0.00000E+000	3.70030E-001	0.00000E+000	10	...........	1583.63
	130	1.3	5.18458E-001	1.22975E-003	0.00000E+000	3.70030E-001	0.00000E+000	10	...........	1583.63
	131	1.31	5.20633E-001	1.22974E-003	0.00000E+000	3.70030E-001	0.00000E+000	10	...........	1583.63
	132	1.32	5.22784E-001	1.22974E-003	0.00000E+000	3.70030E-001	0.00000E+000	10	...........	1583.63
	133	1.33	5.24954E-001	1.22972E-003	0.00000E+000	3.70030E-001	0.00000E+000	10	...........	1583.63
	134	1.34	5.27110E-001	1.22973E-003	0.00000E+000	3.70030E-001	0.00000E+000	10	...........	1583.63
	135	1.35	5.29273E-001	1.22978E-003	0.00000E+000	3.70030E-001	0.00000E+000	10	...........	1583.63
	136	1.36	5.31449E-001	1.22975E-003	0.00000E+000	3.70030E-001	0.00000E+000	10	...........	1583.63
	137	1.37	5.33616E-001	1.22983E-003	0.00000E+000	3.70030E-001	0.00000E+000	10	...........	1583.63
	138	1.38	5.35780E-001	1.22974E-003	0.00000E+000	3.70030E-001	0.00000E+000	10	...........	1583.63
	139	1.39	5.37941E-001	1.22975E-003	0.00000E+000	3.70030E-001	0.00000E+000	10	...........	1583.63
	140	1.4	5.40111E-001	1.22976E-003	0.00000E+000	3.70030E-001	0.00000E+000	10	...........	1583.63
	141	1.41	5.42248E-001	1.22974E-003	0.00000E+000	3.70030E-001	0.00000E+000	10	...........	1583.63
	142	1.42	5.44427E-001	1.22979E-003	0.00000E+000	3.70030E-001	0.00000E+000	10	...........	1583.63
	143	1.43	5.46589E-001	1.22975E-003	0.00000E+000	3.70030E-001	0.00000E+000	10	...........	1583.63
	144	1.44	5.48745E-001	1.22975E-003	0.00000E+000	3.70030E-001	0.00000E+000	10	...........	1583.63
	145	1.45	5.50916E-001	1.22973E-003	0.00000E+000	3.70030E-001	0.00000E+000	10	...........	1583.63
	146	1.46	5.53069E-001	1.22973E-003	0.00000E+000	3.70030E-001	0.00000E+000	10	...........	1583.63
	147	1.47	5.55222E-001	1.22971E-003	0.00000E+000	3.70030E-001	0.00000E+000	10	...........	1583.63
	148	1.48	5.57393E-001	1.22976E-003	0.00000E+000	3.70030E-001	0.00000E+000	10	...........	1583.63
	149	1.49	5.59532E-001	1.22975E-003	0.00000E+000	3.70030E-001	0.00000E+000	10	...........	1583.63
	150	1.5	5.61700E-001	1.22975E-003	0.00000E+000	3.70030E-001	0.00000E+000	10	...........	1583.63
	151	1.51	5.63859E-001	1.22970E-003	0.00000E+000	3.70030E-001	0.00000E+000	10	...........	1583.63
	152	1.52	5.66036E-001	1.22973E-003	0.00000E+000	3.70030E-001	0.00000E+000	10	...........	1583.25
	153	1.53	5.68200E-001	1.22976E-003	0.00000E+000	3.70030E-001	0.00000E+000	10	...........	1583.25
	154	1.54	5.70348E-001	1.22974E-003	0.00000E+000	3.70030E-001	0.00000E+000	10	...........	1583.25
	155	1.55	5.72518E-001	1.22974E-003	0.00000E+000	3.70030E-001	0.00000E+000	10	...........	1583.25
	156	1.56	5.74657E-001	1.22969E-003	0.00000E+000	3.70030E-001	0.00000E+000	10	...........	1583.25
	157	1.57	5.76828E-001	1.22974E-003	0.00000E+000	3.70030E-001	0.00000E+000	10	...........	1583.25
	158	1.58	5.78989E-001	1.22974E-003	0.00000E+000	3.70030E-001	0.00000E+000	10	...........	1583.25
	159	1.59	5.81148E-001	1.22975E-003	0.00000E+000	3.70030E-001	0.00000E+000	10	...........	1583.25
	160	1.6	5.83299E-001	1.22977E-003	0.00000E+000	3.70030E-001	0.00000E+000	10	...........	1583.25
	161	1.61	5.85443E-001	1.22981E-003	0.00000E+000	3.70030E-001	0.00000E+000	10	...........	1583.25
	162	1.62	5.87616E-001	1.22976E-003	0.00000E+000	3.70030E-001	0.00000E+000	10	...........	1583.25
	163	1.63	5.89805E-001	1.22981E-003	0.00000E+000	3.70030E-001	0.00000E+000	10	...........	1583.25
	164	1.64	5.91935E-001	1.22979E-003	0.00000E+000	3.70030E-001	0.00000E+000	10	...........	1583.25
	165	1.65	5.94087E-001	1.22974E-003	0.00000E+000	3.70030E-001	0.00000E+000	10	...........	1583.25
	166	1.66	5.96230E-001	1.22970E-003	0.00000E+000	3.70030E-001	0.00000E+000	10	...........	1583.25
	167	1.67	5.98358E-001	1.22966E-003	0.00000E+000	3.70030E-001	0.00000E+000	10	...........	1583.25
	168	1.68	6.00518E-001	1.22969E-003	0.00000E+000	3.70030E-001	0.00000E+000	10	...........	1583.25
	169	1.69	6.02688E-001	1.22970E-003	0.00000E+000	3.70030E-001	0.00000E+000	10	...........	1583.25
	170	1.7	6.04834E-001	1.22974E-003	0.00000E+000	3.70030E-001	0.00000E+000	10	...........	1583.25
	171	1.71	6.06962E-001	1.22973E-003	0.00000E+000	3.70030E-001	0.00000E+000	10	...........	1583.25
	172	1.72	6.09115E-001	1.22974E-003	0.00000E+000	3.70030E-001	0.00000E+000	10	...........	1583.25
	173	1.73	6.11237E-001	1.22977E-003	0.00000E+000	3.70030E-001	0.00000E+000	10	...........	1583.25
	174	1.74	6.13406E-001	1.22978E-003	0.00000E+000	3.70030E-001	0.00000E+000	10	...........	1583.25
	175	1.75	6.15573E-001	1.22977E-003	0.00000E+000	3.70030E-001	0.00000E+000	10	...........	1583.25
	176	1.76	6.17687E-001	1.22975E-003	0.00000E+000	3.70030E-001	0.00000E+000	10	...........	1583.25
	177	1.77	6.19816E-001	1.22975E-003	0.00000E+000	3.70030E-001	0.00000E+000	10	...........	1583.25
	178	1.78	6.21957E-001	1.22973E-003	0.00000E+000	3.70030E-001	0.00000E+000	10	...........	1583.25
	179	1.79	6.24070E-001	1.22976E-003	0.00000E+000	3.70030E-001	0.00000E+000	10	...........	1583.25
	180	1.8	6.26221E-001	1.22977E-003	0.00000E+000	3.70030E-001	0.00000E+000	10	...........	1583.25
	181	1.81	6.28360E-001	1.22982E-003	0.00000E+000	3.70030E-001	0.00000E+000	10	...........	1583.25
	182	1.82	6.30488E-001	1.22978E-003	0.00000E+000	3.70030E-001	0.00000E+000	10	...........	1583.25
	183	1.83	6.32612E-001	1.22977E-003	0.00000E+000	3.70030E-001	0.00000E+000	10	...........	1583.25
	184	1.84	6.34723E-001	1.22970E-003	0.00000E+000	3.70030E-001	0.00000E+000	10	...........	1583.25
	185	1.85	6.36842E-001	1.22972E-003	0.00000E+000	3.70030E-001	0.00000E+000	10	...........	1583.25
	186	1.86	6.38963E-001	1.22975E-003	0.00000E+000	3.70030E-001	0.00000E+000	10	...........	1583.25
	187	1.87	6.41118E-001	1.22981E-003	0.00000E+000	3.70030E-001	0.00000E+000	10	...........	1583.25
	188	1.88	6.43234E-001	1.22979E-003	0.00000E+000	3.70030E-001	0.00000E+000	10	...........	1583.25
	189	1.89	6.45318E-001	1.22972E-003	0.00000E+000	3.70030E-001	0.00000E+000	10	...........	1583.25
	190	1.9	6.47424E-001	1.22974E-003	0.00000E+000	3.70030E-001	0.00000E+000	10	...........	1583.25
	191	1.91	6.49540E-001	1.22976E-003	0.00000E+000	3.70030E-001	0.00000E+000	10	...........	1583.25
	192	1.92	6.51632E-001	1.22976E-003	0.00000E+000	3.70030E-001	0.00000E+000	10	...........	1583.25
	193	1.93	6.53757E-001	1.22977E-003	0.00000E+000	3.70030E-001	0.00000E+000	10	...........	1583.25
	194	1.94	6.55830E-001	1.22978E-003	0.00000E+000	3.70030E-001	0.00000E+000	10	...........	1583.25
	195	1.95	6.57944E-001	1.22974E-003	0.00000E+000	3.70030E-001	0.00000E+000	10	...........	1583.25
	196	1.96	6.60048E-001	1.22979E-003	0.00000E+000	3.70030E-001	0.00000E+000	10	...........	1583.25
	197	1.97	6.62137E-001	1.22980E-003	0.00000E+000	3.70030E-001	0.00000E+000	10	...........	1583.25
	198	1.98	6.64231E-001	1.22986E-003	0.00000E+000	3.70030E-001	0.00000E+000	10	...........	1583.25
	199	1.99	6.66337E-001	1.22983E-003	0.00000E+000	3.70030E-001	0.00000E+000	10	...........	1583.25
	200	2	6.68435E-001	1.22978E-003	0.00000E+000	3.70030E-001	0.00000E+000	10	...........	1583.25
	201	2.01	6.70515E-001	1.22981E-003	0.00000E+000	3.70030E-001	0.00000E+000	10	...........	1583.25
	202	2.02	6.72589E-001	1.22979E-003	0.00000E+000	3.70030E-001	0.00000E+000	10	...........	1583.25
	203	2.03	6.74616E-001	1.22972E-003	0.00000E+000	3.70030E-001	0.00000E+000	10	...........	1583.25
	204	2.04	6.76684E-001	1.22974E-003	0.00000E+000	3.70030E-001	0.00000E+000	10	...........	1583.25
	205	2.05	6.78764E-001	1.22970E-003	0.00000E+000	3.70030E-001	0.00000E+000	10	...........	1583.25
	206	2.06	6.80835E-001	1.22972E-003	0.00000E+000	3.70030E-001	0.00000E+000	10	...........	1583.25
	207	2.07	6.82896E-001	1.22977E-003	0.00000E+000	3.70030E-001	0.00000E+000	10	...........	1583.25
	208	2.08	6.84937E-001	1.22976E-003	0.00000E+000	3.70030E-001	0.00000E+000	10	...........	1583.25
	209	2.09	6.86988E-001	1.22978E-003	0.00000E+000	3.70030E-001	0.00000E+000	10	...........	1583.25
	210	2.1	6.89052E-001	1.22980E-003	0.00000E+000	3.70030E-001	0.00000E+000	10	...........	1583.25
	211	2.11	6.91076E-001	1.22976E-003	0.00000E+000	3.70030E-001	0.00000E+000	10	...........	1583.25
	212	2.12	6.93128E-001	1.22978E-003	0.00000E+000	3.70030E-001	0.00000E+000	10	...........	1583.25
	213	2.13	6.95166E-001	1.22974E-003	0.00000E+000	3.70030E-001	0.00000E+000	10	...........	1583.25
	214	2.14	6.97178E-001	1.22976E-003	0.00000E+000	3.70030E-001	0.00000E+000	10	...........	1583.25
	215	2.15	6.99236E-001	1.22976E-003	0.00000E+000	3.70030E-001	0.00000E+000	10	...........	1583.25
	216	2.16	7.01237E-001	1.22973E-003	0.00000E+000	3.70030E-001	0.00000E+000	10	...........	1583.25
	217	2.17	7.03222E-001	1.22974E-003	0.00000E+000	3.70030E-001	0.00000E+000	10	...........	1583.25
	218	2.18	7.05267E-001	1.22973E-003	0.00000E+000	3.70030E-001	0.00000E+000	10	...........	1583.25
	219	2.19	7.07282E-001	1.22973E-003	0.00000E+000	3.70030E-001	0.00000E+000	10	...........	1583.25
	220	2.2	7.09262E-001	1.22971E-003	0.00000E+000	3.70030E-001	0.00000E+000	10	...........	1583.25
	221	2.21	7.11270E-001	1.22973E-003	0.00000E+000	3.70030E-001	0.00000E+000	10	...........	1583.25
	222	2.22	7.13271E-001	1.22980E-003	0.00000E+000	3.70030E-001	0.00000E+000	10	...........	1583.25
	223	2.23	7.15236E-001	1.22975E-003	0.00000E+000	3.70030E-001	0.00000E+000	10	...........	1583.25
	224	2.24	7.17231E-001	1.22973E-003	0.00000E+000	3.70030E-001	0.00000E+000	10	...........	1583.25
	225	2.25	7.19229E-001	1.22971E-003	0.00000E+000	3.70030E-001	0.00000E+000	10	...........	1583.25
	226	2.26	7.21178E-001	1.22973E-003	0.00000E+000	3.70030E-001	0.00000E+000	10	...........	1583.25
	227	2.27	7.23146E-001	1.22974E-003	0.00000E+000	3.70030E-001	0.00000E+000	10	...........	1583.25
	228	2.28	7.25127E-001	1.22979E-003	0.00000E+000	3.70030E-001	0.00000E+000	10	...........	1583.25
	229	2.29	7.27082E-001	1.22976E-003	0.00000E+000	3.70030E-001	0.00000E+000	10	...........	1583.25
	230	2.3	7.29016E-001	1.22976E-003	0.00000E+000	3.70030E-001	0.00000E+000	10	...........	1583.25
	231	2.31	7.30963E-001	1.22969E-003	0.00000E+000	3.70030E-001	0.00000E+000	10	...........	1583.25
	232	2.32	7.32881E-001	1.22972E-003	0.00000E+000	3.70030E-001	0.00000E+000	10	...........	1583.25
	233	2.33	7.34812E-001	1.22970E-003	0.00000E+000	3.70030E-001	0.00000E+000	10	...........	1583.25
	234	2.34	7.36760E-001	1.22972E-003	0.00000E+000	3.70030E-001	0.00000E+000	10	...........	1583.25
	235	2.35	7.38663E-001	1.22974E-003	0.00000E+000	3.70030E-001	0.00000E+000	10	...........	1583.25
	236	2.36	7.40568E-001	1.22975E-003	0.00000E+000	3.70030E-001	0.00000E+000	10	...........	1583.25
	237	2.37	7.42472E-001	1.22979E-003	0.00000E+000	3.70030E-001	0.00000E+000	10	...........	1583.25
	238	2.38	7.44404E-001	1.22981E-003	0.00000E+000	3.70030E-001	0.00000E+000	10	...........	1583.25
	239	2.39	7.46299E-001	1.22977E-003	0.00000E+000	3.70030E-001	0.00000E+000	10	...........	1583.25
	240	2.4	7.48159E-001	1.22976E-003	0.00000E+000	3.70030E-001	0.00000E+000	10	...........	1583.25
	241	2.41	7.50056E-001	1.22977E-003	0.00000E+000	3.70030E-001	0.00000E+000	10	...........	1583.25
	242	2.42	7.51918E-001	1.22973E-003	0.00000E+000	3.70030E-001	0.00000E+000	10	...........	1583.25
	243	2.43	7.53778E-001	1.22974E-003	0.00000E+000	3.70030E-001	0.00000E+000	10	...........	1583.25
	244	2.44	7.55653E-001	1.22976E-003	0.00000E+000	3.70030E-001	0.00000E+000	10	...........	1583.25
	245	2.45	7.57506E-001	1.22977E-003	0.00000E+000	3.70030E-001	0.00000E+000	10	...........	1583.25
	246	2.46	7.59358E-001	1.22984E-003	0.00000E+000	3.70030E-001	0.00000E+000	10	...........	1583.25
	247	2.47	7.61181E-001	1.22977E-003	0.00000E+000	3.70030E-001	0.00000E+000	10	...........	1583.25
	248	2.48	7.63007E-001	1.22976E-003	0.00000E+000	3.70030E-001	0.00000E+000	10	...........	1583.25
	249	2.49	7.64830E-001	1.22978E-003	0.00000E+000	3.70030E-001	0.00000E+000	10	...........	1583.25
	250	2.5	7.66651E-001	1.22978E-003	0.00000E+000	3.70030E-001	0.00000E+000	10	...........	1583.25
	251	2.51	7.68479E-001	1.22976E-003	0.00000E+000	3.70030E-001	0.00000E+000	10	...........	1583.25
	252	2.52	7.70290E-001	1.22976E-003	0.00000E+000	3.70030E-001	0.00000E+000	10	...........	1583.15
	253	2.53	7.72083E-001	1.22975E-003	0.00000E+000	3.70030E-001	0.00000E+000	10	...........	1583.15
	254	2.54	7.73867E-001	1.22969E-003	0.00000E+000	3.70030E-001	0.00000E+000	10	...........	1583.15
	255	2.55	7.75632E-001	1.22975E-003	0.00000E+000	3.70030E-001	0.00000E+000	10	...........	1583.15
	256	2.56	7.77403E-001	1.22975E-003	0.00000E+000	3.70030E-001	0.00000E+000	10	...........	1583.15
	257	2.57	7.79167E-001	1.22982E-003	0.00000E+000	3.70030E-001	0.00000E+000	10	...........	1583.15
	258	2.58	7.80925E-001	1.22976E-003	0.00000E+000	3.70030E-001	0.00000E+000	10	...........	1583.15
	259	2.59	7.82687E-001	1.22978E-003	0.00000E+000	3.70030E-001	0.00000E+000	10	...........	1583.15
	260	2.6	7.84410E-001	1.22979E-003	0.00000E+000	3.70030E-001	0.00000E+000	10	...........	1583.15
	261	2.61	7.86159E-001	1.22977E-003	0.00000E+000	3.70030E-001	0.00000E+000	10	...........	1583.15
	262	2.62	7.87888E-001	1.22977E-003	0.00000E+000	3.70030E-001	0.00000E+000	10	...........	1583.15
	263	2.63	7.89591E-001	1.22979E-003	0.00000E+000	3.70030E-001	0.00000E+000	10	...........	1583.15
	264	2.64	7.91299E-001	1.22979E-003	0.00000E+000	3.70030E-001	0.00000E+000	10	...........	1583.15
	265	2.65	7.92986E-001	1.22979E-003	0.00000E+000	3.70030E-001	0.00000E+000	10	...........	1583.15
	266	2.66	7.94689E-001	1.22981E-003	0.00000E+000	3.70030E-001	0.00000E+000	10	...........	1583.15
	267	2.67	7.96378E-001	1.22973E-003	0.00000E+000	3.70030E-001	0.00000E+000	10	...........	1583.15
	268	2.68	7.98061E-001	1.22980E-003	0.00000E+000	3.70030E-001	0.00000E+000	10	...........	1583.15
	269	2.69	7.99707E-001	1.22981E-003	0.00000E+000	3.70030E-001	0.00000E+000	10	...........	1583.15
	270	2.7	8.01358E-001	1.22977E-003	0.00000E+000	3.70030E-001	0.00000E+000	10	...........	1583.15
	271	2.71	8.03007E-001	1.22980E-003	0.00000E+000	3.70030E-001	0.00000E+000	10	...........	1583.15
	272	2.72	8.04643E-001	1.22982E-003	0.00000E+000	3.70030E-001	0.00000E+000	10	...........	1583.15
	273	2.73	7.78818E-001	-1.22971E-003	0.00000E+000	-3.70030E-001	0.00000E+000	10	...........	1583.15
	274	2.74	7.74025E-001	-1.22983E-003	0.00000E+000	-3.70030E-001	0.00000E+000	10	...........	1583.15
	275	2.75	7.69998E-001	-1.22980E-003	0.00000E+000	-3.70030E-001	0.00000E+000	10	...........	1583.15
	276	2.76	7.66288E-001	-1.22981E-003	0.00000E+000	-3.70030E-001	0.00000E+000	10	...........	1583.15
	277	2.77	7.62835E-001	-1.22984E-003	0.00000E+000	-3.70030E-001	0.00000E+000	10	...........	1583.15
	278	2.78	7.59511E-001	-1.22983E-003	0.00000E+000	-3.70030E-001	0.00000E+000	10	...........	1583.15
	279	2.79	7.56313E-001	-1.22985E-003	0.00000E+000	-3.70030E-001	0.00000E+000	10	...........	1583.15
	280	2.8	7.53163E-001	-1.22988E-003	0.00000E+000	-3.70030E-001	0.00000E+000	10	...........	1583.15
	281	2.81	7.50109E-001	-1.22988E-003	0.00000E+000	-3.70030E-001	0.00000E+000	10	...........	1583.15
	282	2.82	7.47098E-001	-1.22991E-003	0.00000E+000	-3.70030E-001	0.00000E+000	10	...........	1583.15
	283	2.83	7.44128E-001	-1.22990E-003	0.00000E+000	-3.70030E-001	0.00000E+000	10	...........	1583.15
	284	2.84	7.41162E-001	-1.22988E-003	0.00000E+000	-3.70030E-001	0.00000E+000	10	...........	1583.15
	285	2.85	7.38279E-001	-1.22989E-003	0.00000E+000	-3.70030E-001	0.00000E+000	10	...........	1583.15
	286	2.86	7.35390E-001	-1.22992E-003	0.00000E+000	-3.70030E-001	0.00000E+000	10	...........	1583.15
	287	2.87	7.32560E-001	-1.22992E-003	0.00000E+000	-3.70030E-001	0.00000E+000	10	...........	1583.15
	288	2.88	7.29717E-001	-1.22991E-003	0.00000E+000	-3.70030E-001	0.00000E+000	10	...........	1583.15
	289	2.89	7.26908E-001	-1.22992E-003	0.00000E+000	-3.70030E-001	0.00000E+000	10	...........	1583.15
	290	2.9	7.24134E-001	-1.22996E-003	0.00000E+000	-3.70030E-001	0.00000E+000	10	...........	1583.15
	291	2.91	7.21351E-001	-1.22988E-003	0.00000E+000	-3.70030E-001	0.00000E+000	10	...........	1583.15
	292	2.92	7.18606E-001	-1.22992E-003	0.00000E+000	-3.70030E-001	0.00000E+000	10	...........	1583.15
	293	2.93	7.15801E-001	-1.22996E-003	0.00000E+000	-3.70030E-001	0.00000E+000	10	...........	1583.15
	294	2.94	7.13071E-001	-1.22995E-003	0.00000E+000	-3.70030E-001	0.00000E+000	10	...........	1583.15
	295	2.95	7.10339E-001	-1.22999E-003	0.00000E+000	-3.70030E-001	0.00000E+000	10	...........	1583.15
	296	2.96	7.07643E-001	-1.22994E-003	0.00000E+000	-3.70030E-001	0.00000E+000	10	...........	1583.15
	297	2.97	7.04934E-001	-1.22992E-003	0.00000E+000	-3.70030E-001	0.00000E+000	10	...........	1583.15
	298	2.98	7.02210E-001	-1.22993E-003	0.00000E+000	-3.70030E-001	0.00000E+000	10	...........	1583.15
	299	2.99	6.99509E-001	-1.22993E-003	0.00000E+000	-3.70030E-001	0.00000E+000	10	...........	1583.15
	300	3	6.96819E-001	-1.23000E-003	0.00000E+000	-3.70030E-001	0.00000E+000	10	...........	1583.15
	301	3.01	6.94148E-001	-1.23000E-003	0.00000E+000	-3.70030E-001	0.00000E+000	10	...........	1583.15
	302	3.02	6.91443E-001	-1.22998E-003	0.00000E+000	-3.70030E-001	0.00000E+000	10	...........	1583.15
	303	3.03	6.88793E-001	-1.22993E-003	0.00000E+000	-3.70030E-001	0.00000E+000	10	...........	1583.15
	304	3.04	6.86115E-001	-1.22998E-003	0.00000E+000	-3.70030E-001	0.00000E+000	10	...........	1583.15
	305	3.05	6.83465E-001	-1.23000E-003	0.00000E+000	-3.70030E-001	0.00000E+000	10	...........	1583.15
	306	3.06	6.80808E-001	-1.22992E-003	0.00000E+000	-3.70030E-001	0.00000E+000	10	...........	1583.15
	307	3.07	6.78142E-001	-1.22999E-003	0.00000E+000	-3.70030E-001	0.00000E+000	10	...........	1583.15
	308	3.08	6.75515E-001	-1.22994E-003	0.00000E+000	-3.70030E-001	0.00000E+000	10	...........	1583.15
	309	3.09	6.72865E-001	-1.22998E-003	0.00000E+000	-3.70030E-001	0.00000E+000	10	...........	1583.15
	310	3.1	6.70249E-001	-1.22995E-003	0.00000E+000	-3.70030E-001	0.00000E+000	10	...........	1583.15
	311	3.11	6.67615E-001	-1.22997E-003	0.00000E+000	-3.70030E-001	0.00000E+000	10	...........	1583.15
	312	3.12	6.64967E-001	-1.22998E-003	0.00000E+000	-3.70030E-001	0.00000E+000	10	...........	1583.15
	313	3.13	6.62339E-001	-1.23001E-003	0.00000E+000	-3.70030E-001	0.00000E+000	10	...........	1583.15
	314	3.14	6.59737E-001	-1.23001E-003	0.00000E+000	-3.70030E-001	0.00000E+000	10	...........	1583.15
	315	3.15	6.57113E-001	-1.23001E-003	0.00000E+000	-3.70030E-001	0.00000E+000	10	...........	1583.15
	316	3.16	6.54520E-001	-1.22997E-003	0.00000E+000	-3.70030E-001	0.00000E+000	10	...........	1583.15
	317	3.17	6.51898E-001	-1.22998E-003	0.00000E+000	-3.70030E-001	0.00000E+000	10	...........	1583.15
	318	3.18	6.49308E-001	-1.22996E-003	0.00000E+000	-3.70030E-001	0.00000E+000	10	...........	1583.15
	319	3.19	6.46719E-001	-1.23001E-003	0.00000E+000	-3.70030E-001	0.00000E+000	10	...........	1583.15
	320	3.2	6.44106E-001	-1.23005E-003	0.00000E+000	-3.70030E-001	0.00000E+000	10	...........	1583.15
	321	3.21	6.41529E-001	-1.23002E-003	0.00000E+000	-3.70030E-001	0.00000E+000	10	...........	1583.15
	322	3.22	6.38923E-001	-1.23002E-003	0.00000E+000	-3.70030E-001	0.00000E+000	10	...........	1583.15
	323	3.23	6.36326E-001	-1.22997E-003	0.00000E+000	-3.70030E-001	0.00000E+000	10	...........	1583.15
	324	3.24	6.33765E-001	-1.22998E-003	0.00000E+000	-3.70030E-001	0.00000E+000	10	...........	1583.15
	325	3.25	6.31192E-001	-1.22998E-003	0.00000E+000	-3.70030E-001	0.00000E+000	10	...........	1583.15
	326	3.26	6.28625E-001	-1.23003E-003	0.00000E+000	-3.70030E-001	0.00000E+000	10	...........	1583.15
	327	3.27	6.26053E-001	-1.22997E-003	0.00000E+000	-3.70030E-001	0.00000E+000	10	...........	1583.15
	328	3.28	6.23497E-001	-1.22998E-003	0.00000E+000	-3.70030E-001	0.00000E+000	10	...........	1583.15
	329	3.29	6.20950E-001	-1.23001E-003	0.00000E+000	-3.70030E-001	0.00000E+000	10	...........	1583.15
	330	3.3	6.18407E-001	-1.22999E-003	0.00000E+000	-3.70030E-001	0.00000E+000	10	...........	1583.15
	331	3.31	6.15855E-001	-1.23005E-003	0.00000E+000	-3.70030E-001	0.00000E+000	10	...........	1583.15
	332	3.32	6.13273E-001	-1.23001E-003	0.00000E+000	-3.70030E-001	0.00000E+000	10	...........	1583.15
	333	3.33	6.10737E-001	-1.23002E-003	0.00000E+000	-3.70030E-001	0.00000E+000	10	...........	1583.15
	334	3.34	6.08214E-001	-1.22999E-003	0.00000E+000	-3.70030E-001	0.00000E+000	10	...........	1583.15
	335	3.35	6.05681E-001	-1.23000E-003	0.00000E+000	-3.70030E-001	0.00000E+000	10	...........	1583.15
	336	3.36	6.03175E-001	-1.22999E-003	0.00000E+000	-3.70030E-001	0.00000E+000	10	...........	1583.15
	337	3.37	6.00636E-001	-1.23000E-003	0.00000E+000	-3.70030E-001	0.00000E+000	10	...........	1583.15
	338	3.38	5.98121E-001	-1.23000E-003	0.00000E+000	-3.70030E-001	0.00000E+000	10	...........	1583.15
	339	3.39	5.95625E-001	-1.22998E-003	0.00000E+000	-3.70030E-001	0.00000E+000	10	...........	1583.15
	340	3.4	5.93113E-001	-1.23001E-003	0.00000E+000	-3.70030E-001	0.00000E+000	10	...........	1583.15
	341	3.41	5.90615E-001	-1.22998E-003	0.00000E+000	-3.70030E-001	0.00000E+000	10	...........	1583.15
	342	3.42	5.88074E-001	-1.22996E-003	0.00000E+000	-3.70030E-001	0.00000E+000	10	...........	1583.15
	343	3.43	5.85595E-001	-1.22998E-003	0.00000E+000	-3.70030E-001	0.00000E+000	10	...........	1583.15
	344	3.44	5.83096E-001	-1.22999E-003	0.00000E+000	-3.70030E-001	0.00000E+000	10	...........	1583.15
	345	3.45	5.80622E-001	-1.22999E-003	0.00000E+000	-3.70030E-001	0.00000E+000	10	...........	1583.15
	346	3.46	5.78107E-001	-1.23004E-003	0.00000E+000	-3.70030E-001	0.00000E+000	10	...........	1583.15
	347	3.47	5.75610E-001	-1.23001E-003	0.00000E+000	-3.70030E-001	0.00000E+000	10	...........	1583.15
	348	3.48	5.73143E-001	-1.23001E-003	0.00000E+000	-3.70030E-001	0.00000E+000	10	...........	1583.15
	349	3.49	5.70670E-001	-1.23005E-003	0.00000E+000	-3.70030E-001	0.00000E+000	10	...........	1583.15
	350	3.5	5.68196E-001	-1.23004E-003	0.00000E+000	-3.70030E-001	0.00000E+000	10	...........	1583.15
	351	3.51	5.65741E-001	-1.23007E-003	0.00000E+000	-3.70030E-001	0.00000E+000	10	...........	1583.15
	352	3.52	5.63250E-001	-1.23004E-003	0.00000E+000	-3.70030E-001	0.00000E+000	10	...........	1583.05
	353	3.53	5.60800E-001	-1.23004E-003	0.00000E+000	-3.70030E-001	0.00000E+000	10	...........	1583.05
	354	3.54	5.58347E-001	-1.23003E-003	0.00000E+000	-3.70030E-001	0.00000E+000	10	...........	1583.05
	355	3.55	5.55913E-001	-1.23007E-003	0.00000E+000	-3.70030E-001	0.00000E+000	10	...........	1583.05
	356	3.56	5.53465E-001	-1.23002E-003	0.00000E+000	-3.70030E-001	0.00000E+000	10	...........	1583.05
	357	3.57	5.51049E-001	-1.23004E-003	0.00000E+000	-3.70030E-001	0.00000E+000	10	...........	1583.05
	358	3.58	5.48602E-001	-1.22997E-003	0.00000E+000	-3.70030E-001	0.00000E+000	10	...........	1583.05
	359	3.59	5.46172E-001	-1.23003E-003	0.00000E+000	-3.70030E-001	0.00000E+000	10	...........	1583.05
	360	3.6	5.43739E-001	-1.23005E-003	0.00000E+000	-3.70030E-001	0.00000E+000	10	...........	1583.05
	361	3.61	5.41319E-001	-1.23006E-003	0.00000E+000	-3.70030E-001	0.00000E+000	10	...........	1583.05
	362	3.62	5.38922E-001	-1.23006E-003	0.00000E+000	-3.70030E-001	0.00000E+000	10	...........	1583.05
	363	3.63	5.36488E-001	-1.23003E-003	0.00000E+000	-3.70030E-001	0.00000E+000	10	...........	1583.05
	364	3.64	5.34071E-001	-1.23002E-003	0.00000E+000	-3.70030E-001	0.00000E+000	10	...........	1583.05
	365	3.65	5.31686E-001	-1.23000E-003	0.00000E+000	-3.70030E-001	0.00000E+000	10	...........	1583.05
	366	3.66	5.29291E-001	-1.23001E-003	0.00000E+000	-3.70030E-001	0.00000E+000	10	...........	1583.05
	367	3.67	5.26895E-001	-1.23001E-003	0.00000E+000	-3.70030E-001	0.00000E+000	10	...........	1583.05
	368	3.68	5.24489E-001	-1.22998E-003	0.00000E+000	-3.70030E-001	0.00000E+000	10	...........	1583.05
	369	3.69	5.22120E-001	-1.22999E-003	0.00000E+000	-3.70030E-001	0.00000E+000	10	...........	1583.05
	370	3.7	5.19741E-001	-1.22999E-003	0.00000E+000	-3.70030E-001	0.00000E+000	10	...........	1583.05
	371	3.71	5.17351E-001	-1.23001E-003	0.00000E+000	-3.70030E-001	0.00000E+000	10	...........	1583.05
	372	3.72	5.14987E-001	-1.22998E-003	0.00000E+000	-3.70030E-001	0.00000E+000	10	...........	1583.05
	373	3.73	5.12634E-001	-1.22996E-003	0.00000E+000	-3.70030E-001	0.00000E+000	10	...........	1583.05
	374	3.74	5.10222E-001	-1.23000E-003	0.00000E+000	-3.70030E-001	0.00000E+000	10	...........	1583.05
	375	3.75	5.07860E-001	-1.23000E-003	0.00000E+000	-3.70030E-001	0.00000E+000	10	...........	1583.05
	376	3.76	5.05524E-001	-1.22996E-003	0.00000E+000	-3.70030E-001	0.00000E+000	10	...........	1583.05
	377	3.77	5.03181E-001	-1.23000E-003	0.00000E+000	-3.70030E-001	0.00000E+000	10	...........	1583.05
	378	3.78	5.00825E-001	-1.22998E-003	0.00000E+000	-3.70030E-001	0.00000E+000	10	...........	1583.05
	379	3.79	4.98476E-001	-1.22998E-003	0.00000E+000	-3.70030E-001	0.00000E+000	10	...........	1583.05
	380	3.8	4.96130E-001	-1.22998E-003	0.00000E+000	-3.70030E-001	0.00000E+000	10	...........	1583.05
	381	3.81	4.93789E-001	-1.23001E-003	0.00000E+000	-3.70030E-001	0.00000E+000	10	...........	1583.05
	382	3.82	4.91475E-001	-1.22996E-003	0.00000E+000	-3.70030E-001	0.00000E+000	10	...........	1583.05
	383	3.83	4.89139E-001	-1.23000E-003	0.00000E+000	-3.70030E-001	0.00000E+000	10	...........	1583.05
	384	3.84	4.86826E-001	-1.22995E-003	0.00000E+000	-3.70030E-001	0.00000E+000	10	...........	1583.05
	385	3.85	4.84473E-001	-1.22996E-003	0.00000E+000	-3.70030E-001	0.00000E+000	10	...........	1583.05
	386	3.86	4.82183E-001	-1.23002E-003	0.00000E+000	-3.70030E-001	0.00000E+000	10	...........	1583.05
	387	3.87	4.79851E-001	-1.22999E-003	0.00000E+000	-3.70030E-001	0.00000E+000	10	...........	1583.05
	388	3.88	4.77557E-001	-1.22996E-003	0.00000E+000	-3.70030E-001	0.00000E+000	10	...........	1583.05
	389	3.89	4.75270E-001	-1.22995E-003	0.00000E+000	-3.70030E-001	0.00000E+000	10	...........	1583.05
	390	3.9	4.72963E-001	-1.22992E-003	0.00000E+000	-3.70030E-001	0.00000E+000	10	...........	1583.05
	391	3.91	4.70684E-001	-1.22992E-003	0.00000E+000	-3.70030E-001	0.00000E+000	10	...........	1583.05
	392	3.92	4.68382E-001	-1.23000E-003	0.00000E+000	-3.70030E-001	0.00000E+000	10	...........	1583.05
	393	3.93	4.66072E-001	-1.23003E-003	0.00000E+000	-3.70030E-001	0.00000E+000	10	...........	1583.05
	394	3.94	4.63812E-001	-1.22998E-003	0.00000E+000	-3.70030E-001	0.00000E+000	10	...........	1583.05
	395	3.95	4.61546E-001	-1.22996E-003	0.00000E+000	-3.70030E-001	0.00000E+000	10	...........	1583.05
	396	3.96	4.59230E-001	-1.23000E-003	0.00000E+000	-3.70030E-001	0.00000E+000	10	...........	1583.05
	397	3.97	4.56960E-001	-1.23001E-003	0.00000E+000	-3.70030E-001	0.00000E+000	10	...........	1583.05
	398	3.98	4.54715E-001	-1.22998E-003	0.00000E+000	-3.70030E-001	0.00000E+000	10	...........	1583.05
	399	3.99	4.52439E-001	-1.23001E-003	0.00000E+000	-3.70030E-001	0.00000E+000	10	...........	1583.05
	400	4	4.50185E-001	-1.22999E-003	0.00000E+000	-3.70030E-001	0.00000E+000	10	...........	1583.05
	401	4.01	4.47928E-001	-1.23000E-003	0.00000E+000	-3.70030E-001	0.00000E+000	10	...........	1583.05
	402	4.02	4.45671E-001	-1.23002E-003	0.00000E+000	-3.70030E-001	0.00000E+000	10	...........	1583.05
	403	4.03	4.43423E-001	-1.23002E-003	0.00000E+000	-3.70030E-001	0.00000E+000	10	...........	1583.05
	404	4.04	4.41180E-001	-1.23003E-003	0.00000E+000	-3.70030E-001	0.00000E+000	10	...........	1583.05
	405	4.05	4.38942E-001	-1.23006E-003	0.00000E+000	-3.70030E-001	0.00000E+000	10	...........	1583.05
	406	4.06	4.36704E-001	-1.23004E-003	0.00000E+000	-3.70030E-001	0.00000E+000	10	...........	1583.05
	407	4.07	4.34437E-001	-1.22999E-003	0.00000E+000	-3.70030E-001	0.00000E+000	10	...........	1583.05
	408	4.08	4.32229E-001	-1.23000E-003	0.00000E+000	-3.70030E-001	0.00000E+000	10	...........	1583.05
	409	4.09	4.30011E-001	-1.23002E-003	0.00000E+000	-3.70030E-001	0.00000E+000	10	...........	1583.05
	410	4.1	4.27782E-001	-1.23001E-003	0.00000E+000	-3.70030E-001	0.00000E+000	10	...........	1583.05
	411	4.11	4.25583E-001	-1.22998E-003	0.00000E+000	-3.70030E-001	0.00000E+000	10	...........	1583.05
	412	4.12	4.23383E-001	-1.22995E-003	0.00000E+000	-3.70030E-001	0.00000E+000	10	...........	1583.05
	413	4.13	4.21146E-001	-1.23000E-003	0.00000E+000	-3.70030E-001	0.00000E+000	10	...........	1583.05
	414	4.14	4.18934E-001	-1.23003E-003	0.00000E+000	-3.70030E-001	0.00000E+000	10	...........	1583.05
	415	4.15	4.16740E-001	-1.23000E-003	0.00000E+000	-3.70030E-001	0.00000E+000	10	...........	1583.05
	416	4.16	4.14549E-001	-1.23000E-003	0.00000E+000	-3.70030E-001	0.00000E+000	10	...........	1583.05
	417	4.17	4.12361E-001	-1.22999E-003	0.00000E+000	-3.70030E-001	0.00000E+000	10	...........	1583.05
	418	4.18	4.10176E-001	-1.23001E-003	0.00000E+000	-3.70030E-001	0.00000E+000	10	...........	1583.05
	419	4.19	4.07952E-001	-1.23003E-003	0.00000E+000	-3.70030E-001	0.00000E+000	10	...........	1583.05
	420	4.2	4.05762E-001	-1.23002E-003	0.00000E+000	-3.70030E-001	0.00000E+000	10	...........	1583.05
	421	4.21	4.03587E-001	-1.23001E-003	0.00000E+000	-3.70030E-001	0.00000E+000	10	...........	1583.05
	422	4.22	4.01410E-001	-1.23002E-003	0.00000E+000	-3.70030E-001	0.00000E+000	10	...........	1583.05
	423	4.23	3.99234E-001	-1.23004E-003	0.00000E+000	-3.70030E-001	0.00000E+000	10	...........	1583.05
	424	4.24	3.97075E-001	-1.23002E-003	0.00000E+000	-3.70030E-001	0.00000E+000	10	...........	1583.05
	425	4.25	3.94876E-001	-1.23000E-003	0.00000E+000	-3.70030E-001	0.00000E+000	10	...........	1583.05
	426	4.26	3.92732E-001	-1.23007E-003	0.00000E+000	-3.70030E-001	0.00000E+000	10	...........	1583.05
	427	4.27	3.90559E-001	-1.22996E-003	0.00000E+000	-3.70030E-001	0.00000E+000	10	...........	1583.05
	428	4.28	3.88417E-001	-1.22996E-003	0.00000E+000	-3.70030E-001	0.00000E+000	10	...........	1583.05
	429	4.29	3.86275E-001	-1.23001E-003	0.00000E+000	-3.70030E-001	0.00000E+000	10	...........	1583.05
	430	4.3	3.84099E-001	-1.22998E-003	0.00000E+000	-3.70030E-001	0.00000E+000	10	...........	1583.05
	431	4.31	3.81943E-001	-1.23004E-003	0.00000E+000	-3.70030E-001	0.00000E+000	10	...........	1583.05
	432	4.32	3.79798E-001	-1.23004E-003	0.00000E+000	-3.70030E-001	0.00000E+000	10	...........	1583.05
	433	4.33	3.77654E-001	-1.23002E-003	0.00000E+000	-3.70030E-001	0.00000E+000	10	...........	1583.05
	434	4.34	3.75524E-001	-1.23003E-003	0.00000E+000	-3.70030E-001	0.00000E+000	10	...........	1583.05
	435	4.35	3.73408E-001	-1.23001E-003	0.00000E+000	-3.70030E-001	0.00000E+000	10	...........	1583.05
	436	4.36	3.71257E-001	-1.23000E-003	0.00000E+000	-3.70030E-001	0.00000E+000	10	...........	1583.05
	437	4.37	3.69127E-001	-1.23001E-003	0.00000E+000	-3.70030E-001	0.00000E+000	10	...........	1583.05
	438	4.38	3.67012E-001	-1.23004E-003	0.00000E+000	-3.70030E-001	0.00000E+000	10	...........	1583.05
	439	4.39	3.64893E-001	-1.23003E-003	0.00000E+000	-3.70030E-001	0.00000E+000	10	...........	1583.05
	440	4.4	3.62774E-001	-1.22995E-003	0.00000E+000	-3.70030E-001	0.00000E+000	10	...........	1583.05
	441	4.41	3.60657E-001	-1.23002E-003	0.00000E+000	-3.70030E-001	0.00000E+000	10	...........	1583.05
	442	4.42	3.58520E-001	-1.23005E-003	0.00000E+000	-3.70030E-001	0.00000E+000	10	...........	1583.05
	443	4.43	3.56411E-001	-1.23004E-003	0.00000E+000	-3.70030E-001	0.00000E+000	10	...........	1583.05
	444	4.44	3.54311E-001	-1.23002E-003	0.00000E+000	-3.70030E-001	0.00000E+000	10	...........	1583.05
	445	4.45	3.52216E-001	-1.23001E-003	0.00000E+000	-3.70030E-001	0.00000E+000	10	...........	1583.05
	446	4.46	3.50121E-001	-1.23000E-003	0.00000E+000	-3.70030E-001	0.00000E+000	10	...........	1583.05
	447	4.47	3.48030E-001	-1.23000E-003	0.00000E+000	-3.70030E-001	0.00000E+000	10	...........	1583.05
	448	4.48	3.45944E-001	-1.23006E-003	0.00000E+000	-3.70030E-001	0.00000E+000	10	...........	1583.05
	449	4.49	3.43837E-001	-1.23001E-003	0.00000E+000	-3.70030E-001	0.00000E+000	10	...........	1583.05
	450	4.5	3.41754E-001	-1.23001E-003	0.00000E+000	-3.70030E-001	0.00000E+000	10	...........	1583.05
	451	4.51	3.39690E-001	-1.22999E-003	0.00000E+000	-3.70030E-001	0.00000E+000	10	...........	1583.05
	452	4.52	3.37618E-001	-1.23002E-003	0.00000E+000	-3.70030E-001	0.00000E+000	10	...........	1583.05
	453	4.53	3.35516E-001	-1.23001E-003	0.00000E+000	-3.70030E-001	0.00000E+000	10	...........	1583.05
	454	4.54	3.33451E-001	-1.22998E-003	0.00000E+000	-3.70030E-001	0.00000E+000	10	...........	1583.05
	455	4.55	3.31360E-001	-1.22999E-003	0.00000E+000	-3.70030E-001	0.00000E+000	10	...........	1583.05
	456	4.56	3.29294E-001	-1.22996E-003	0.00000E+000	-3.70030E-001	0.00000E+000	10	...........	1583.05
	457	4.57	3.27247E-001	-1.22996E-003	0.00000E+000	-3.70030E-001	0.00000E+000	10	...........	1583.05
	458	4.58	3.25185E-001	-1.22997E-003	0.00000E+000	-3.70030E-001	0.00000E+000	10	...........	1583.05
	459	4.59	3.23107E-001	-1.22998E-003	0.00000E+000	-3.70030E-001	0.00000E+000	10	...........	1583.05
	460	4.6	3.21072E-001	-1.23001E-003	0.00000E+000	-3.70030E-001	0.00000E+000	10	...........	1583.05
	461	4.61	3.18999E-001	-1.23002E-003	0.00000E+000	-3.70030E-001	0.00000E+000	10	...........	1583.05
	462	4.62	3.16946E-001	-1.23001E-003	0.00000E+000	-3.70030E-001	0.00000E+000	10	...........	1583.05
	463	4.63	3.14926E-001	-1.23000E-003	0.00000E+000	-3.70030E-001	0.00000E+000	10	...........	1583.05
	464	4.64	3.12884E-001	-1.23001E-003	0.00000E+000	-3.70030E-001	0.00000E+000	10	...........	1583.05
	465	4.65	3.10842E-001	-1.22996E-003	0.00000E+000	-3.70030E-001	0.00000E+000	10	...........	1583.05
	466	4.66	3.08802E-001	-1.22996E-003	0.00000E+000	-3.70030E-001	0.00000E+000	10	...........	1583.05
	467	4.67	3.06750E-001	-1.22995E-003	0.00000E+000	-3.70030E-001	0.00000E+000	10	...........	1583.05
	468	4.68	3.04741E-001	-1.22997E-003	0.00000E+000	-3.70030E-001	0.00000E+000	10	...........	1583.05
	469	4.69	3.02717E-001	-1.22997E-003	0.00000E+000	-3.70030E-001	0.00000E+000	10	...........	1583.05
	470	4.7	3.00664E-001	-1.23002E-003	0.00000E+000	-3.70030E-001	0.00000E+000	10	...........	1583.05
	471	4.71	2.98659E-001	-1.23004E-003	0.00000E+000	-3.70030E-001	0.00000E+000	10	...........	1583.05
	472	4.72	2.96641E-001	-1.23001E-003	0.00000E+000	-3.70030E-001	0.00000E+000	10	...........	1583.05
	473	4.73	2.94641E-001	-1.23000E-003	0.00000E+000	-3.70030E-001	0.00000E+000	10	...........	1583.05
	474	4.74	2.92600E-001	-1.23001E-003	0.00000E+000	-3.70030E-001	0.00000E+000	10	...........	1583.05
	475	4.75	2.90602E-001	-1.23001E-003	0.00000E+000	-3.70030E-001	0.00000E+000	10	...........	1583.05
	476	4.76	2.88603E-001	-1.23000E-003	0.00000E+000	-3.70030E-001	0.00000E+000	10	...........	1583.05
	477	4.77	2.86596E-001	-1.22998E-003	0.00000E+000	-3.70030E-001	0.00000E+000	10	...........	1583.05
	478	4.78	2.84587E-001	-1.22999E-003	0.00000E+000	-3.70030E-001	0.00000E+000	10	...........	1583.05
	479	4.79	2.82619E-001	-1.22994E-003	0.00000E+000	-3.70030E-001	0.00000E+000	10	...........	1583.05
	480	4.8	2.80601E-001	-1.22999E-003	0.00000E+000	-3.70030E-001	0.00000E+000	10	...........	1583.05
	481	4.81	2.78605E-001	-1.22995E-003	0.00000E+000	-3.70030E-001	0.00000E+000	10	...........	1583.05
	482	4.82	2.76610E-001	-1.23002E-003	0.00000E+000	-3.70030E-001	0.00000E+000	10	...........	1583.05
	483	4.83	2.74629E-001	-1.23003E-003	0.00000E+000	-3.70030E-001	0.00000E+000	10	...........	1583.05
	484	4.84	2.72647E-001	-1.23003E-003	0.00000E+000	-3.70030E-001	0.00000E+000	10	...........	1583.05
	485	4.85	2.70674E-001	-1.23001E-003	0.00000E+000	-3.70030E-001	0.00000E+000	10	...........	1583.05
	486	4.86	2.68684E-001	-1.23000E-003	0.00000E+000	-3.70030E-001	0.00000E+000	10	...........	1583.05
	487	4.87	2.66717E-001	-1.23002E-003	0.00000E+000	-3.70030E-001	0.00000E+000	10	...........	1583.05
	488	4.88	2.64757E-001	-1.23000E-003	0.00000E+000	-3.70030E-001	0.00000E+000	10	...........	1583.05
	489	4.89	2.62782E-001	-1.23000E-003	0.00000E+000	-3.70030E-001	0.00000E+000	10	...........	1583.05
	490	4.9	2.60827E-001	-1.23000E-003	0.00000E+000	-3.70030E-001	0.00000E+000	10	...........	1583.05
	491	4.91	2.58857E-001	-1.22998E-003	0.00000E+000	-3.70030E-001	0.00000E+000	10	...........	1583.05
	492	4.92	2.56912E-001	-1.23000E-003	0.00000E+000	-3.70030E-001	0.00000E+000	10	...........	1583.05
	493	4.93	2.54922E-001	-1.22998E-003	0.00000E+000	-3.70030E-001	0.00000E+000	10	...........	1583.05
	494	4.94	2.52976E-001	-1.23001E-003	0.00000E+000	-3.70030E-001	0.00000E+000	10	...........	1583.05
	495	4.95	2.51031E-001	-1.23000E-003	0.00000E+000	-3.70030E-001	0.00000E+000	10	...........	1583.05
	496	4.96	2.49083E-001	-1.23002E-003	0.00000E+000	-3.70030E-001	0.00000E+000	10	...........	1583.05
	497	4.97	2.47142E-001	-1.22999E-003	0.00000E+000	-3.70030E-001	0.00000E+000	10	...........	1583.05
	498	4.98	2.45232E-001	-1.23000E-003	0.00000E+000	-3.70030E-001	0.00000E+000	10	...........	1583.05
	499	4.99	2.43298E-001	-1.22998E-003	0.00000E+000	-3.70030E-001	0.00000E+000	10	...........	1583.05
	500	5	2.41341E-001	-1.22995E-003	0.00000E+000	-3.70030E-001	0.00000E+000	10	...........	1583.05
	501	5.01	2.39432E-001	-1.23001E-003	0.00000E+000	-3.70030E-001	0.00000E+000	10	...........	1583.05
	502	5.02	2.37503E-001	-1.22996E-003	0.00000E+000	-3.70030E-001	0.00000E+000	10	...........	1583.05
	503	5.03	2.35578E-001	-1.23005E-003	0.00000E+000	-3.70030E-001	0.00000E+000	10	...........	1583.05
	504	5.04	2.33657E-001	-1.23004E-003	0.00000E+000	-3.70030E-001	0.00000E+000	10	...........	1583.05
	505	5.05	2.31743E-001	-1.23002E-003	0.00000E+000	-3.70030E-001	0.00000E+000	10	...........	1583.05
	506	5.06	2.29827E-001	-1.23001E-003	0.00000E+000	-3.70030E-001	0.00000E+000	10	...........	1583.05
	507	5.07	2.27915E-001	-1.23000E-003	0.00000E+000	-3.70030E-001	0.00000E+000	10	...........	1583.05
	508	5.08	2.26009E-001	-1.22996E-003	0.00000E+000	-3.70030E-001	0.00000E+000	10	...........	1583.05
	509	5.09	2.24110E-001	-1.22996E-003	0.00000E+000	-3.70030E-001	0.00000E+000	10	...........	1583.05
	510	5.1	2.22208E-001	-1.22998E-003	0.00000E+000	-3.70030E-001	0.00000E+000	10	...........	1583.05
	511	5.11	2.20311E-001	-1.23001E-003	0.00000E+000	-3.70030E-001	0.00000E+000	10	...........	1583.05
	512	5.12	2.18415E-001	-1.22997E-003	0.00000E+000	-3.70030E-001	0.00000E+000	10	...........	1583.05
	513	5.13	2.16522E-001	-1.23004E-003	0.00000E+000	-3.70030E-001	0.00000E+000	10	...........	1583.05
	514	5.14	2.14636E-001	-1.23005E-003	0.00000E+000	-3.70030E-001	0.00000E+000	10	...........	1583.05
	515	5.15	2.12753E-001	-1.23002E-003	0.00000E+000	-3.70030E-001	0.00000E+000	10	...........	1583.05
	516	5.16	2.10873E-001	-1.23003E-003	0.00000E+000	-3.70030E-001	0.00000E+000	10	...........	1583.05
	517	5.17	2.08993E-001	-1.23007E-003	0.00000E+000	-3.70030E-001	0.00000E+000	10	...........	1583.05
	518	5.18	2.07121E-001	-1.23006E-003	0.00000E+000	-3.70030E-001	0.00000E+000	10	...........	1583.05
	519	5.19	2.05249E-001	-1.23002E-003	0.00000E+000	-3.70030E-001	0.00000E+000	10	...........	1583.05
	520	5.2	2.03383E-001	-1.23002E-003	0.00000E+000	-3.70030E-001	0.00000E+000	10	...........	1583.05
	521	5.21	2.01520E-001	-1.23002E-003	0.00000E+000	-3.70030E-001	0.00000E+000	10	...........	1583.05
	522	5.22	1.99660E-001	-1.23002E-003	0.00000E+000	-3.70030E-001	0.00000E+000	10	...........	1583.05
	523	5.23	1.97805E-001	-1.23000E-003	0.00000E+000	-3.70030E-001	0.00000E+000	10	...........	1583.05
	524	5.24	1.95956E-001	-1.23004E-003	0.00000E+000	-3.70030E-001	0.00000E+000	10	...........	1583.05
	525	5.25	1.94104E-001	-1.23001E-003	0.00000E+000	-3.70030E-001	0.00000E+000	10	...........	1583.05
	526	5.26	1.92259E-001	-1.22999E-003	0.00000E+000	-3.70030E-001	0.00000E+000	10	...........	1583.05
	527	5.27	1.90415E-001	-1.23001E-003	0.00000E+000	-3.70030E-001	0.00000E+000	10	...........	1583.05
	528	5.28	1.88581E-001	-1.23004E-003	0.00000E+000	-3.70030E-001	0.00000E+000	10	...........	1583.05
	529	5.29	1.86746E-001	-1.23002E-003	0.00000E+000	-3.70030E-001	0.00000E+000	10	...........	1583.05
	530	5.3	1.84915E-001	-1.22999E-003	0.00000E+000	-3.70030E-001	0.00000E+000	10	...........	1583.05
	531	5.31	1.83091E-001	-1.23001E-003	0.00000E+000	-3.70030E-001	0.00000E+000	10	...........	1583.05
	532	5.32	1.81267E-001	-1.22999E-003	0.00000E+000	-3.70030E-001	0.00000E+000	10	...........	1583.05
	533	5.33	1.79450E-001	-1.22998E-003	0.00000E+000	-3.70030E-001	0.00000E+000	10	...........	1583.05
	534	5.34	1.77631E-001	-1.23001E-003	0.00000E+000	-3.70030E-001	0.00000E+000	10	...........	1583.05
	535	5.35	1.75823E-001	-1.23005E-003	0.00000E+000	-3.70030E-001	0.00000E+000	10	...........	1583.05
	536	5.36	1.74018E-001	-1.22999E-003	0.00000E+000	-3.70030E-001	0.00000E+000	10	...........	1583.05
	537	5.37	1.72212E-001	-1.23002E-003	0.00000E+000	-3.70030E-001	0.00000E+000	10	...........	1583.05
	538	5.38	1.70413E-001	-1.23004E-003	0.00000E+000	-3.70030E-001	0.00000E+000	10	...........	1583.05
	539	5.39	1.68611E-001	-1.23001E-003	0.00000E+000	-3.70030E-001	0.00000E+000	10	...........	1583.05
	540	5.4	1.66824E-001	-1.23001E-003	0.00000E+000	-3.70030E-001	0.00000E+000	10	...........	1583.05
	541	5.41	1.65039E-001	-1.23001E-003	0.00000E+000	-3.70030E-001	0.00000E+000	10	...........	1583.05
	542	5.42	1.63257E-001	-1.23002E-003	0.00000E+000	-3.70030E-001	0.00000E+000	10	...........	1583.05
	543	5.43	1.61478E-001	-1.23003E-003	0.00000E+000	-3.70030E-001	0.00000E+000	10	...........	1583.05
	544	5.44	1.59701E-001	-1.23005E-003	0.00000E+000	-3.70030E-001	0.00000E+000	10	...........	1583.05
	545	5.45	1.57930E-001	-1.23002E-003	0.00000E+000	-3.70030E-001	0.00000E+000	10	...........	1583.05
	546	5.46	1.56162E-001	-1.23007E-003	0.00000E+000	-3.70030E-001	0.00000E+000	10	...........	1583.05
	547	5.47	1.54401E-001	-1.22999E-003	0.00000E+000	-3.70030E-001	0.00000E+000	10	...........	1583.05
	548	5.48	1.52641E-001	-1.23001E-003	0.00000E+000	-3.70030E-001	0.00000E+000	10	...........	1583.05
	549	5.49	1.50885E-001	-1.23000E-003	0.00000E+000	-3.70030E-001	0.00000E+000	10	...........	1583.05
	550	5.5	1.49134E-001	-1.23001E-003	0.00000E+000	-3.70030E-001	0.00000E+000	10	...........	1583.05
	551	5.51	1.47387E-001	-1.23003E-003	0.00000E+000	-3.70030E-001	0.00000E+000	10	...........	1583.05
	552	5.52	1.45642E-001	-1.23000E-003	0.00000E+000	-3.70030E-001	0.00000E+000	10	...........	1583.15
	553	5.53	1.43906E-001	-1.23001E-003	0.00000E+000	-3.70030E-001	0.00000E+000	10	...........	1583.15
	554	5.54	1.42172E-001	-1.23000E-003	0.00000E+000	-3.70030E-001	0.00000E+000	10	...........	1583.15
	555	5.55	1.40443E-001	-1.22997E-003	0.00000E+000	-3.70030E-001	0.00000E+000	10	...........	1583.15
	556	5.56	1.38717E-001	-1.22996E-003	0.00000E+000	-3.70030E-001	0.00000E+000	10	...........	1583.15
	557	5.57	1.36993E-001	-1.23006E-003	0.00000E+000	-3.70030E-001	0.00000E+000	10	...........	1583.15
	558	5.58	1.35276E-001	-1.23004E-003	0.00000E+000	-3.70030E-001	0.00000E+000	10	...........	1583.15
	559	5.59	1.33566E-001	-1.23006E-003	0.00000E+000	-3.70030E-001	0.00000E+000	10	...........	1583.15
	560	5.6	1.31858E-001	-1.23007E-003	0.00000E+000	-3.70030E-001	0.00000E+000	10	...........	1583.15
	561	5.61	1.30150E-001	-1.23006E-003	0.00000E+000	-3.70030E-001	0.00000E+000	10	...........	1583.15
	562	5.62	1.28455E-001	-1.23005E-003	0.00000E+000	-3.70030E-001	0.00000E+000	10	...........	1583.15
	563	5.63	1.26756E-001	-1.23003E-003	0.00000E+000	-3.70030E-001	0.00000E+000	10	...........	1583.15
	564	5.64	1.25064E-001	-1.23002E-003	0.00000E+000	-3.70030E-001	0.00000E+000	10	...........	1583.15
	565	5.65	1.23381E-001	-1.23003E-003	0.00000E+000	-3.70030E-001	0.00000E+000	10	...........	1583.15
	566	5.66	1.21701E-001	-1.22997E-003	0.00000E+000	-3.70030E-001	0.00000E+000	10	...........	1583.15
	567	5.67	1.20022E-001	-1.22999E-003	0.00000E+000	-3.70030E-001	0.00000E+000	10	...........	1583.15
	568	5.68	1.18347E-001	-1.23006E-003	0.00000E+000	-3.70030E-001	0.00000E+000	10	...........	1583.15
	569	5.69	1.16676E-001	-1.23004E-003	0.00000E+000	-3.70030E-001	0.00000E+000	10	...........	1583.15
	570	5.7	1.15013E-001	-1.23013E-003	0.00000E+000	-3.70030E-001	0.00000E+000	10	...........	1583.15
	571	5.71	1.13351E-001	-1.23011E-003	0.00000E+000	-3.70030E-001	0.00000E+000	10	...........	1583.15
	572	5.72	1.11701E-001	-1.23004E-003	0.00000E+000	-3.70030E-001	0.00000E+000	10	...........	1583.15
	573	5.73	1.10049E-001	-1.23006E-003	0.00000E+000	-3.70030E-001	0.00000E+000	10	...........	1583.15
	574	5.74	1.08403E-001	-1.23000E-003	0.00000E+000	-3.70030E-001	0.00000E+000	10	...........	1583.15
	575	5.75	1.06761E-001	-1.23000E-003	0.00000E+000	-3.70030E-001	0.00000E+000	10	...........	1583.15
	576	5.76	1.05124E-001	-1.23008E-003	0.00000E+000	-3.70030E-001	0.00000E+000	10	...........	1583.15
	577	5.77	1.03491E-001	-1.23009E-003	0.00000E+000	-3.70030E-001	0.00000E+000	10	...........	1583.15
	578	5.78	1.01861E-001	-1.23004E-003	0.00000E+000	-3.70030E-001	0.00000E+000	10	...........	1583.15
	579	5.79	1.00239E-001	-1.23005E-003	0.00000E+000	-3.70030E-001	0.00000E+000	10	...........	1583.15
	580	5.8	9.86237E-002	-1.22999E-003	0.00000E+000	-3.70030E-001	0.00000E+000	10	...........	1583.15
	581	5.81	9.70073E-002	-1.23000E-003	0.00000E+000	-3.70030E-001	0.00000E+000	10	...........	1583.15
	582	5.82	9.53992E-002	-1.23005E-003	0.00000E+000	-3.70030E-001	0.00000E+000	10	...........	1583.15
	583	5.83	9.37902E-002	-1.23003E-003	0.00000E+000	-3.70030E-001	0.00000E+000	10	...........	1583.15
	584	5.84	9.21944E-002	-1.23003E-003	0.00000E+000	-3.70030E-001	0.00000E+000	10	...........	1583.15
	585	5.85	9.05913E-002	-1.23005E-003	0.00000E+000	-3.70030E-001	0.00000E+000	10	...........	1583.15
	586	5.86	8.90049E-002	-1.23002E-003	0.00000E+000	-3.70030E-001	0.00000E+000	10	...........	1583.15
	587	5.87	8.74215E-002	-1.23001E-003	0.00000E+000	-3.70030E-001	0.00000E+000	10	...........	1583.15
	588	5.88	8.58374E-002	-1.23001E-003	0.00000E+000	-3.70030E-001	0.00000E+000	10	...........	1583.15
	589	5.89	8.42594E-002	-1.22997E-003	0.00000E+000	-3.70030E-001	0.00000E+000	10	...........	1583.15
	590	5.9	8.26902E-002	-1.23000E-003	0.00000E+000	-3.70030E-001	0.00000E+000	10	...........	1583.15
	591	5.91	8.11236E-002	-1.22996E-003	0.00000E+000	-3.70030E-001	0.00000E+000	10	...........	1583.15
	592	5.92	7.95614E-002	-1.23002E-003	0.00000E+000	-3.70030E-001	0.00000E+000	10	...........	1583.15
	593	5.93	7.80035E-002	-1.23002E-003	0.00000E+000	-3.70030E-001	0.00000E+000	10	...........	1583.15
	594	5.94	7.64436E-002	-1.23002E-003	0.00000E+000	-3.70030E-001	0.00000E+000	10	...........	1583.15
	595	5.95	7.48965E-002	-1.23001E-003	0.00000E+000	-3.70030E-001	0.00000E+000	10	...........	1583.15
	596	5.96	7.33549E-002	-1.23001E-003	0.00000E+000	-3.70030E-001	0.00000E+000	10	...........	1583.15
	597	5.97	7.18128E-002	-1.23005E-003	0.00000E+000	-3.70030E-001	0.00000E+000	10	...........	1583.15
	598	5.98	7.02773E-002	-1.22999E-003	0.00000E+000	-3.70030E-001	0.00000E+000	10	...........	1583.15
	599	5.99	6.87458E-002	-1.23001E-003	0.00000E+000	-3.70030E-001	0.00000E+000	10	...........	1583.15
	600	6	6.72224E-002	-1.23003E-003	0.00000E+000	-3.70030E-001	0.00000E+000	10	...........	1583.15
	601	6.01	6.57018E-002	-1.23002E-003	0.00000E+000	-3.70030E-001	0.00000E+000	10	...........	1583.15
	602	6.02	6.41834E-002	-1.23006E-003	0.00000E+000	-3.70030E-001	0.00000E+000	10	...........	1583.15
	603	6.03	6.26722E-002	-1.23005E-003	0.00000E+000	-3.70030E-001	0.00000E+000	10	...........	1583.15
	604	6.04	6.11609E-002	-1.23008E-003	0.00000E+000	-3.70030E-001	0.00000E+000	10	...........	1583.15
	605	6.05	5.96600E-002	-1.23000E-003	0.00000E+000	-3.70030E-001	0.00000E+000	10	...........	1583.15
	606	6.06	5.81617E-002	-1.23003E-003	0.00000E+000	-3.70030E-001	0.00000E+000	10	...........	1583.15
	607	6.07	5.66724E-002	-1.22999E-003	0.00000E+000	-3.70030E-001	0.00000E+000	10	...........	1583.15
	608	6.08	5.51836E-002	-1.23001E-003	0.00000E+000	-3.70030E-001	0.00000E+000	10	...........	1583.15
	609	6.09	5.36996E-002	-1.23001E-003	0.00000E+000	-3.70030E-001	0.00000E+000	10	...........	1583.15
	610	6.1	5.22183E-002	-1.23003E-003	0.00000E+000	-3.70030E-001	0.00000E+000	10	...........	1583.15
	611	6.11	5.07402E-002	-1.23004E-003	0.00000E+000	-3.70030E-001	0.00000E+000	10	...........	1583.15
	612	6.12	4.92697E-002	-1.23002E-003	0.00000E+000	-3.70030E-001	0.00000E+000	10	...........	1583.15
	613	6.13	4.78013E-002	-1.22997E-003	0.00000E+000	-3.70030E-001	0.00000E+000	10	...........	1583.15
	614	6.14	4.63456E-002	-1.22998E-003	0.00000E+000	-3.70030E-001	0.00000E+000	10	...........	1583.15
	615	6.15	4.48909E-002	-1.22996E-003	0.00000E+000	-3.70030E-001	0.00000E+000	10	...........	1583.15
	616	6.16	4.34397E-002	-1.22998E-003	0.00000E+000	-3.70030E-001	0.00000E+000	10	...........	1583.15
	617	6.17	4.19859E-002	-1.23001E-003	0.00000E+000	-3.70030E-001	0.00000E+000	10	...........	1583.15
	618	6.18	4.05445E-002	-1.23005E-003	0.00000E+000	-3.70030E-001	0.00000E+000	10	...........	1583.15
	619	6.19	3.91051E-002	-1.23003E-003	0.00000E+000	-3.70030E-001	0.00000E+000	10	...........	1583.15
	620	6.2	3.76749E-002	-1.23002E-003	0.00000E+000	-3.70030E-001	0.00000E+000	10	...........	1583.15
	621	6.21	3.62464E-002	-1.22998E-003	0.00000E+000	-3.70030E-001	0.00000E+000	10	...........	1583.15
	622	6.22	3.48218E-002	-1.23003E-003	0.00000E+000	-3.70030E-001	0.00000E+000	10	...........	1583.15
	623	6.23	3.34057E-002	-1.23004E-003	0.00000E+000	-3.70030E-001	0.00000E+000	10	...........	1583.15
	624	6.24	3.19894E-002	-1.23000E-003	0.00000E+000	-3.70030E-001	0.00000E+000	10	...........	1583.15
	625	6.25	3.05796E-002	-1.23001E-003	0.00000E+000	-3.70030E-001	0.00000E+000	10	...........	1583.15
	626	6.26	2.91690E-002	-1.22999E-003	0.00000E+000	-3.70030E-001	0.00000E+000	10	...........	1583.15
	627	6.27	2.77670E-002	-1.23009E-003	0.00000E+000	-3.70030E-001	0.00000E+000	10	...........	1583.15
	628	6.28	2.63740E-002	-1.23005E-003	0.00000E+000	-3.70030E-001	0.00000E+000	10	...........	1583.15
	629	6.29	2.49787E-002	-1.23003E-003	0.00000E+000	-3.70030E-001	0.00000E+000	10	...........	1583.15
	630	6.3	2.35929E-002	-1.23001E-003	0.00000E+000	-3.70030E-001	0.00000E+000	10	...........	1583.15
	631	6.31	2.22146E-002	-1.23004E-003	0.00000E+000	-3.70030E-001	0.00000E+000	10	...........	1583.15
	632	6.32	2.08362E-002	-1.22996E-003	0.00000E+000	-3.70030E-001	0.00000E+000	10	...........	1583.15
	633	6.33	1.94631E-002	-1.22998E-003	0.00000E+000	-3.70030E-001	0.00000E+000	10	...........	1583.15
	634	6.34	1.80907E-002	-1.22999E-003	0.00000E+000	-3.70030E-001	0.00000E+000	10	...........	1583.15
	635	6.35	1.67283E-002	-1.23003E-003	0.00000E+000	-3.70030E-001	0.00000E+000	10	...........	1583.15
	636	6.36	1.53677E-002	-1.23000E-003	0.00000E+000	-3.70030E-001	0.00000E+000	10	...........	1583.15
	637	6.37	1.40134E-002	-1.22997E-003	0.00000E+000	-3.70030E-001	0.00000E+000	10	...........	1583.15
	638	6.38	1.26609E-002	-1.22991E-003	0.00000E+000	-3.70030E-001	0.00000E+000	10	...........	1583.15
	639	6.39	1.13140E-002	-1.22998E-003	0.00000E+000	-3.70030E-001	0.00000E+000	10	...........	1583.15
	640	6.4	9.97028E-003	-1.23004E-003	0.00000E+000	-3.70030E-001	0.00000E+000	10	...........	1583.15
	641	6.41	8.63016E-003	-1.23001E-003	0.00000E+000	-3.70030E-001	0.00000E+000	10	...........	1583.15
	642	6.42	7.29698E-003	-1.22997E-003	0.00000E+000	-3.70030E-001	0.00000E+000	10	...........	1583.15
	643	6.43	5.96824E-003	-1.23002E-003	0.00000E+000	-3.70030E-001	0.00000E+000	10	...........	1583.15
	644	6.44	4.64172E-003	-1.23006E-003	0.00000E+000	-3.70030E-001	0.00000E+000	10	...........	1583.15
	645	6.45	3.31917E-003	-1.23001E-003	0.00000E+000	-3.70030E-001	0.00000E+000	10	...........	1583.15
	646	6.46	2.00314E-003	-1.23001E-003	0.00000E+000	-3.70030E-001	0.00000E+000	10	...........	1583.15
	647	6.47	6.89084E-004	-1.23000E-003	0.00000E+000	-3.70030E-001	0.00000E+000	10	...........	1583.15
	648	6.48	-6.18633E-004	-1.23003E-003	0.00000E+000	-3.70030E-001	0.00000E+000	10	...........	1583.15
