EXPLAIN
TAG	CHRONOP
TITLE	LABEL	Chronopotentiometry Scan	Test Identifier
DATE	LABEL	22/1/2025	Date
TIME	LABEL	22:27:33	Time
NOTES	NOTES	1	Notes...
	
PSTAT	PSTAT	IFC1010-42004	Potentiostat
IPRESTEP	QUANT	0.00000E+000	Pre-step Current(A)
TPRESTEP	QUANT	0.00000E+000	Pre-step Delay Time (s)
ISTEP1	QUANT	1.23000E-003	Step 1 Current (A)
TSTEP1	QUANT	5.00000E+003	Step 1 Time (s)
ISTEP2	QUANT	-1.23000E-003	Step 2 Current (A)
TSTEP2	QUANT	5.00000E+003	Step 2 Time (s)
SAMPLETIME	QUANT	1.00000E-002	Sample Period (s)
DECIMATE	TOGGLE	F	Decimate
VLIMITLOWER	QUANT	0.00000E+000	Lower Limit V (V)
VLIMITUPPER	QUANT	8.00000E-001	Upper Limit V (V)
EQDELAY	QUANT	1.00000E+000	Equil. Time (s)
SAMPLINGMODE	SELECTOR	1	Sampling Mode
AREA	QUANT	2.00000E+000	Sample Area (cm^2)
ELECTRODETYPE	SELECTOR	0	Electrode Type
STRIPPING	TOGGLE	F	Used for Stripping
SEQUENCER	TOGGLE	TRUE	Run as Sequence
PSTATMODEL	IQUANT	64	Pstat Model
PSTATSECTION	LABEL	IFC1010-42004	Pstat Section
PSTATSERIALNO	LABEL	42004	Pstat Serial Number
CTRLMODE	IQUANT	0	Control Mode
ELECTROMETER	IQUANT	0	RE=0 or CS=1
IESTAB	IQUANT	0	I/E Stability
CASPEED	IQUANT	4	Control Amp Speed
CONVENTION	IQUANT	1	Current Convention
ICHRANGE	IQUANT	2	Ich Range
ICHRANGEMODE	TOGGLE	T	Ich Auto Range
ICHOFFSETENABLE	TOGGLE	F	Ich Offset Enable
ICHOFFSET	QUANT	0	Ich Offset (V)
ICHFILTER	IQUANT	3	Ich Filter
VCHRANGE	IQUANT	3	Vch Range
VCHRANGEMODE	TOGGLE	T	Vch Auto Range
VCHOFFSETENABLE	TOGGLE	F	Vch Offset Enable
VCHOFFSET	QUANT	0	Vch Offset (V)
VCHFILTER	IQUANT	3	Vch Filter
IERANGELOWERLIMIT	IQUANT	4	I/E Range Lower Limit
IERANGEMODE	TOGGLE	F	I/E AutoRange
IERANGE	IQUANT	11	I/E Range
ACHSELECT	IQUANT	0	Ach Select
ACHRANGE	IQUANT	2	Ach Range
ACHOFFSETENABLE	TOGGLE	F	Ach Offset Enable
ACHOFFSET	QUANT	0	Ach Offset (V)
ACHFILTER	IQUANT	1	Ach Filter
SENSECABLEID	IQUANT	14	Sense Cable ID
PWRCABLEID	IQUANT	14	Power Cable ID
DCCALDATE	LABEL	1/22/2025	DC Calibration Date
ACCALDATE	LABEL	11/15/2024	AC Calibration Date
FRAMEWORKVERSION	LABEL	7.10.4	Framework Version
INSTRUMENTVERSION	LABEL	4.91	Instrument Version
COMMVERSION	LABEL	3.10	Communications Version
CPUPLDVERSION	LABEL	2.54	CPU PLD Version
CTRLPLDVERSION	LABEL	0.00	CTRL PLD Version
PSTATPLDVERSION	LABEL	0.00	PSTAT PLD Version
CURVE	TABLE	674
	Pt	T	Vf	Im	Vu	Sig	Ach	IERange	Over	Temp
	#	s	V vs. Ref.	A	V	V	V	#	bits	deg C
	0	0	2.30417E-001	-8.32435E-008	0.00000E+000	0.00000E+000	0.00000E+000	10	...........	1583.05
	1	0.01	2.42889E-001	1.22963E-003	0.00000E+000	3.70030E-001	0.00000E+000	10	...........	1583.05
	2	0.02	2.45468E-001	1.22967E-003	0.00000E+000	3.70030E-001	0.00000E+000	10	...........	1583.05
	3	0.03	2.47750E-001	1.22964E-003	0.00000E+000	3.70030E-001	0.00000E+000	10	...........	1583.05
	4	0.04	2.49951E-001	1.22968E-003	0.00000E+000	3.70030E-001	0.00000E+000	10	...........	1583.05
	5	0.05	2.52101E-001	1.22971E-003	0.00000E+000	3.70030E-001	0.00000E+000	10	...........	1583.05
	6	0.06	2.54229E-001	1.22976E-003	0.00000E+000	3.70030E-001	0.00000E+000	10	...........	1583.05
	7	0.07	2.56341E-001	1.22968E-003	0.00000E+000	3.70030E-001	0.00000E+000	10	...........	1583.05
	8	0.08	2.58439E-001	1.22969E-003	0.00000E+000	3.70030E-001	0.00000E+000	10	...........	1583.05
	9	0.09	2.60534E-001	1.22966E-003	0.00000E+000	3.70030E-001	0.00000E+000	10	...........	1583.05
	10	0.1	2.62620E-001	1.22967E-003	0.00000E+000	3.70030E-001	0.00000E+000	10	...........	1583.05
	11	0.11	2.64707E-001	1.22974E-003	0.00000E+000	3.70030E-001	0.00000E+000	10	...........	1583.05
	12	0.12	2.66792E-001	1.22977E-003	0.00000E+000	3.70030E-001	0.00000E+000	10	...........	1583.05
	13	0.13	2.68852E-001	1.22969E-003	0.00000E+000	3.70030E-001	0.00000E+000	10	...........	1583.05
	14	0.14	2.70940E-001	1.22970E-003	0.00000E+000	3.70030E-001	0.00000E+000	10	...........	1583.05
	15	0.15	2.73011E-001	1.22974E-003	0.00000E+000	3.70030E-001	0.00000E+000	10	...........	1583.05
	16	0.16	2.75084E-001	1.22974E-003	0.00000E+000	3.70030E-001	0.00000E+000	10	...........	1583.05
	17	0.17	2.77159E-001	1.22974E-003	0.00000E+000	3.70030E-001	0.00000E+000	10	...........	1583.05
	18	0.18	2.79231E-001	1.22974E-003	0.00000E+000	3.70030E-001	0.00000E+000	10	...........	1583.05
	19	0.19	2.81296E-001	1.22976E-003	0.00000E+000	3.70030E-001	0.00000E+000	10	...........	1583.05
	20	0.2	2.83388E-001	1.22974E-003	0.00000E+000	3.70030E-001	0.00000E+000	10	...........	1583.05
	21	0.21	2.85446E-001	1.22972E-003	0.00000E+000	3.70030E-001	0.00000E+000	10	...........	1583.05
	22	0.22	2.87498E-001	1.22974E-003	0.00000E+000	3.70030E-001	0.00000E+000	10	...........	1583.05
	23	0.23	2.89583E-001	1.22976E-003	0.00000E+000	3.70030E-001	0.00000E+000	10	...........	1583.05
	24	0.24	2.91667E-001	1.22983E-003	0.00000E+000	3.70030E-001	0.00000E+000	10	...........	1583.05
	25	0.25	2.93734E-001	1.22978E-003	0.00000E+000	3.70030E-001	0.00000E+000	10	...........	1583.05
	26	0.26	2.95804E-001	1.22972E-003	0.00000E+000	3.70030E-001	0.00000E+000	10	...........	1583.05
	27	0.27	2.97868E-001	1.22971E-003	0.00000E+000	3.70030E-001	0.00000E+000	10	...........	1583.05
	28	0.28	2.99906E-001	1.22969E-003	0.00000E+000	3.70030E-001	0.00000E+000	10	...........	1583.05
	29	0.29	3.01984E-001	1.22974E-003	0.00000E+000	3.70030E-001	0.00000E+000	10	...........	1583.05
	30	0.3	3.04049E-001	1.22971E-003	0.00000E+000	3.70030E-001	0.00000E+000	10	...........	1583.05
	31	0.31	3.06093E-001	1.22971E-003	0.00000E+000	3.70030E-001	0.00000E+000	10	...........	1583.05
	32	0.32	3.08214E-001	1.22975E-003	0.00000E+000	3.70030E-001	0.00000E+000	10	...........	1583.05
	33	0.33	3.10281E-001	1.22978E-003	0.00000E+000	3.70030E-001	0.00000E+000	10	...........	1583.05
	34	0.34	3.12340E-001	1.22978E-003	0.00000E+000	3.70030E-001	0.00000E+000	10	...........	1583.05
	35	0.35	3.14415E-001	1.22977E-003	0.00000E+000	3.70030E-001	0.00000E+000	10	...........	1583.05
	36	0.36	3.16460E-001	1.22976E-003	0.00000E+000	3.70030E-001	0.00000E+000	10	...........	1583.05
	37	0.37	3.18518E-001	1.22973E-003	0.00000E+000	3.70030E-001	0.00000E+000	10	...........	1583.05
	38	0.38	3.20602E-001	1.22971E-003	0.00000E+000	3.70030E-001	0.00000E+000	10	...........	1583.05
	39	0.39	3.22648E-001	1.22974E-003	0.00000E+000	3.70030E-001	0.00000E+000	10	...........	1583.05
	40	0.4	3.24706E-001	1.22971E-003	0.00000E+000	3.70030E-001	0.00000E+000	10	...........	1583.05
	41	0.41	3.26788E-001	1.22975E-003	0.00000E+000	3.70030E-001	0.00000E+000	10	...........	1583.05
	42	0.42	3.28856E-001	1.22974E-003	0.00000E+000	3.70030E-001	0.00000E+000	10	...........	1583.05
	43	0.43	3.30917E-001	1.22973E-003	0.00000E+000	3.70030E-001	0.00000E+000	10	...........	1583.05
	44	0.44	3.33001E-001	1.22978E-003	0.00000E+000	3.70030E-001	0.00000E+000	10	...........	1583.05
	45	0.45	3.35055E-001	1.22973E-003	0.00000E+000	3.70030E-001	0.00000E+000	10	...........	1583.05
	46	0.46	3.37122E-001	1.22971E-003	0.00000E+000	3.70030E-001	0.00000E+000	10	...........	1583.05
	47	0.47	3.39176E-001	1.22974E-003	0.00000E+000	3.70030E-001	0.00000E+000	10	...........	1583.05
	48	0.48	3.41258E-001	1.22971E-003	0.00000E+000	3.70030E-001	0.00000E+000	10	...........	1583.05
	49	0.49	3.43318E-001	1.22975E-003	0.00000E+000	3.70030E-001	0.00000E+000	10	...........	1583.05
	50	0.5	3.45368E-001	1.22976E-003	0.00000E+000	3.70030E-001	0.00000E+000	10	...........	1583.05
	51	0.51	3.47446E-001	1.22967E-003	0.00000E+000	3.70030E-001	0.00000E+000	10	...........	1583.05
	52	0.52	3.49500E-001	1.22973E-003	0.00000E+000	3.70030E-001	0.00000E+000	10	...........	1583.05
	53	0.53	3.51547E-001	1.22970E-003	0.00000E+000	3.70030E-001	0.00000E+000	10	...........	1583.05
	54	0.54	3.53615E-001	1.22974E-003	0.00000E+000	3.70030E-001	0.00000E+000	10	...........	1583.05
	55	0.55	3.55683E-001	1.22974E-003	0.00000E+000	3.70030E-001	0.00000E+000	10	...........	1583.05
	56	0.56	3.57707E-001	1.22972E-003	0.00000E+000	3.70030E-001	0.00000E+000	10	...........	1583.05
	57	0.57	3.59828E-001	1.22971E-003	0.00000E+000	3.70030E-001	0.00000E+000	10	...........	1583.05
	58	0.58	3.61869E-001	1.22970E-003	0.00000E+000	3.70030E-001	0.00000E+000	10	...........	1583.05
	59	0.59	3.63940E-001	1.22968E-003	0.00000E+000	3.70030E-001	0.00000E+000	10	...........	1583.05
	60	0.6	3.66006E-001	1.22973E-003	0.00000E+000	3.70030E-001	0.00000E+000	10	...........	1583.05
	61	0.61	3.68051E-001	1.22975E-003	0.00000E+000	3.70030E-001	0.00000E+000	10	...........	1583.05
	62	0.62	3.70113E-001	1.22975E-003	0.00000E+000	3.70030E-001	0.00000E+000	10	...........	1583.05
	63	0.63	3.72215E-001	1.22971E-003	0.00000E+000	3.70030E-001	0.00000E+000	10	...........	1583.05
	64	0.64	3.74238E-001	1.22968E-003	0.00000E+000	3.70030E-001	0.00000E+000	10	...........	1583.05
	65	0.65	3.76303E-001	1.22973E-003	0.00000E+000	3.70030E-001	0.00000E+000	10	...........	1583.05
	66	0.66	3.78349E-001	1.22967E-003	0.00000E+000	3.70030E-001	0.00000E+000	10	...........	1583.05
	67	0.67	3.80413E-001	1.22971E-003	0.00000E+000	3.70030E-001	0.00000E+000	10	...........	1583.05
	68	0.68	3.82476E-001	1.22974E-003	0.00000E+000	3.70030E-001	0.00000E+000	10	...........	1583.05
	69	0.69	3.84560E-001	1.22971E-003	0.00000E+000	3.70030E-001	0.00000E+000	10	...........	1583.05
	70	0.7	3.86627E-001	1.22976E-003	0.00000E+000	3.70030E-001	0.00000E+000	10	...........	1583.05
	71	0.71	3.88673E-001	1.22972E-003	0.00000E+000	3.70030E-001	0.00000E+000	10	...........	1583.05
	72	0.72	3.90741E-001	1.22978E-003	0.00000E+000	3.70030E-001	0.00000E+000	10	...........	1583.05
	73	0.73	3.92796E-001	1.22970E-003	0.00000E+000	3.70030E-001	0.00000E+000	10	...........	1583.05
	74	0.74	3.94861E-001	1.22969E-003	0.00000E+000	3.70030E-001	0.00000E+000	10	...........	1583.05
	75	0.75	3.96913E-001	1.22973E-003	0.00000E+000	3.70030E-001	0.00000E+000	10	...........	1583.05
	76	0.76	3.98976E-001	1.22972E-003	0.00000E+000	3.70030E-001	0.00000E+000	10	...........	1583.05
	77	0.77	4.01038E-001	1.22975E-003	0.00000E+000	3.70030E-001	0.00000E+000	10	...........	1583.05
	78	0.78	4.03064E-001	1.22976E-003	0.00000E+000	3.70030E-001	0.00000E+000	10	...........	1583.05
	79	0.79	4.05130E-001	1.22970E-003	0.00000E+000	3.70030E-001	0.00000E+000	10	...........	1583.05
	80	0.8	4.07194E-001	1.22972E-003	0.00000E+000	3.70030E-001	0.00000E+000	10	...........	1583.05
	81	0.81	4.09263E-001	1.22971E-003	0.00000E+000	3.70030E-001	0.00000E+000	10	...........	1583.05
	82	0.82	4.11323E-001	1.22970E-003	0.00000E+000	3.70030E-001	0.00000E+000	10	...........	1583.05
	83	0.83	4.13378E-001	1.22970E-003	0.00000E+000	3.70030E-001	0.00000E+000	10	...........	1583.05
	84	0.84	4.15417E-001	1.22970E-003	0.00000E+000	3.70030E-001	0.00000E+000	10	...........	1583.05
	85	0.85	4.17491E-001	1.22971E-003	0.00000E+000	3.70030E-001	0.00000E+000	10	...........	1583.05
	86	0.86	4.19568E-001	1.22977E-003	0.00000E+000	3.70030E-001	0.00000E+000	10	...........	1583.05
	87	0.87	4.21599E-001	1.22974E-003	0.00000E+000	3.70030E-001	0.00000E+000	10	...........	1583.05
	88	0.88	4.23672E-001	1.22969E-003	0.00000E+000	3.70030E-001	0.00000E+000	10	...........	1583.05
	89	0.89	4.25716E-001	1.22964E-003	0.00000E+000	3.70030E-001	0.00000E+000	10	...........	1583.05
	90	0.9	4.27788E-001	1.22975E-003	0.00000E+000	3.70030E-001	0.00000E+000	10	...........	1583.05
	91	0.91	4.29833E-001	1.22971E-003	0.00000E+000	3.70030E-001	0.00000E+000	10	...........	1583.05
	92	0.92	4.31891E-001	1.22962E-003	0.00000E+000	3.70030E-001	0.00000E+000	10	...........	1583.05
	93	0.93	4.33942E-001	1.22963E-003	0.00000E+000	3.70030E-001	0.00000E+000	10	...........	1583.44
	94	0.94	4.36023E-001	1.22963E-003	0.00000E+000	3.70030E-001	0.00000E+000	10	...........	1583.44
	95	0.95	4.38063E-001	1.22966E-003	0.00000E+000	3.70030E-001	0.00000E+000	10	...........	1583.44
	96	0.96	4.40144E-001	1.22969E-003	0.00000E+000	3.70030E-001	0.00000E+000	10	...........	1583.44
	97	0.97	4.42197E-001	1.22968E-003	0.00000E+000	3.70030E-001	0.00000E+000	10	...........	1583.44
	98	0.98	4.44244E-001	1.22968E-003	0.00000E+000	3.70030E-001	0.00000E+000	10	...........	1583.44
	99	0.99	4.46294E-001	1.22964E-003	0.00000E+000	3.70030E-001	0.00000E+000	10	...........	1583.44
	100	1	4.48377E-001	1.22971E-003	0.00000E+000	3.70030E-001	0.00000E+000	10	...........	1583.44
	101	1.01	4.50420E-001	1.22976E-003	0.00000E+000	3.70030E-001	0.00000E+000	10	...........	1583.44
	102	1.02	4.52490E-001	1.22970E-003	0.00000E+000	3.70030E-001	0.00000E+000	10	...........	1583.44
	103	1.03	4.54547E-001	1.22975E-003	0.00000E+000	3.70030E-001	0.00000E+000	10	...........	1583.44
	104	1.04	4.56578E-001	1.22969E-003	0.00000E+000	3.70030E-001	0.00000E+000	10	...........	1583.44
	105	1.05	4.58636E-001	1.22969E-003	0.00000E+000	3.70030E-001	0.00000E+000	10	...........	1583.44
	106	1.06	4.60708E-001	1.22969E-003	0.00000E+000	3.70030E-001	0.00000E+000	10	...........	1583.44
	107	1.07	4.62772E-001	1.22973E-003	0.00000E+000	3.70030E-001	0.00000E+000	10	...........	1583.44
	108	1.08	4.64815E-001	1.22976E-003	0.00000E+000	3.70030E-001	0.00000E+000	10	...........	1583.44
	109	1.09	4.66858E-001	1.22974E-003	0.00000E+000	3.70030E-001	0.00000E+000	10	...........	1583.44
	110	1.1	4.68928E-001	1.22976E-003	0.00000E+000	3.70030E-001	0.00000E+000	10	...........	1583.44
	111	1.11	4.70970E-001	1.22973E-003	0.00000E+000	3.70030E-001	0.00000E+000	10	...........	1583.44
	112	1.12	4.73019E-001	1.22970E-003	0.00000E+000	3.70030E-001	0.00000E+000	10	...........	1583.44
	113	1.13	4.75110E-001	1.22968E-003	0.00000E+000	3.70030E-001	0.00000E+000	10	...........	1583.44
	114	1.14	4.77158E-001	1.22970E-003	0.00000E+000	3.70030E-001	0.00000E+000	10	...........	1583.44
	115	1.15	4.79192E-001	1.22973E-003	0.00000E+000	3.70030E-001	0.00000E+000	10	...........	1583.44
	116	1.16	4.81257E-001	1.22974E-003	0.00000E+000	3.70030E-001	0.00000E+000	10	...........	1583.44
	117	1.17	4.83309E-001	1.22976E-003	0.00000E+000	3.70030E-001	0.00000E+000	10	...........	1583.44
	118	1.18	4.85360E-001	1.22975E-003	0.00000E+000	3.70030E-001	0.00000E+000	10	...........	1583.44
	119	1.19	4.87439E-001	1.22970E-003	0.00000E+000	3.70030E-001	0.00000E+000	10	...........	1583.44
	120	1.2	4.89476E-001	1.22969E-003	0.00000E+000	3.70030E-001	0.00000E+000	10	...........	1583.44
	121	1.21	4.91546E-001	1.22972E-003	0.00000E+000	3.70030E-001	0.00000E+000	10	...........	1583.44
	122	1.22	4.93612E-001	1.22972E-003	0.00000E+000	3.70030E-001	0.00000E+000	10	...........	1583.44
	123	1.23	4.95645E-001	1.22974E-003	0.00000E+000	3.70030E-001	0.00000E+000	10	...........	1583.44
	124	1.24	4.97695E-001	1.22970E-003	0.00000E+000	3.70030E-001	0.00000E+000	10	...........	1583.44
	125	1.25	4.99763E-001	1.22970E-003	0.00000E+000	3.70030E-001	0.00000E+000	10	...........	1583.44
	126	1.26	5.01817E-001	1.22974E-003	0.00000E+000	3.70030E-001	0.00000E+000	10	...........	1583.44
	127	1.27	5.03857E-001	1.22973E-003	0.00000E+000	3.70030E-001	0.00000E+000	10	...........	1583.44
	128	1.28	5.05927E-001	1.22974E-003	0.00000E+000	3.70030E-001	0.00000E+000	10	...........	1583.44
	129	1.29	5.07959E-001	1.22971E-003	0.00000E+000	3.70030E-001	0.00000E+000	10	...........	1583.44
	130	1.3	5.10011E-001	1.22972E-003	0.00000E+000	3.70030E-001	0.00000E+000	10	...........	1583.44
	131	1.31	5.12070E-001	1.22975E-003	0.00000E+000	3.70030E-001	0.00000E+000	10	...........	1583.44
	132	1.32	5.14122E-001	1.22972E-003	0.00000E+000	3.70030E-001	0.00000E+000	10	...........	1583.44
	133	1.33	5.16190E-001	1.22972E-003	0.00000E+000	3.70030E-001	0.00000E+000	10	...........	1583.44
	134	1.34	5.18236E-001	1.22976E-003	0.00000E+000	3.70030E-001	0.00000E+000	10	...........	1583.44
	135	1.35	5.20287E-001	1.22971E-003	0.00000E+000	3.70030E-001	0.00000E+000	10	...........	1583.44
	136	1.36	5.22340E-001	1.22969E-003	0.00000E+000	3.70030E-001	0.00000E+000	10	...........	1583.44
	137	1.37	5.24364E-001	1.22968E-003	0.00000E+000	3.70030E-001	0.00000E+000	10	...........	1583.44
	138	1.38	5.26458E-001	1.22976E-003	0.00000E+000	3.70030E-001	0.00000E+000	10	...........	1583.44
	139	1.39	5.28502E-001	1.22980E-003	0.00000E+000	3.70030E-001	0.00000E+000	10	...........	1583.44
	140	1.4	5.30538E-001	1.22973E-003	0.00000E+000	3.70030E-001	0.00000E+000	10	...........	1583.44
	141	1.41	5.32598E-001	1.22975E-003	0.00000E+000	3.70030E-001	0.00000E+000	10	...........	1583.44
	142	1.42	5.34628E-001	1.22970E-003	0.00000E+000	3.70030E-001	0.00000E+000	10	...........	1583.44
	143	1.43	5.36676E-001	1.22973E-003	0.00000E+000	3.70030E-001	0.00000E+000	10	...........	1583.44
	144	1.44	5.38758E-001	1.22971E-003	0.00000E+000	3.70030E-001	0.00000E+000	10	...........	1583.44
	145	1.45	5.40798E-001	1.22973E-003	0.00000E+000	3.70030E-001	0.00000E+000	10	...........	1583.44
	146	1.46	5.42828E-001	1.22972E-003	0.00000E+000	3.70030E-001	0.00000E+000	10	...........	1583.44
	147	1.47	5.44881E-001	1.22973E-003	0.00000E+000	3.70030E-001	0.00000E+000	10	...........	1583.44
	148	1.48	5.46915E-001	1.22972E-003	0.00000E+000	3.70030E-001	0.00000E+000	10	...........	1583.44
	149	1.49	5.48963E-001	1.22968E-003	0.00000E+000	3.70030E-001	0.00000E+000	10	...........	1583.44
	150	1.5	5.51025E-001	1.22975E-003	0.00000E+000	3.70030E-001	0.00000E+000	10	...........	1583.44
	151	1.51	5.53059E-001	1.22970E-003	0.00000E+000	3.70030E-001	0.00000E+000	10	...........	1583.44
	152	1.52	5.55090E-001	1.22972E-003	0.00000E+000	3.70030E-001	0.00000E+000	10	...........	1583.44
	153	1.53	5.57121E-001	1.22973E-003	0.00000E+000	3.70030E-001	0.00000E+000	10	...........	1583.44
	154	1.54	5.59160E-001	1.22974E-003	0.00000E+000	3.70030E-001	0.00000E+000	10	...........	1583.44
	155	1.55	5.61209E-001	1.22972E-003	0.00000E+000	3.70030E-001	0.00000E+000	10	...........	1583.44
	156	1.56	5.63245E-001	1.22971E-003	0.00000E+000	3.70030E-001	0.00000E+000	10	...........	1583.44
	157	1.57	5.65329E-001	1.22975E-003	0.00000E+000	3.70030E-001	0.00000E+000	10	...........	1583.44
	158	1.58	5.67367E-001	1.22976E-003	0.00000E+000	3.70030E-001	0.00000E+000	10	...........	1583.44
	159	1.59	5.69388E-001	1.22974E-003	0.00000E+000	3.70030E-001	0.00000E+000	10	...........	1583.44
	160	1.6	5.71417E-001	1.22975E-003	0.00000E+000	3.70030E-001	0.00000E+000	10	...........	1583.44
	161	1.61	5.73459E-001	1.22973E-003	0.00000E+000	3.70030E-001	0.00000E+000	10	...........	1583.44
	162	1.62	5.75497E-001	1.22975E-003	0.00000E+000	3.70030E-001	0.00000E+000	10	...........	1583.44
	163	1.63	5.77546E-001	1.22974E-003	0.00000E+000	3.70030E-001	0.00000E+000	10	...........	1583.44
	164	1.64	5.79571E-001	1.22971E-003	0.00000E+000	3.70030E-001	0.00000E+000	10	...........	1583.44
	165	1.65	5.81575E-001	1.22971E-003	0.00000E+000	3.70030E-001	0.00000E+000	10	...........	1583.44
	166	1.66	5.83632E-001	1.22976E-003	0.00000E+000	3.70030E-001	0.00000E+000	10	...........	1583.44
	167	1.67	5.85653E-001	1.22978E-003	0.00000E+000	3.70030E-001	0.00000E+000	10	...........	1583.44
	168	1.68	5.87690E-001	1.22976E-003	0.00000E+000	3.70030E-001	0.00000E+000	10	...........	1583.44
	169	1.69	5.89745E-001	1.22973E-003	0.00000E+000	3.70030E-001	0.00000E+000	10	...........	1583.44
	170	1.7	5.91752E-001	1.22971E-003	0.00000E+000	3.70030E-001	0.00000E+000	10	...........	1583.44
	171	1.71	5.93789E-001	1.22970E-003	0.00000E+000	3.70030E-001	0.00000E+000	10	...........	1583.44
	172	1.72	5.95817E-001	1.22970E-003	0.00000E+000	3.70030E-001	0.00000E+000	10	...........	1583.44
	173	1.73	5.97835E-001	1.22969E-003	0.00000E+000	3.70030E-001	0.00000E+000	10	...........	1583.44
	174	1.74	5.99856E-001	1.22970E-003	0.00000E+000	3.70030E-001	0.00000E+000	10	...........	1583.44
	175	1.75	6.01894E-001	1.22972E-003	0.00000E+000	3.70030E-001	0.00000E+000	10	...........	1583.44
	176	1.76	6.03904E-001	1.22970E-003	0.00000E+000	3.70030E-001	0.00000E+000	10	...........	1583.44
	177	1.77	6.05921E-001	1.22976E-003	0.00000E+000	3.70030E-001	0.00000E+000	10	...........	1583.44
	178	1.78	6.07936E-001	1.22974E-003	0.00000E+000	3.70030E-001	0.00000E+000	10	...........	1583.44
	179	1.79	6.09953E-001	1.22973E-003	0.00000E+000	3.70030E-001	0.00000E+000	10	...........	1583.44
	180	1.8	6.11961E-001	1.22973E-003	0.00000E+000	3.70030E-001	0.00000E+000	10	...........	1583.44
	181	1.81	6.13982E-001	1.22974E-003	0.00000E+000	3.70030E-001	0.00000E+000	10	...........	1583.44
	182	1.82	6.16035E-001	1.22971E-003	0.00000E+000	3.70030E-001	0.00000E+000	10	...........	1583.44
	183	1.83	6.18028E-001	1.22971E-003	0.00000E+000	3.70030E-001	0.00000E+000	10	...........	1583.44
	184	1.84	6.20030E-001	1.22970E-003	0.00000E+000	3.70030E-001	0.00000E+000	10	...........	1583.44
	185	1.85	6.22027E-001	1.22966E-003	0.00000E+000	3.70030E-001	0.00000E+000	10	...........	1583.44
	186	1.86	6.24018E-001	1.22969E-003	0.00000E+000	3.70030E-001	0.00000E+000	10	...........	1583.44
	187	1.87	6.26030E-001	1.22967E-003	0.00000E+000	3.70030E-001	0.00000E+000	10	...........	1583.44
	188	1.88	6.28054E-001	1.22971E-003	0.00000E+000	3.70030E-001	0.00000E+000	10	...........	1583.44
	189	1.89	6.30041E-001	1.22971E-003	0.00000E+000	3.70030E-001	0.00000E+000	10	...........	1583.44
	190	1.9	6.32054E-001	1.22976E-003	0.00000E+000	3.70030E-001	0.00000E+000	10	...........	1583.44
	191	1.91	6.34043E-001	1.22975E-003	0.00000E+000	3.70030E-001	0.00000E+000	10	...........	1583.44
	192	1.92	6.36030E-001	1.22969E-003	0.00000E+000	3.70030E-001	0.00000E+000	10	...........	1583.44
	193	1.93	6.38030E-001	1.22972E-003	0.00000E+000	3.70030E-001	0.00000E+000	10	...........	1583.05
	194	1.94	6.40034E-001	1.22973E-003	0.00000E+000	3.70030E-001	0.00000E+000	10	...........	1583.05
	195	1.95	6.42035E-001	1.22973E-003	0.00000E+000	3.70030E-001	0.00000E+000	10	...........	1583.05
	196	1.96	6.44022E-001	1.22974E-003	0.00000E+000	3.70030E-001	0.00000E+000	10	...........	1583.05
	197	1.97	6.45995E-001	1.22972E-003	0.00000E+000	3.70030E-001	0.00000E+000	10	...........	1583.05
	198	1.98	6.47966E-001	1.22970E-003	0.00000E+000	3.70030E-001	0.00000E+000	10	...........	1583.05
	199	1.99	6.49950E-001	1.22969E-003	0.00000E+000	3.70030E-001	0.00000E+000	10	...........	1583.05
	200	2	6.51915E-001	1.22975E-003	0.00000E+000	3.70030E-001	0.00000E+000	10	...........	1583.05
	201	2.01	6.53889E-001	1.22972E-003	0.00000E+000	3.70030E-001	0.00000E+000	10	...........	1583.05
	202	2.02	6.55865E-001	1.22976E-003	0.00000E+000	3.70030E-001	0.00000E+000	10	...........	1583.05
	203	2.03	6.57839E-001	1.22977E-003	0.00000E+000	3.70030E-001	0.00000E+000	10	...........	1583.05
	204	2.04	6.59800E-001	1.22969E-003	0.00000E+000	3.70030E-001	0.00000E+000	10	...........	1583.05
	205	2.05	6.61769E-001	1.22975E-003	0.00000E+000	3.70030E-001	0.00000E+000	10	...........	1583.05
	206	2.06	6.63713E-001	1.22973E-003	0.00000E+000	3.70030E-001	0.00000E+000	10	...........	1583.05
	207	2.07	6.65693E-001	1.22972E-003	0.00000E+000	3.70030E-001	0.00000E+000	10	...........	1583.05
	208	2.08	6.67666E-001	1.22973E-003	0.00000E+000	3.70030E-001	0.00000E+000	10	...........	1583.05
	209	2.09	6.69627E-001	1.22971E-003	0.00000E+000	3.70030E-001	0.00000E+000	10	...........	1583.05
	210	2.1	6.71571E-001	1.22975E-003	0.00000E+000	3.70030E-001	0.00000E+000	10	...........	1583.05
	211	2.11	6.73526E-001	1.22976E-003	0.00000E+000	3.70030E-001	0.00000E+000	10	...........	1583.05
	212	2.12	6.75473E-001	1.22978E-003	0.00000E+000	3.70030E-001	0.00000E+000	10	...........	1583.05
	213	2.13	6.77410E-001	1.22974E-003	0.00000E+000	3.70030E-001	0.00000E+000	10	...........	1583.05
	214	2.14	6.79358E-001	1.22968E-003	0.00000E+000	3.70030E-001	0.00000E+000	10	...........	1583.05
	215	2.15	6.81272E-001	1.22968E-003	0.00000E+000	3.70030E-001	0.00000E+000	10	...........	1583.05
	216	2.16	6.83204E-001	1.22969E-003	0.00000E+000	3.70030E-001	0.00000E+000	10	...........	1583.05
	217	2.17	6.85141E-001	1.22971E-003	0.00000E+000	3.70030E-001	0.00000E+000	10	...........	1583.05
	218	2.18	6.87058E-001	1.22969E-003	0.00000E+000	3.70030E-001	0.00000E+000	10	...........	1583.05
	219	2.19	6.88991E-001	1.22971E-003	0.00000E+000	3.70030E-001	0.00000E+000	10	...........	1583.05
	220	2.2	6.90911E-001	1.22973E-003	0.00000E+000	3.70030E-001	0.00000E+000	10	...........	1583.05
	221	2.21	6.92852E-001	1.22973E-003	0.00000E+000	3.70030E-001	0.00000E+000	10	...........	1583.05
	222	2.22	6.94774E-001	1.22971E-003	0.00000E+000	3.70030E-001	0.00000E+000	10	...........	1583.05
	223	2.23	6.96669E-001	1.22973E-003	0.00000E+000	3.70030E-001	0.00000E+000	10	...........	1583.05
	224	2.24	6.98581E-001	1.22971E-003	0.00000E+000	3.70030E-001	0.00000E+000	10	...........	1583.05
	225	2.25	7.00469E-001	1.22969E-003	0.00000E+000	3.70030E-001	0.00000E+000	10	...........	1583.05
	226	2.26	7.02361E-001	1.22970E-003	0.00000E+000	3.70030E-001	0.00000E+000	10	...........	1583.05
	227	2.27	7.04270E-001	1.22974E-003	0.00000E+000	3.70030E-001	0.00000E+000	10	...........	1583.05
	228	2.28	7.06170E-001	1.22969E-003	0.00000E+000	3.70030E-001	0.00000E+000	10	...........	1583.05
	229	2.29	7.08045E-001	1.22972E-003	0.00000E+000	3.70030E-001	0.00000E+000	10	...........	1583.05
	230	2.3	7.09921E-001	1.22972E-003	0.00000E+000	3.70030E-001	0.00000E+000	10	...........	1583.05
	231	2.31	7.11802E-001	1.22968E-003	0.00000E+000	3.70030E-001	0.00000E+000	10	...........	1583.05
	232	2.32	7.13678E-001	1.22968E-003	0.00000E+000	3.70030E-001	0.00000E+000	10	...........	1583.05
	233	2.33	7.15528E-001	1.22967E-003	0.00000E+000	3.70030E-001	0.00000E+000	10	...........	1583.05
	234	2.34	7.17411E-001	1.22968E-003	0.00000E+000	3.70030E-001	0.00000E+000	10	...........	1583.05
	235	2.35	7.19302E-001	1.22968E-003	0.00000E+000	3.70030E-001	0.00000E+000	10	...........	1583.05
	236	2.36	7.21155E-001	1.22971E-003	0.00000E+000	3.70030E-001	0.00000E+000	10	...........	1583.05
	237	2.37	7.22989E-001	1.22966E-003	0.00000E+000	3.70030E-001	0.00000E+000	10	...........	1583.05
	238	2.38	7.24837E-001	1.22972E-003	0.00000E+000	3.70030E-001	0.00000E+000	10	...........	1583.05
	239	2.39	7.26674E-001	1.22971E-003	0.00000E+000	3.70030E-001	0.00000E+000	10	...........	1583.05
	240	2.4	7.28520E-001	1.22972E-003	0.00000E+000	3.70030E-001	0.00000E+000	10	...........	1583.05
	241	2.41	7.30384E-001	1.22969E-003	0.00000E+000	3.70030E-001	0.00000E+000	10	...........	1583.05
	242	2.42	7.32179E-001	1.22963E-003	0.00000E+000	3.70030E-001	0.00000E+000	10	...........	1583.05
	243	2.43	7.33999E-001	1.22972E-003	0.00000E+000	3.70030E-001	0.00000E+000	10	...........	1583.05
	244	2.44	7.35813E-001	1.22969E-003	0.00000E+000	3.70030E-001	0.00000E+000	10	...........	1583.05
	245	2.45	7.37638E-001	1.22971E-003	0.00000E+000	3.70030E-001	0.00000E+000	10	...........	1583.05
	246	2.46	7.39417E-001	1.22972E-003	0.00000E+000	3.70030E-001	0.00000E+000	10	...........	1583.05
	247	2.47	7.41207E-001	1.22964E-003	0.00000E+000	3.70030E-001	0.00000E+000	10	...........	1583.05
	248	2.48	7.43031E-001	1.22969E-003	0.00000E+000	3.70030E-001	0.00000E+000	10	...........	1583.05
	249	2.49	7.44822E-001	1.22971E-003	0.00000E+000	3.70030E-001	0.00000E+000	10	...........	1583.05
	250	2.5	7.46617E-001	1.22970E-003	0.00000E+000	3.70030E-001	0.00000E+000	10	...........	1583.05
	251	2.51	7.48399E-001	1.22973E-003	0.00000E+000	3.70030E-001	0.00000E+000	10	...........	1583.05
	252	2.52	7.50159E-001	1.22968E-003	0.00000E+000	3.70030E-001	0.00000E+000	10	...........	1583.05
	253	2.53	7.51930E-001	1.22970E-003	0.00000E+000	3.70030E-001	0.00000E+000	10	...........	1583.05
	254	2.54	7.53688E-001	1.22972E-003	0.00000E+000	3.70030E-001	0.00000E+000	10	...........	1583.05
	255	2.55	7.55450E-001	1.22968E-003	0.00000E+000	3.70030E-001	0.00000E+000	10	...........	1583.05
	256	2.56	7.57191E-001	1.22970E-003	0.00000E+000	3.70030E-001	0.00000E+000	10	...........	1583.05
	257	2.57	7.58949E-001	1.22968E-003	0.00000E+000	3.70030E-001	0.00000E+000	10	...........	1583.05
	258	2.58	7.60651E-001	1.22974E-003	0.00000E+000	3.70030E-001	0.00000E+000	10	...........	1583.05
	259	2.59	7.62380E-001	1.22967E-003	0.00000E+000	3.70030E-001	0.00000E+000	10	...........	1583.05
	260	2.6	7.64109E-001	1.22965E-003	0.00000E+000	3.70030E-001	0.00000E+000	10	...........	1583.05
	261	2.61	7.65829E-001	1.22970E-003	0.00000E+000	3.70030E-001	0.00000E+000	10	...........	1583.05
	262	2.62	7.67515E-001	1.22970E-003	0.00000E+000	3.70030E-001	0.00000E+000	10	...........	1583.05
	263	2.63	7.69244E-001	1.22970E-003	0.00000E+000	3.70030E-001	0.00000E+000	10	...........	1583.05
	264	2.64	7.70951E-001	1.22968E-003	0.00000E+000	3.70030E-001	0.00000E+000	10	...........	1583.05
	265	2.65	7.72654E-001	1.22969E-003	0.00000E+000	3.70030E-001	0.00000E+000	10	...........	1583.05
	266	2.66	7.74336E-001	1.22968E-003	0.00000E+000	3.70030E-001	0.00000E+000	10	...........	1583.05
	267	2.67	7.76010E-001	1.22972E-003	0.00000E+000	3.70030E-001	0.00000E+000	10	...........	1583.05
	268	2.68	7.77673E-001	1.22968E-003	0.00000E+000	3.70030E-001	0.00000E+000	10	...........	1583.05
	269	2.69	7.79349E-001	1.22968E-003	0.00000E+000	3.70030E-001	0.00000E+000	10	...........	1583.05
	270	2.7	7.81014E-001	1.22967E-003	0.00000E+000	3.70030E-001	0.00000E+000	10	...........	1583.05
	271	2.71	7.82685E-001	1.22969E-003	0.00000E+000	3.70030E-001	0.00000E+000	10	...........	1583.05
	272	2.72	7.84304E-001	1.22969E-003	0.00000E+000	3.70030E-001	0.00000E+000	10	...........	1583.05
	273	2.73	7.85948E-001	1.22967E-003	0.00000E+000	3.70030E-001	0.00000E+000	10	...........	1583.05
	274	2.74	7.87578E-001	1.22966E-003	0.00000E+000	3.70030E-001	0.00000E+000	10	...........	1583.05
	275	2.75	7.89196E-001	1.22968E-003	0.00000E+000	3.70030E-001	0.00000E+000	10	...........	1583.05
	276	2.76	7.90804E-001	1.22964E-003	0.00000E+000	3.70030E-001	0.00000E+000	10	...........	1583.05
	277	2.77	7.92397E-001	1.22967E-003	0.00000E+000	3.70030E-001	0.00000E+000	10	...........	1583.05
	278	2.78	7.94032E-001	1.22974E-003	0.00000E+000	3.70030E-001	0.00000E+000	10	...........	1583.05
	279	2.79	7.95652E-001	1.22976E-003	0.00000E+000	3.70030E-001	0.00000E+000	10	...........	1583.05
	280	2.8	7.97266E-001	1.22978E-003	0.00000E+000	3.70030E-001	0.00000E+000	10	...........	1583.05
	281	2.81	7.98797E-001	1.22973E-003	0.00000E+000	3.70030E-001	0.00000E+000	10	...........	1583.05
	282	2.82	8.00338E-001	1.22971E-003	0.00000E+000	3.70030E-001	0.00000E+000	10	...........	1583.05
	283	2.83	8.01899E-001	1.22968E-003	0.00000E+000	3.70030E-001	0.00000E+000	10	...........	1583.05
	284	2.84	8.03471E-001	1.22974E-003	0.00000E+000	3.70030E-001	0.00000E+000	10	...........	1583.05
	285	2.85	7.79864E-001	-1.22970E-003	0.00000E+000	-3.70030E-001	0.00000E+000	10	...........	1583.05
	286	2.86	7.75361E-001	-1.22987E-003	0.00000E+000	-3.70030E-001	0.00000E+000	10	...........	1583.05
	287	2.87	7.71540E-001	-1.22986E-003	0.00000E+000	-3.70030E-001	0.00000E+000	10	...........	1583.05
	288	2.88	7.68042E-001	-1.22988E-003	0.00000E+000	-3.70030E-001	0.00000E+000	10	...........	1583.05
	289	2.89	7.64756E-001	-1.22990E-003	0.00000E+000	-3.70030E-001	0.00000E+000	10	...........	1583.05
	290	2.9	7.61588E-001	-1.22992E-003	0.00000E+000	-3.70030E-001	0.00000E+000	10	...........	1583.05
	291	2.91	7.58558E-001	-1.22994E-003	0.00000E+000	-3.70030E-001	0.00000E+000	10	...........	1583.05
	292	2.92	7.55578E-001	-1.22996E-003	0.00000E+000	-3.70030E-001	0.00000E+000	10	...........	1583.05
	293	2.93	7.52673E-001	-1.22995E-003	0.00000E+000	-3.70030E-001	0.00000E+000	10	...........	1583.05
	294	2.94	7.49822E-001	-1.22996E-003	0.00000E+000	-3.70030E-001	0.00000E+000	10	...........	1583.05
	295	2.95	7.47021E-001	-1.22994E-003	0.00000E+000	-3.70030E-001	0.00000E+000	10	...........	1583.05
	296	2.96	7.44228E-001	-1.22997E-003	0.00000E+000	-3.70030E-001	0.00000E+000	10	...........	1583.05
	297	2.97	7.41459E-001	-1.22997E-003	0.00000E+000	-3.70030E-001	0.00000E+000	10	...........	1583.05
	298	2.98	7.38758E-001	-1.22994E-003	0.00000E+000	-3.70030E-001	0.00000E+000	10	...........	1583.05
	299	2.99	7.36074E-001	-1.22994E-003	0.00000E+000	-3.70030E-001	0.00000E+000	10	...........	1583.05
	300	3	7.33404E-001	-1.22995E-003	0.00000E+000	-3.70030E-001	0.00000E+000	10	...........	1583.05
	301	3.01	7.30785E-001	-1.22995E-003	0.00000E+000	-3.70030E-001	0.00000E+000	10	...........	1583.05
	302	3.02	7.28121E-001	-1.22999E-003	0.00000E+000	-3.70030E-001	0.00000E+000	10	...........	1583.05
	303	3.03	7.25495E-001	-1.22999E-003	0.00000E+000	-3.70030E-001	0.00000E+000	10	...........	1583.05
	304	3.04	7.22887E-001	-1.23000E-003	0.00000E+000	-3.70030E-001	0.00000E+000	10	...........	1583.05
	305	3.05	7.20305E-001	-1.23002E-003	0.00000E+000	-3.70030E-001	0.00000E+000	10	...........	1583.05
	306	3.06	7.17711E-001	-1.23005E-003	0.00000E+000	-3.70030E-001	0.00000E+000	10	...........	1583.05
	307	3.07	7.15118E-001	-1.22998E-003	0.00000E+000	-3.70030E-001	0.00000E+000	10	...........	1583.05
	308	3.08	7.12570E-001	-1.22999E-003	0.00000E+000	-3.70030E-001	0.00000E+000	10	...........	1583.05
	309	3.09	7.10032E-001	-1.22998E-003	0.00000E+000	-3.70030E-001	0.00000E+000	10	...........	1583.05
	310	3.1	7.07499E-001	-1.23002E-003	0.00000E+000	-3.70030E-001	0.00000E+000	10	...........	1583.05
	311	3.11	7.04967E-001	-1.23005E-003	0.00000E+000	-3.70030E-001	0.00000E+000	10	...........	1583.05
	312	3.12	7.02428E-001	-1.22998E-003	0.00000E+000	-3.70030E-001	0.00000E+000	10	...........	1583.05
	313	3.13	6.99923E-001	-1.23001E-003	0.00000E+000	-3.70030E-001	0.00000E+000	10	...........	1583.05
	314	3.14	6.97418E-001	-1.23000E-003	0.00000E+000	-3.70030E-001	0.00000E+000	10	...........	1583.05
	315	3.15	6.94931E-001	-1.22998E-003	0.00000E+000	-3.70030E-001	0.00000E+000	10	...........	1583.05
	316	3.16	6.92422E-001	-1.23003E-003	0.00000E+000	-3.70030E-001	0.00000E+000	10	...........	1583.05
	317	3.17	6.89885E-001	-1.23004E-003	0.00000E+000	-3.70030E-001	0.00000E+000	10	...........	1583.05
	318	3.18	6.87383E-001	-1.23008E-003	0.00000E+000	-3.70030E-001	0.00000E+000	10	...........	1583.05
	319	3.19	6.84921E-001	-1.23006E-003	0.00000E+000	-3.70030E-001	0.00000E+000	10	...........	1583.05
	320	3.2	6.82463E-001	-1.23002E-003	0.00000E+000	-3.70030E-001	0.00000E+000	10	...........	1583.05
	321	3.21	6.79998E-001	-1.23002E-003	0.00000E+000	-3.70030E-001	0.00000E+000	10	...........	1583.05
	322	3.22	6.77509E-001	-1.23004E-003	0.00000E+000	-3.70030E-001	0.00000E+000	10	...........	1583.05
	323	3.23	6.75055E-001	-1.23004E-003	0.00000E+000	-3.70030E-001	0.00000E+000	10	...........	1583.05
	324	3.24	6.72603E-001	-1.23009E-003	0.00000E+000	-3.70030E-001	0.00000E+000	10	...........	1583.05
	325	3.25	6.70155E-001	-1.23001E-003	0.00000E+000	-3.70030E-001	0.00000E+000	10	...........	1583.05
	326	3.26	6.67714E-001	-1.23004E-003	0.00000E+000	-3.70030E-001	0.00000E+000	10	...........	1583.05
	327	3.27	6.65238E-001	-1.23001E-003	0.00000E+000	-3.70030E-001	0.00000E+000	10	...........	1583.05
	328	3.28	6.62807E-001	-1.23000E-003	0.00000E+000	-3.70030E-001	0.00000E+000	10	...........	1583.05
	329	3.29	6.60384E-001	-1.23000E-003	0.00000E+000	-3.70030E-001	0.00000E+000	10	...........	1583.05
	330	3.3	6.57938E-001	-1.23007E-003	0.00000E+000	-3.70030E-001	0.00000E+000	10	...........	1583.05
	331	3.31	6.55516E-001	-1.23006E-003	0.00000E+000	-3.70030E-001	0.00000E+000	10	...........	1583.05
	332	3.32	6.53080E-001	-1.23009E-003	0.00000E+000	-3.70030E-001	0.00000E+000	10	...........	1583.05
	333	3.33	6.50641E-001	-1.23003E-003	0.00000E+000	-3.70030E-001	0.00000E+000	10	...........	1583.05
	334	3.34	6.48250E-001	-1.23007E-003	0.00000E+000	-3.70030E-001	0.00000E+000	10	...........	1583.05
	335	3.35	6.45809E-001	-1.23005E-003	0.00000E+000	-3.70030E-001	0.00000E+000	10	...........	1583.05
	336	3.36	6.43420E-001	-1.23001E-003	0.00000E+000	-3.70030E-001	0.00000E+000	10	...........	1583.05
	337	3.37	6.41005E-001	-1.23003E-003	0.00000E+000	-3.70030E-001	0.00000E+000	10	...........	1583.05
	338	3.38	6.38585E-001	-1.23003E-003	0.00000E+000	-3.70030E-001	0.00000E+000	10	...........	1583.05
	339	3.39	6.36180E-001	-1.23004E-003	0.00000E+000	-3.70030E-001	0.00000E+000	10	...........	1583.05
	340	3.4	6.33793E-001	-1.23004E-003	0.00000E+000	-3.70030E-001	0.00000E+000	10	...........	1583.05
	341	3.41	6.31407E-001	-1.23002E-003	0.00000E+000	-3.70030E-001	0.00000E+000	10	...........	1583.05
	342	3.42	6.29011E-001	-1.23004E-003	0.00000E+000	-3.70030E-001	0.00000E+000	10	...........	1583.05
	343	3.43	6.26625E-001	-1.23000E-003	0.00000E+000	-3.70030E-001	0.00000E+000	10	...........	1583.05
	344	3.44	6.24256E-001	-1.23001E-003	0.00000E+000	-3.70030E-001	0.00000E+000	10	...........	1583.05
	345	3.45	6.21870E-001	-1.23006E-003	0.00000E+000	-3.70030E-001	0.00000E+000	10	...........	1583.05
	346	3.46	6.19489E-001	-1.23005E-003	0.00000E+000	-3.70030E-001	0.00000E+000	10	...........	1583.05
	347	3.47	6.17108E-001	-1.23003E-003	0.00000E+000	-3.70030E-001	0.00000E+000	10	...........	1583.05
	348	3.48	6.14714E-001	-1.23007E-003	0.00000E+000	-3.70030E-001	0.00000E+000	10	...........	1583.05
	349	3.49	6.12344E-001	-1.23004E-003	0.00000E+000	-3.70030E-001	0.00000E+000	10	...........	1583.05
	350	3.5	6.09986E-001	-1.23006E-003	0.00000E+000	-3.70030E-001	0.00000E+000	10	...........	1583.05
	351	3.51	6.07625E-001	-1.23002E-003	0.00000E+000	-3.70030E-001	0.00000E+000	10	...........	1583.05
	352	3.52	6.05264E-001	-1.23006E-003	0.00000E+000	-3.70030E-001	0.00000E+000	10	...........	1583.05
	353	3.53	6.02929E-001	-1.23004E-003	0.00000E+000	-3.70030E-001	0.00000E+000	10	...........	1583.05
	354	3.54	6.00534E-001	-1.23005E-003	0.00000E+000	-3.70030E-001	0.00000E+000	10	...........	1583.05
	355	3.55	5.98198E-001	-1.23003E-003	0.00000E+000	-3.70030E-001	0.00000E+000	10	...........	1583.05
	356	3.56	5.95885E-001	-1.23002E-003	0.00000E+000	-3.70030E-001	0.00000E+000	10	...........	1583.05
	357	3.57	5.93547E-001	-1.23004E-003	0.00000E+000	-3.70030E-001	0.00000E+000	10	...........	1583.05
	358	3.58	5.91214E-001	-1.23002E-003	0.00000E+000	-3.70030E-001	0.00000E+000	10	...........	1583.05
	359	3.59	5.88845E-001	-1.23006E-003	0.00000E+000	-3.70030E-001	0.00000E+000	10	...........	1583.05
	360	3.6	5.86543E-001	-1.22998E-003	0.00000E+000	-3.70030E-001	0.00000E+000	10	...........	1583.05
	361	3.61	5.84206E-001	-1.23001E-003	0.00000E+000	-3.70030E-001	0.00000E+000	10	...........	1583.05
	362	3.62	5.81870E-001	-1.23006E-003	0.00000E+000	-3.70030E-001	0.00000E+000	10	...........	1583.05
	363	3.63	5.79562E-001	-1.23001E-003	0.00000E+000	-3.70030E-001	0.00000E+000	10	...........	1583.05
	364	3.64	5.77246E-001	-1.23002E-003	0.00000E+000	-3.70030E-001	0.00000E+000	10	...........	1583.05
	365	3.65	5.74922E-001	-1.23007E-003	0.00000E+000	-3.70030E-001	0.00000E+000	10	...........	1583.05
	366	3.66	5.72620E-001	-1.23000E-003	0.00000E+000	-3.70030E-001	0.00000E+000	10	...........	1583.05
	367	3.67	5.70325E-001	-1.23006E-003	0.00000E+000	-3.70030E-001	0.00000E+000	10	...........	1583.05
	368	3.68	5.68002E-001	-1.23004E-003	0.00000E+000	-3.70030E-001	0.00000E+000	10	...........	1583.05
	369	3.69	5.65695E-001	-1.23003E-003	0.00000E+000	-3.70030E-001	0.00000E+000	10	...........	1583.05
	370	3.7	5.63370E-001	-1.23011E-003	0.00000E+000	-3.70030E-001	0.00000E+000	10	...........	1583.05
	371	3.71	5.61074E-001	-1.23006E-003	0.00000E+000	-3.70030E-001	0.00000E+000	10	...........	1583.05
	372	3.72	5.58796E-001	-1.23002E-003	0.00000E+000	-3.70030E-001	0.00000E+000	10	...........	1583.05
	373	3.73	5.56511E-001	-1.23001E-003	0.00000E+000	-3.70030E-001	0.00000E+000	10	...........	1583.05
	374	3.74	5.54222E-001	-1.23002E-003	0.00000E+000	-3.70030E-001	0.00000E+000	10	...........	1583.05
	375	3.75	5.51928E-001	-1.23006E-003	0.00000E+000	-3.70030E-001	0.00000E+000	10	...........	1583.05
	376	3.76	5.49643E-001	-1.23004E-003	0.00000E+000	-3.70030E-001	0.00000E+000	10	...........	1583.05
	377	3.77	5.47351E-001	-1.23011E-003	0.00000E+000	-3.70030E-001	0.00000E+000	10	...........	1583.05
	378	3.78	5.45104E-001	-1.23003E-003	0.00000E+000	-3.70030E-001	0.00000E+000	10	...........	1583.05
	379	3.79	5.42831E-001	-1.23005E-003	0.00000E+000	-3.70030E-001	0.00000E+000	10	...........	1583.05
	380	3.8	5.40578E-001	-1.23002E-003	0.00000E+000	-3.70030E-001	0.00000E+000	10	...........	1583.05
	381	3.81	5.38336E-001	-1.22999E-003	0.00000E+000	-3.70030E-001	0.00000E+000	10	...........	1583.05
	382	3.82	5.36056E-001	-1.23005E-003	0.00000E+000	-3.70030E-001	0.00000E+000	10	...........	1583.05
	383	3.83	5.33763E-001	-1.23005E-003	0.00000E+000	-3.70030E-001	0.00000E+000	10	...........	1583.05
	384	3.84	5.31522E-001	-1.23011E-003	0.00000E+000	-3.70030E-001	0.00000E+000	10	...........	1583.05
	385	3.85	5.29270E-001	-1.23012E-003	0.00000E+000	-3.70030E-001	0.00000E+000	10	...........	1583.05
	386	3.86	5.27014E-001	-1.23007E-003	0.00000E+000	-3.70030E-001	0.00000E+000	10	...........	1583.05
	387	3.87	5.24759E-001	-1.23009E-003	0.00000E+000	-3.70030E-001	0.00000E+000	10	...........	1583.05
	388	3.88	5.22532E-001	-1.23005E-003	0.00000E+000	-3.70030E-001	0.00000E+000	10	...........	1583.05
	389	3.89	5.20297E-001	-1.23002E-003	0.00000E+000	-3.70030E-001	0.00000E+000	10	...........	1583.05
	390	3.9	5.18057E-001	-1.23005E-003	0.00000E+000	-3.70030E-001	0.00000E+000	10	...........	1583.05
	391	3.91	5.15849E-001	-1.23004E-003	0.00000E+000	-3.70030E-001	0.00000E+000	10	...........	1583.05
	392	3.92	5.13623E-001	-1.23000E-003	0.00000E+000	-3.70030E-001	0.00000E+000	10	...........	1583.05
	393	3.93	5.11345E-001	-1.23009E-003	0.00000E+000	-3.70030E-001	0.00000E+000	10	...........	1583.25
	394	3.94	5.09099E-001	-1.23012E-003	0.00000E+000	-3.70030E-001	0.00000E+000	10	...........	1583.25
	395	3.95	5.06899E-001	-1.23011E-003	0.00000E+000	-3.70030E-001	0.00000E+000	10	...........	1583.25
	396	3.96	5.04681E-001	-1.23004E-003	0.00000E+000	-3.70030E-001	0.00000E+000	10	...........	1583.25
	397	3.97	5.02475E-001	-1.23001E-003	0.00000E+000	-3.70030E-001	0.00000E+000	10	...........	1583.25
	398	3.98	5.00263E-001	-1.23005E-003	0.00000E+000	-3.70030E-001	0.00000E+000	10	...........	1583.25
	399	3.99	4.98042E-001	-1.23004E-003	0.00000E+000	-3.70030E-001	0.00000E+000	10	...........	1583.25
	400	4	4.95839E-001	-1.23002E-003	0.00000E+000	-3.70030E-001	0.00000E+000	10	...........	1583.25
	401	4.01	4.93653E-001	-1.23006E-003	0.00000E+000	-3.70030E-001	0.00000E+000	10	...........	1583.25
	402	4.02	4.91449E-001	-1.23007E-003	0.00000E+000	-3.70030E-001	0.00000E+000	10	...........	1583.25
	403	4.03	4.89252E-001	-1.23002E-003	0.00000E+000	-3.70030E-001	0.00000E+000	10	...........	1583.25
	404	4.04	4.87061E-001	-1.23007E-003	0.00000E+000	-3.70030E-001	0.00000E+000	10	...........	1583.25
	405	4.05	4.84846E-001	-1.23009E-003	0.00000E+000	-3.70030E-001	0.00000E+000	10	...........	1583.25
	406	4.06	4.82672E-001	-1.23006E-003	0.00000E+000	-3.70030E-001	0.00000E+000	10	...........	1583.25
	407	4.07	4.80467E-001	-1.23005E-003	0.00000E+000	-3.70030E-001	0.00000E+000	10	...........	1583.25
	408	4.08	4.78303E-001	-1.23005E-003	0.00000E+000	-3.70030E-001	0.00000E+000	10	...........	1583.25
	409	4.09	4.76122E-001	-1.23003E-003	0.00000E+000	-3.70030E-001	0.00000E+000	10	...........	1583.25
	410	4.1	4.73958E-001	-1.23007E-003	0.00000E+000	-3.70030E-001	0.00000E+000	10	...........	1583.25
	411	4.11	4.71743E-001	-1.23008E-003	0.00000E+000	-3.70030E-001	0.00000E+000	10	...........	1583.25
	412	4.12	4.69567E-001	-1.23008E-003	0.00000E+000	-3.70030E-001	0.00000E+000	10	...........	1583.25
	413	4.13	4.67408E-001	-1.23011E-003	0.00000E+000	-3.70030E-001	0.00000E+000	10	...........	1583.25
	414	4.14	4.65241E-001	-1.23011E-003	0.00000E+000	-3.70030E-001	0.00000E+000	10	...........	1583.25
	415	4.15	4.63103E-001	-1.23008E-003	0.00000E+000	-3.70030E-001	0.00000E+000	10	...........	1583.25
	416	4.16	4.60930E-001	-1.23007E-003	0.00000E+000	-3.70030E-001	0.00000E+000	10	...........	1583.25
	417	4.17	4.58759E-001	-1.23004E-003	0.00000E+000	-3.70030E-001	0.00000E+000	10	...........	1583.25
	418	4.18	4.56614E-001	-1.23004E-003	0.00000E+000	-3.70030E-001	0.00000E+000	10	...........	1583.25
	419	4.19	4.54473E-001	-1.23004E-003	0.00000E+000	-3.70030E-001	0.00000E+000	10	...........	1583.25
	420	4.2	4.52305E-001	-1.23009E-003	0.00000E+000	-3.70030E-001	0.00000E+000	10	...........	1583.25
	421	4.21	4.50159E-001	-1.23009E-003	0.00000E+000	-3.70030E-001	0.00000E+000	10	...........	1583.25
	422	4.22	4.48015E-001	-1.23007E-003	0.00000E+000	-3.70030E-001	0.00000E+000	10	...........	1583.25
	423	4.23	4.45866E-001	-1.23006E-003	0.00000E+000	-3.70030E-001	0.00000E+000	10	...........	1583.25
	424	4.24	4.43734E-001	-1.23010E-003	0.00000E+000	-3.70030E-001	0.00000E+000	10	...........	1583.25
	425	4.25	4.41598E-001	-1.23005E-003	0.00000E+000	-3.70030E-001	0.00000E+000	10	...........	1583.25
	426	4.26	4.39473E-001	-1.23005E-003	0.00000E+000	-3.70030E-001	0.00000E+000	10	...........	1583.25
	427	4.27	4.37344E-001	-1.23004E-003	0.00000E+000	-3.70030E-001	0.00000E+000	10	...........	1583.25
	428	4.28	4.35212E-001	-1.23000E-003	0.00000E+000	-3.70030E-001	0.00000E+000	10	...........	1583.25
	429	4.29	4.33053E-001	-1.23004E-003	0.00000E+000	-3.70030E-001	0.00000E+000	10	...........	1583.25
	430	4.3	4.30937E-001	-1.23010E-003	0.00000E+000	-3.70030E-001	0.00000E+000	10	...........	1583.25
	431	4.31	4.28823E-001	-1.23004E-003	0.00000E+000	-3.70030E-001	0.00000E+000	10	...........	1583.25
	432	4.32	4.26730E-001	-1.22998E-003	0.00000E+000	-3.70030E-001	0.00000E+000	10	...........	1583.25
	433	4.33	4.24615E-001	-1.23001E-003	0.00000E+000	-3.70030E-001	0.00000E+000	10	...........	1583.25
	434	4.34	4.22478E-001	-1.23004E-003	0.00000E+000	-3.70030E-001	0.00000E+000	10	...........	1583.25
	435	4.35	4.20351E-001	-1.23007E-003	0.00000E+000	-3.70030E-001	0.00000E+000	10	...........	1583.25
	436	4.36	4.18250E-001	-1.23007E-003	0.00000E+000	-3.70030E-001	0.00000E+000	10	...........	1583.25
	437	4.37	4.16138E-001	-1.23011E-003	0.00000E+000	-3.70030E-001	0.00000E+000	10	...........	1583.25
	438	4.38	4.14032E-001	-1.23007E-003	0.00000E+000	-3.70030E-001	0.00000E+000	10	...........	1583.25
	439	4.39	4.11959E-001	-1.23007E-003	0.00000E+000	-3.70030E-001	0.00000E+000	10	...........	1583.25
	440	4.4	4.09846E-001	-1.23010E-003	0.00000E+000	-3.70030E-001	0.00000E+000	10	...........	1583.25
	441	4.41	4.07730E-001	-1.23008E-003	0.00000E+000	-3.70030E-001	0.00000E+000	10	...........	1583.25
	442	4.42	4.05624E-001	-1.23011E-003	0.00000E+000	-3.70030E-001	0.00000E+000	10	...........	1583.25
	443	4.43	4.03554E-001	-1.23007E-003	0.00000E+000	-3.70030E-001	0.00000E+000	10	...........	1583.25
	444	4.44	4.01446E-001	-1.23007E-003	0.00000E+000	-3.70030E-001	0.00000E+000	10	...........	1583.25
	445	4.45	3.99375E-001	-1.23007E-003	0.00000E+000	-3.70030E-001	0.00000E+000	10	...........	1583.25
	446	4.46	3.97296E-001	-1.23002E-003	0.00000E+000	-3.70030E-001	0.00000E+000	10	...........	1583.25
	447	4.47	3.95181E-001	-1.23007E-003	0.00000E+000	-3.70030E-001	0.00000E+000	10	...........	1583.25
	448	4.48	3.93116E-001	-1.23004E-003	0.00000E+000	-3.70030E-001	0.00000E+000	10	...........	1583.25
	449	4.49	3.91037E-001	-1.23000E-003	0.00000E+000	-3.70030E-001	0.00000E+000	10	...........	1583.25
	450	4.5	3.88987E-001	-1.23000E-003	0.00000E+000	-3.70030E-001	0.00000E+000	10	...........	1583.25
	451	4.51	3.86915E-001	-1.23001E-003	0.00000E+000	-3.70030E-001	0.00000E+000	10	...........	1583.25
	452	4.52	3.84838E-001	-1.23004E-003	0.00000E+000	-3.70030E-001	0.00000E+000	10	...........	1583.25
	453	4.53	3.82738E-001	-1.23009E-003	0.00000E+000	-3.70030E-001	0.00000E+000	10	...........	1583.25
	454	4.54	3.80670E-001	-1.23006E-003	0.00000E+000	-3.70030E-001	0.00000E+000	10	...........	1583.25
	455	4.55	3.78612E-001	-1.23008E-003	0.00000E+000	-3.70030E-001	0.00000E+000	10	...........	1583.25
	456	4.56	3.76545E-001	-1.23005E-003	0.00000E+000	-3.70030E-001	0.00000E+000	10	...........	1583.25
	457	4.57	3.74504E-001	-1.23009E-003	0.00000E+000	-3.70030E-001	0.00000E+000	10	...........	1583.25
	458	4.58	3.72454E-001	-1.23006E-003	0.00000E+000	-3.70030E-001	0.00000E+000	10	...........	1583.25
	459	4.59	3.70360E-001	-1.23002E-003	0.00000E+000	-3.70030E-001	0.00000E+000	10	...........	1583.25
	460	4.6	3.68328E-001	-1.23008E-003	0.00000E+000	-3.70030E-001	0.00000E+000	10	...........	1583.25
	461	4.61	3.66284E-001	-1.23002E-003	0.00000E+000	-3.70030E-001	0.00000E+000	10	...........	1583.25
	462	4.62	3.64244E-001	-1.22999E-003	0.00000E+000	-3.70030E-001	0.00000E+000	10	...........	1583.25
	463	4.63	3.62189E-001	-1.23009E-003	0.00000E+000	-3.70030E-001	0.00000E+000	10	...........	1583.25
	464	4.64	3.60149E-001	-1.23011E-003	0.00000E+000	-3.70030E-001	0.00000E+000	10	...........	1583.25
	465	4.65	3.58067E-001	-1.23007E-003	0.00000E+000	-3.70030E-001	0.00000E+000	10	...........	1583.25
	466	4.66	3.56045E-001	-1.23008E-003	0.00000E+000	-3.70030E-001	0.00000E+000	10	...........	1583.25
	467	4.67	3.54003E-001	-1.23009E-003	0.00000E+000	-3.70030E-001	0.00000E+000	10	...........	1583.25
	468	4.68	3.51976E-001	-1.23007E-003	0.00000E+000	-3.70030E-001	0.00000E+000	10	...........	1583.25
	469	4.69	3.49937E-001	-1.23010E-003	0.00000E+000	-3.70030E-001	0.00000E+000	10	...........	1583.25
	470	4.7	3.47914E-001	-1.23008E-003	0.00000E+000	-3.70030E-001	0.00000E+000	10	...........	1583.25
	471	4.71	3.45884E-001	-1.23005E-003	0.00000E+000	-3.70030E-001	0.00000E+000	10	...........	1583.25
	472	4.72	3.43863E-001	-1.23004E-003	0.00000E+000	-3.70030E-001	0.00000E+000	10	...........	1583.25
	473	4.73	3.41840E-001	-1.23010E-003	0.00000E+000	-3.70030E-001	0.00000E+000	10	...........	1583.25
	474	4.74	3.39813E-001	-1.23005E-003	0.00000E+000	-3.70030E-001	0.00000E+000	10	...........	1583.25
	475	4.75	3.37788E-001	-1.23009E-003	0.00000E+000	-3.70030E-001	0.00000E+000	10	...........	1583.25
	476	4.76	3.35765E-001	-1.23009E-003	0.00000E+000	-3.70030E-001	0.00000E+000	10	...........	1583.25
	477	4.77	3.33754E-001	-1.23011E-003	0.00000E+000	-3.70030E-001	0.00000E+000	10	...........	1583.25
	478	4.78	3.31713E-001	-1.23009E-003	0.00000E+000	-3.70030E-001	0.00000E+000	10	...........	1583.25
	479	4.79	3.29718E-001	-1.23002E-003	0.00000E+000	-3.70030E-001	0.00000E+000	10	...........	1583.25
	480	4.8	3.27725E-001	-1.23004E-003	0.00000E+000	-3.70030E-001	0.00000E+000	10	...........	1583.25
	481	4.81	3.25698E-001	-1.23003E-003	0.00000E+000	-3.70030E-001	0.00000E+000	10	...........	1583.25
	482	4.82	3.23683E-001	-1.23008E-003	0.00000E+000	-3.70030E-001	0.00000E+000	10	...........	1583.25
	483	4.83	3.21705E-001	-1.23006E-003	0.00000E+000	-3.70030E-001	0.00000E+000	10	...........	1583.25
	484	4.84	3.19679E-001	-1.23003E-003	0.00000E+000	-3.70030E-001	0.00000E+000	10	...........	1583.25
	485	4.85	3.17689E-001	-1.23008E-003	0.00000E+000	-3.70030E-001	0.00000E+000	10	...........	1583.25
	486	4.86	3.15688E-001	-1.23007E-003	0.00000E+000	-3.70030E-001	0.00000E+000	10	...........	1583.25
	487	4.87	3.13688E-001	-1.23008E-003	0.00000E+000	-3.70030E-001	0.00000E+000	10	...........	1583.25
	488	4.88	3.11697E-001	-1.23011E-003	0.00000E+000	-3.70030E-001	0.00000E+000	10	...........	1583.25
	489	4.89	3.09714E-001	-1.23010E-003	0.00000E+000	-3.70030E-001	0.00000E+000	10	...........	1583.25
	490	4.9	3.07714E-001	-1.23009E-003	0.00000E+000	-3.70030E-001	0.00000E+000	10	...........	1583.25
	491	4.91	3.05690E-001	-1.23004E-003	0.00000E+000	-3.70030E-001	0.00000E+000	10	...........	1583.25
	492	4.92	3.03729E-001	-1.23007E-003	0.00000E+000	-3.70030E-001	0.00000E+000	10	...........	1583.25
	493	4.93	3.01736E-001	-1.23009E-003	0.00000E+000	-3.70030E-001	0.00000E+000	10	...........	1582.96
	494	4.94	2.99765E-001	-1.23007E-003	0.00000E+000	-3.70030E-001	0.00000E+000	10	...........	1582.96
	495	4.95	2.97785E-001	-1.23004E-003	0.00000E+000	-3.70030E-001	0.00000E+000	10	...........	1582.96
	496	4.96	2.95807E-001	-1.23006E-003	0.00000E+000	-3.70030E-001	0.00000E+000	10	...........	1582.96
	497	4.97	2.93816E-001	-1.23004E-003	0.00000E+000	-3.70030E-001	0.00000E+000	10	...........	1582.96
	498	4.98	2.91833E-001	-1.23007E-003	0.00000E+000	-3.70030E-001	0.00000E+000	10	...........	1582.96
	499	4.99	2.89888E-001	-1.23003E-003	0.00000E+000	-3.70030E-001	0.00000E+000	10	...........	1582.96
	500	5	2.87891E-001	-1.22999E-003	0.00000E+000	-3.70030E-001	0.00000E+000	10	...........	1582.96
	501	5.01	2.85934E-001	-1.23004E-003	0.00000E+000	-3.70030E-001	0.00000E+000	10	...........	1582.96
	502	5.02	2.83975E-001	-1.23003E-003	0.00000E+000	-3.70030E-001	0.00000E+000	10	...........	1582.96
	503	5.03	2.82013E-001	-1.23008E-003	0.00000E+000	-3.70030E-001	0.00000E+000	10	...........	1582.96
	504	5.04	2.80030E-001	-1.23005E-003	0.00000E+000	-3.70030E-001	0.00000E+000	10	...........	1582.96
	505	5.05	2.78082E-001	-1.23004E-003	0.00000E+000	-3.70030E-001	0.00000E+000	10	...........	1582.96
	506	5.06	2.76132E-001	-1.23002E-003	0.00000E+000	-3.70030E-001	0.00000E+000	10	...........	1582.96
	507	5.07	2.74163E-001	-1.23008E-003	0.00000E+000	-3.70030E-001	0.00000E+000	10	...........	1582.96
	508	5.08	2.72206E-001	-1.23007E-003	0.00000E+000	-3.70030E-001	0.00000E+000	10	...........	1582.96
	509	5.09	2.70249E-001	-1.23010E-003	0.00000E+000	-3.70030E-001	0.00000E+000	10	...........	1582.96
	510	5.1	2.68286E-001	-1.23008E-003	0.00000E+000	-3.70030E-001	0.00000E+000	10	...........	1582.96
	511	5.11	2.66344E-001	-1.23006E-003	0.00000E+000	-3.70030E-001	0.00000E+000	10	...........	1582.96
	512	5.12	2.64412E-001	-1.23009E-003	0.00000E+000	-3.70030E-001	0.00000E+000	10	...........	1582.96
	513	5.13	2.62463E-001	-1.23005E-003	0.00000E+000	-3.70030E-001	0.00000E+000	10	...........	1582.96
	514	5.14	2.60536E-001	-1.23008E-003	0.00000E+000	-3.70030E-001	0.00000E+000	10	...........	1582.96
	515	5.15	2.58596E-001	-1.23004E-003	0.00000E+000	-3.70030E-001	0.00000E+000	10	...........	1582.96
	516	5.16	2.56647E-001	-1.23007E-003	0.00000E+000	-3.70030E-001	0.00000E+000	10	...........	1582.96
	517	5.17	2.54698E-001	-1.23001E-003	0.00000E+000	-3.70030E-001	0.00000E+000	10	...........	1582.96
	518	5.18	2.52757E-001	-1.23004E-003	0.00000E+000	-3.70030E-001	0.00000E+000	10	...........	1582.96
	519	5.19	2.50841E-001	-1.23004E-003	0.00000E+000	-3.70030E-001	0.00000E+000	10	...........	1582.96
	520	5.2	2.48901E-001	-1.23008E-003	0.00000E+000	-3.70030E-001	0.00000E+000	10	...........	1582.96
	521	5.21	2.46987E-001	-1.23006E-003	0.00000E+000	-3.70030E-001	0.00000E+000	10	...........	1582.96
	522	5.22	2.45064E-001	-1.23007E-003	0.00000E+000	-3.70030E-001	0.00000E+000	10	...........	1582.96
	523	5.23	2.43139E-001	-1.23008E-003	0.00000E+000	-3.70030E-001	0.00000E+000	10	...........	1582.96
	524	5.24	2.41243E-001	-1.23002E-003	0.00000E+000	-3.70030E-001	0.00000E+000	10	...........	1582.96
	525	5.25	2.39327E-001	-1.23007E-003	0.00000E+000	-3.70030E-001	0.00000E+000	10	...........	1582.96
	526	5.26	2.37408E-001	-1.23002E-003	0.00000E+000	-3.70030E-001	0.00000E+000	10	...........	1582.96
	527	5.27	2.35496E-001	-1.23009E-003	0.00000E+000	-3.70030E-001	0.00000E+000	10	...........	1582.96
	528	5.28	2.33589E-001	-1.23009E-003	0.00000E+000	-3.70030E-001	0.00000E+000	10	...........	1582.96
	529	5.29	2.31682E-001	-1.23006E-003	0.00000E+000	-3.70030E-001	0.00000E+000	10	...........	1582.96
	530	5.3	2.29776E-001	-1.23008E-003	0.00000E+000	-3.70030E-001	0.00000E+000	10	...........	1582.96
	531	5.31	2.27872E-001	-1.23005E-003	0.00000E+000	-3.70030E-001	0.00000E+000	10	...........	1582.96
	532	5.32	2.25975E-001	-1.23007E-003	0.00000E+000	-3.70030E-001	0.00000E+000	10	...........	1582.96
	533	5.33	2.24079E-001	-1.23006E-003	0.00000E+000	-3.70030E-001	0.00000E+000	10	...........	1582.96
	534	5.34	2.22182E-001	-1.23005E-003	0.00000E+000	-3.70030E-001	0.00000E+000	10	...........	1582.96
	535	5.35	2.20294E-001	-1.23007E-003	0.00000E+000	-3.70030E-001	0.00000E+000	10	...........	1582.96
	536	5.36	2.18403E-001	-1.23005E-003	0.00000E+000	-3.70030E-001	0.00000E+000	10	...........	1582.96
	537	5.37	2.16518E-001	-1.23004E-003	0.00000E+000	-3.70030E-001	0.00000E+000	10	...........	1582.96
	538	5.38	2.14636E-001	-1.23008E-003	0.00000E+000	-3.70030E-001	0.00000E+000	10	...........	1582.96
	539	5.39	2.12755E-001	-1.23002E-003	0.00000E+000	-3.70030E-001	0.00000E+000	10	...........	1582.96
	540	5.4	2.10878E-001	-1.23002E-003	0.00000E+000	-3.70030E-001	0.00000E+000	10	...........	1582.96
	541	5.41	2.09003E-001	-1.23006E-003	0.00000E+000	-3.70030E-001	0.00000E+000	10	...........	1582.96
	542	5.42	2.07128E-001	-1.23010E-003	0.00000E+000	-3.70030E-001	0.00000E+000	10	...........	1582.96
	543	5.43	2.05260E-001	-1.23011E-003	0.00000E+000	-3.70030E-001	0.00000E+000	10	...........	1582.96
	544	5.44	2.03395E-001	-1.23008E-003	0.00000E+000	-3.70030E-001	0.00000E+000	10	...........	1582.96
	545	5.45	2.01533E-001	-1.23008E-003	0.00000E+000	-3.70030E-001	0.00000E+000	10	...........	1582.96
	546	5.46	1.99673E-001	-1.23004E-003	0.00000E+000	-3.70030E-001	0.00000E+000	10	...........	1582.96
	547	5.47	1.97819E-001	-1.23004E-003	0.00000E+000	-3.70030E-001	0.00000E+000	10	...........	1582.96
	548	5.48	1.95968E-001	-1.23006E-003	0.00000E+000	-3.70030E-001	0.00000E+000	10	...........	1582.96
	549	5.49	1.94118E-001	-1.23003E-003	0.00000E+000	-3.70030E-001	0.00000E+000	10	...........	1582.96
	550	5.5	1.92273E-001	-1.23004E-003	0.00000E+000	-3.70030E-001	0.00000E+000	10	...........	1582.96
	551	5.51	1.90428E-001	-1.23009E-003	0.00000E+000	-3.70030E-001	0.00000E+000	10	...........	1582.96
	552	5.52	1.88586E-001	-1.23006E-003	0.00000E+000	-3.70030E-001	0.00000E+000	10	...........	1582.96
	553	5.53	1.86755E-001	-1.23005E-003	0.00000E+000	-3.70030E-001	0.00000E+000	10	...........	1582.96
	554	5.54	1.84927E-001	-1.23011E-003	0.00000E+000	-3.70030E-001	0.00000E+000	10	...........	1582.96
	555	5.55	1.83094E-001	-1.23004E-003	0.00000E+000	-3.70030E-001	0.00000E+000	10	...........	1582.96
	556	5.56	1.81268E-001	-1.23011E-003	0.00000E+000	-3.70030E-001	0.00000E+000	10	...........	1582.96
	557	5.57	1.79446E-001	-1.23010E-003	0.00000E+000	-3.70030E-001	0.00000E+000	10	...........	1582.96
	558	5.58	1.77628E-001	-1.23011E-003	0.00000E+000	-3.70030E-001	0.00000E+000	10	...........	1582.96
	559	5.59	1.75814E-001	-1.23012E-003	0.00000E+000	-3.70030E-001	0.00000E+000	10	...........	1582.96
	560	5.6	1.74006E-001	-1.23011E-003	0.00000E+000	-3.70030E-001	0.00000E+000	10	...........	1582.96
	561	5.61	1.72201E-001	-1.23008E-003	0.00000E+000	-3.70030E-001	0.00000E+000	10	...........	1582.96
	562	5.62	1.70397E-001	-1.23004E-003	0.00000E+000	-3.70030E-001	0.00000E+000	10	...........	1582.96
	563	5.63	1.68598E-001	-1.23003E-003	0.00000E+000	-3.70030E-001	0.00000E+000	10	...........	1582.96
	564	5.64	1.66805E-001	-1.23005E-003	0.00000E+000	-3.70030E-001	0.00000E+000	10	...........	1582.96
	565	5.65	1.65014E-001	-1.23004E-003	0.00000E+000	-3.70030E-001	0.00000E+000	10	...........	1582.96
	566	5.66	1.63233E-001	-1.23002E-003	0.00000E+000	-3.70030E-001	0.00000E+000	10	...........	1582.96
	567	5.67	1.61451E-001	-1.23003E-003	0.00000E+000	-3.70030E-001	0.00000E+000	10	...........	1582.96
	568	5.68	1.59673E-001	-1.23003E-003	0.00000E+000	-3.70030E-001	0.00000E+000	10	...........	1582.96
	569	5.69	1.57900E-001	-1.23004E-003	0.00000E+000	-3.70030E-001	0.00000E+000	10	...........	1582.96
	570	5.7	1.56134E-001	-1.23002E-003	0.00000E+000	-3.70030E-001	0.00000E+000	10	...........	1582.96
	571	5.71	1.54367E-001	-1.23006E-003	0.00000E+000	-3.70030E-001	0.00000E+000	10	...........	1582.96
	572	5.72	1.52602E-001	-1.23014E-003	0.00000E+000	-3.70030E-001	0.00000E+000	10	...........	1582.96
	573	5.73	1.50845E-001	-1.23011E-003	0.00000E+000	-3.70030E-001	0.00000E+000	10	...........	1582.96
	574	5.74	1.49093E-001	-1.23011E-003	0.00000E+000	-3.70030E-001	0.00000E+000	10	...........	1582.96
	575	5.75	1.47342E-001	-1.23011E-003	0.00000E+000	-3.70030E-001	0.00000E+000	10	...........	1582.96
	576	5.76	1.45600E-001	-1.23012E-003	0.00000E+000	-3.70030E-001	0.00000E+000	10	...........	1582.96
	577	5.77	1.43859E-001	-1.23005E-003	0.00000E+000	-3.70030E-001	0.00000E+000	10	...........	1582.96
	578	5.78	1.42122E-001	-1.23005E-003	0.00000E+000	-3.70030E-001	0.00000E+000	10	...........	1582.96
	579	5.79	1.40392E-001	-1.23007E-003	0.00000E+000	-3.70030E-001	0.00000E+000	10	...........	1582.96
	580	5.8	1.38666E-001	-1.23006E-003	0.00000E+000	-3.70030E-001	0.00000E+000	10	...........	1582.96
	581	5.81	1.36947E-001	-1.23009E-003	0.00000E+000	-3.70030E-001	0.00000E+000	10	...........	1582.96
	582	5.82	1.35225E-001	-1.23005E-003	0.00000E+000	-3.70030E-001	0.00000E+000	10	...........	1582.96
	583	5.83	1.33519E-001	-1.23000E-003	0.00000E+000	-3.70030E-001	0.00000E+000	10	...........	1582.96
	584	5.84	1.31810E-001	-1.23004E-003	0.00000E+000	-3.70030E-001	0.00000E+000	10	...........	1582.96
	585	5.85	1.30106E-001	-1.23008E-003	0.00000E+000	-3.70030E-001	0.00000E+000	10	...........	1582.96
	586	5.86	1.28410E-001	-1.23009E-003	0.00000E+000	-3.70030E-001	0.00000E+000	10	...........	1582.96
	587	5.87	1.26713E-001	-1.23006E-003	0.00000E+000	-3.70030E-001	0.00000E+000	10	...........	1582.96
	588	5.88	1.25023E-001	-1.23010E-003	0.00000E+000	-3.70030E-001	0.00000E+000	10	...........	1582.96
	589	5.89	1.23340E-001	-1.23006E-003	0.00000E+000	-3.70030E-001	0.00000E+000	10	...........	1582.96
	590	5.9	1.21657E-001	-1.23007E-003	0.00000E+000	-3.70030E-001	0.00000E+000	10	...........	1582.96
	591	5.91	1.19983E-001	-1.23004E-003	0.00000E+000	-3.70030E-001	0.00000E+000	10	...........	1582.96
	592	5.92	1.18313E-001	-1.23004E-003	0.00000E+000	-3.70030E-001	0.00000E+000	10	...........	1582.96
	593	5.93	1.16650E-001	-1.23008E-003	0.00000E+000	-3.70030E-001	0.00000E+000	10	...........	1583.05
	594	5.94	1.14990E-001	-1.23004E-003	0.00000E+000	-3.70030E-001	0.00000E+000	10	...........	1583.05
	595	5.95	1.13338E-001	-1.23006E-003	0.00000E+000	-3.70030E-001	0.00000E+000	10	...........	1583.05
	596	5.96	1.11688E-001	-1.23002E-003	0.00000E+000	-3.70030E-001	0.00000E+000	10	...........	1583.05
	597	5.97	1.10039E-001	-1.23005E-003	0.00000E+000	-3.70030E-001	0.00000E+000	10	...........	1583.05
	598	5.98	1.08398E-001	-1.23000E-003	0.00000E+000	-3.70030E-001	0.00000E+000	10	...........	1583.05
	599	5.99	1.06763E-001	-1.23004E-003	0.00000E+000	-3.70030E-001	0.00000E+000	10	...........	1583.05
	600	6	1.05130E-001	-1.23008E-003	0.00000E+000	-3.70030E-001	0.00000E+000	10	...........	1583.05
	601	6.01	1.03502E-001	-1.23004E-003	0.00000E+000	-3.70030E-001	0.00000E+000	10	...........	1583.05
	602	6.02	1.01880E-001	-1.23006E-003	0.00000E+000	-3.70030E-001	0.00000E+000	10	...........	1583.05
	603	6.03	1.00264E-001	-1.23009E-003	0.00000E+000	-3.70030E-001	0.00000E+000	10	...........	1583.05
	604	6.04	9.86537E-002	-1.23008E-003	0.00000E+000	-3.70030E-001	0.00000E+000	10	...........	1583.05
	605	6.05	9.70390E-002	-1.23007E-003	0.00000E+000	-3.70030E-001	0.00000E+000	10	...........	1583.05
	606	6.06	9.54434E-002	-1.23008E-003	0.00000E+000	-3.70030E-001	0.00000E+000	10	...........	1583.05
	607	6.07	9.38444E-002	-1.23010E-003	0.00000E+000	-3.70030E-001	0.00000E+000	10	...........	1583.05
	608	6.08	9.22526E-002	-1.23005E-003	0.00000E+000	-3.70030E-001	0.00000E+000	10	...........	1583.05
	609	6.09	9.06632E-002	-1.23004E-003	0.00000E+000	-3.70030E-001	0.00000E+000	10	...........	1583.05
	610	6.1	8.90795E-002	-1.23011E-003	0.00000E+000	-3.70030E-001	0.00000E+000	10	...........	1583.05
	611	6.11	8.75043E-002	-1.23010E-003	0.00000E+000	-3.70030E-001	0.00000E+000	10	...........	1583.05
	612	6.12	8.59301E-002	-1.23008E-003	0.00000E+000	-3.70030E-001	0.00000E+000	10	...........	1583.05
	613	6.13	8.43628E-002	-1.23004E-003	0.00000E+000	-3.70030E-001	0.00000E+000	10	...........	1583.05
	614	6.14	8.27970E-002	-1.23007E-003	0.00000E+000	-3.70030E-001	0.00000E+000	10	...........	1583.05
	615	6.15	8.12416E-002	-1.23006E-003	0.00000E+000	-3.70030E-001	0.00000E+000	10	...........	1583.05
	616	6.16	7.96891E-002	-1.23007E-003	0.00000E+000	-3.70030E-001	0.00000E+000	10	...........	1583.05
	617	6.17	7.81438E-002	-1.23000E-003	0.00000E+000	-3.70030E-001	0.00000E+000	10	...........	1583.05
	618	6.18	7.65979E-002	-1.23003E-003	0.00000E+000	-3.70030E-001	0.00000E+000	10	...........	1583.05
	619	6.19	7.50604E-002	-1.23007E-003	0.00000E+000	-3.70030E-001	0.00000E+000	10	...........	1583.05
	620	6.2	7.35257E-002	-1.23008E-003	0.00000E+000	-3.70030E-001	0.00000E+000	10	...........	1583.05
	621	6.21	7.19987E-002	-1.23010E-003	0.00000E+000	-3.70030E-001	0.00000E+000	10	...........	1583.05
	622	6.22	7.04753E-002	-1.23000E-003	0.00000E+000	-3.70030E-001	0.00000E+000	10	...........	1583.05
	623	6.23	6.89540E-002	-1.23002E-003	0.00000E+000	-3.70030E-001	0.00000E+000	10	...........	1583.05
	624	6.24	6.74410E-002	-1.23005E-003	0.00000E+000	-3.70030E-001	0.00000E+000	10	...........	1583.05
	625	6.25	6.59307E-002	-1.23006E-003	0.00000E+000	-3.70030E-001	0.00000E+000	10	...........	1583.05
	626	6.26	6.44275E-002	-1.23004E-003	0.00000E+000	-3.70030E-001	0.00000E+000	10	...........	1583.05
	627	6.27	6.29273E-002	-1.23006E-003	0.00000E+000	-3.70030E-001	0.00000E+000	10	...........	1583.05
	628	6.28	6.14334E-002	-1.23004E-003	0.00000E+000	-3.70030E-001	0.00000E+000	10	...........	1583.05
	629	6.29	5.99419E-002	-1.23005E-003	0.00000E+000	-3.70030E-001	0.00000E+000	10	...........	1583.05
	630	6.3	5.84561E-002	-1.23007E-003	0.00000E+000	-3.70030E-001	0.00000E+000	10	...........	1583.05
	631	6.31	5.69774E-002	-1.23007E-003	0.00000E+000	-3.70030E-001	0.00000E+000	10	...........	1583.05
	632	6.32	5.55039E-002	-1.23004E-003	0.00000E+000	-3.70030E-001	0.00000E+000	10	...........	1583.05
	633	6.33	5.40338E-002	-1.23006E-003	0.00000E+000	-3.70030E-001	0.00000E+000	10	...........	1583.05
	634	6.34	5.25673E-002	-1.23004E-003	0.00000E+000	-3.70030E-001	0.00000E+000	10	...........	1583.05
	635	6.35	5.11071E-002	-1.23006E-003	0.00000E+000	-3.70030E-001	0.00000E+000	10	...........	1583.05
	636	6.36	4.96477E-002	-1.23002E-003	0.00000E+000	-3.70030E-001	0.00000E+000	10	...........	1583.05
	637	6.37	4.81959E-002	-1.23007E-003	0.00000E+000	-3.70030E-001	0.00000E+000	10	...........	1583.05
	638	6.38	4.67508E-002	-1.23005E-003	0.00000E+000	-3.70030E-001	0.00000E+000	10	...........	1583.05
	639	6.39	4.53052E-002	-1.23007E-003	0.00000E+000	-3.70030E-001	0.00000E+000	10	...........	1583.05
	640	6.4	4.38692E-002	-1.23006E-003	0.00000E+000	-3.70030E-001	0.00000E+000	10	...........	1583.05
	641	6.41	4.24399E-002	-1.23004E-003	0.00000E+000	-3.70030E-001	0.00000E+000	10	...........	1583.05
	642	6.42	4.10119E-002	-1.23004E-003	0.00000E+000	-3.70030E-001	0.00000E+000	10	...........	1583.05
	643	6.43	3.95866E-002	-1.23004E-003	0.00000E+000	-3.70030E-001	0.00000E+000	10	...........	1583.05
	644	6.44	3.81658E-002	-1.23001E-003	0.00000E+000	-3.70030E-001	0.00000E+000	10	...........	1583.05
	645	6.45	3.67552E-002	-1.23002E-003	0.00000E+000	-3.70030E-001	0.00000E+000	10	...........	1583.05
	646	6.46	3.53456E-002	-1.23003E-003	0.00000E+000	-3.70030E-001	0.00000E+000	10	...........	1583.05
	647	6.47	3.39423E-002	-1.23000E-003	0.00000E+000	-3.70030E-001	0.00000E+000	10	...........	1583.05
	648	6.48	3.25444E-002	-1.22998E-003	0.00000E+000	-3.70030E-001	0.00000E+000	10	...........	1583.05
	649	6.49	3.11485E-002	-1.23002E-003	0.00000E+000	-3.70030E-001	0.00000E+000	10	...........	1583.05
	650	6.5	2.97564E-002	-1.23006E-003	0.00000E+000	-3.70030E-001	0.00000E+000	10	...........	1583.05
	651	6.51	2.83701E-002	-1.23010E-003	0.00000E+000	-3.70030E-001	0.00000E+000	10	...........	1583.05
	652	6.52	2.69897E-002	-1.23010E-003	0.00000E+000	-3.70030E-001	0.00000E+000	10	...........	1583.05
	653	6.53	2.56130E-002	-1.23007E-003	0.00000E+000	-3.70030E-001	0.00000E+000	10	...........	1583.05
	654	6.54	2.42414E-002	-1.23009E-003	0.00000E+000	-3.70030E-001	0.00000E+000	10	...........	1583.05
	655	6.55	2.28726E-002	-1.23012E-003	0.00000E+000	-3.70030E-001	0.00000E+000	10	...........	1583.05
	656	6.56	2.15149E-002	-1.23006E-003	0.00000E+000	-3.70030E-001	0.00000E+000	10	...........	1583.05
	657	6.57	2.01541E-002	-1.23004E-003	0.00000E+000	-3.70030E-001	0.00000E+000	10	...........	1583.05
	658	6.58	1.87979E-002	-1.23007E-003	0.00000E+000	-3.70030E-001	0.00000E+000	10	...........	1583.05
	659	6.59	1.74462E-002	-1.23006E-003	0.00000E+000	-3.70030E-001	0.00000E+000	10	...........	1583.05
	660	6.6	1.61055E-002	-1.23001E-003	0.00000E+000	-3.70030E-001	0.00000E+000	10	...........	1583.05
	661	6.61	1.47617E-002	-1.23002E-003	0.00000E+000	-3.70030E-001	0.00000E+000	10	...........	1583.05
	662	6.62	1.34268E-002	-1.23006E-003	0.00000E+000	-3.70030E-001	0.00000E+000	10	...........	1583.05
	663	6.63	1.20946E-002	-1.23004E-003	0.00000E+000	-3.70030E-001	0.00000E+000	10	...........	1583.05
	664	6.64	1.07665E-002	-1.23012E-003	0.00000E+000	-3.70030E-001	0.00000E+000	10	...........	1583.05
	665	6.65	9.44287E-003	-1.23009E-003	0.00000E+000	-3.70030E-001	0.00000E+000	10	...........	1583.05
	666	6.66	8.12119E-003	-1.23012E-003	0.00000E+000	-3.70030E-001	0.00000E+000	10	...........	1583.05
	667	6.67	6.80764E-003	-1.23007E-003	0.00000E+000	-3.70030E-001	0.00000E+000	10	...........	1583.05
	668	6.68	5.49408E-003	-1.23010E-003	0.00000E+000	-3.70030E-001	0.00000E+000	10	...........	1583.05
	669	6.69	4.19013E-003	-1.23007E-003	0.00000E+000	-3.70030E-001	0.00000E+000	10	...........	1583.05
	670	6.7	2.88490E-003	-1.23009E-003	0.00000E+000	-3.70030E-001	0.00000E+000	10	...........	1583.05
	671	6.71	1.58816E-003	-1.23004E-003	0.00000E+000	-3.70030E-001	0.00000E+000	10	...........	1583.05
	672	6.72	2.90111E-004	-1.23010E-003	0.00000E+000	-3.70030E-001	0.00000E+000	10	...........	1583.05
	673	6.73	-9.98338E-004	-1.23005E-003	0.00000E+000	-3.70030E-001	0.00000E+000	10	...........	1583.05
