EXPLAIN
TAG	CHRONOP
TITLE	LABEL	Chronopotentiometry Scan	Test Identifier
DATE	LABEL	23/12/2024	Date
TIME	LABEL	19:13:04	Time
NOTES	NOTES	1	Notes...
	
PSTAT	PSTAT	IFC1000-07087	Potentiostat
IPRESTEP	QUANT	0.00000E+000	Pre-step Current(A)
TPRESTEP	QUANT	0.00000E+000	Pre-step Delay Time (s)
ISTEP1	QUANT	3.49125E-004	A Real Number
TSTEP1	QUANT	5.00000E+003	Step 1 Time (s)
ISTEP2	QUANT	-3.49125E-004	A Real Number
TSTEP2	QUANT	5.00000E+003	Step 2 Time (s)
SAMPLETIME	QUANT	1.00000E-002	Sample Period (s)
DECIMATE	TOGGLE	F	Decimate
VLIMITLOWER	QUANT	0.00000E+000	Lower Limit V (V)
VLIMITUPPER	QUANT	8.50000E-001	Upper Limit V (V)
EQDELAY	QUANT	1.00000E+000	Equil. Time (s)
SAMPLINGMODE	SELECTOR	1	Sampling Mode
AREA	QUANT	2.00000E+000	Sample Area (cm^2)
ELECTRODETYPE	SELECTOR	0	Electrode Type
STRIPPING	TOGGLE	F	Used for Stripping
SEQUENCER	TOGGLE	TRUE	Run as Sequence
PSTATMODEL	IQUANT	48	Pstat Model
PSTATSECTION	LABEL	IFC1000-07087	Pstat Section
PSTATSERIALNO	LABEL	07087	Pstat Serial Number
CTRLMODE	IQUANT	0	Control Mode
ELECTROMETER	IQUANT	0	RE=0 or CS=1
IESTAB	IQUANT	0	I/E Stability
CASPEED	IQUANT	4	Control Amp Speed
CONVENTION	IQUANT	1	Current Convention
ICHRANGE	IQUANT	2	Ich Range
ICHRANGEMODE	TOGGLE	T	Ich Auto Range
ICHOFFSETENABLE	TOGGLE	F	Ich Offset Enable
ICHOFFSET	QUANT	0	Ich Offset (V)
ICHFILTER	IQUANT	3	Ich Filter
VCHRANGE	IQUANT	3	Vch Range
VCHRANGEMODE	TOGGLE	T	Vch Auto Range
VCHOFFSETENABLE	TOGGLE	F	Vch Offset Enable
VCHOFFSET	QUANT	0	Vch Offset (V)
VCHFILTER	IQUANT	3	Vch Filter
IERANGELOWERLIMIT	IQUANT	4	I/E Range Lower Limit
IERANGEMODE	TOGGLE	F	I/E AutoRange
IERANGE	IQUANT	11	I/E Range
ACHSELECT	IQUANT	0	Ach Select
ACHRANGE	IQUANT	2	Ach Range
ACHOFFSETENABLE	TOGGLE	F	Ach Offset Enable
ACHOFFSET	QUANT	0	Ach Offset (V)
ACHFILTER	IQUANT	1	Ach Filter
SENSECABLEID	IQUANT	14	Sense Cable ID
PWRCABLEID	IQUANT	14	Power Cable ID
DCCALDATE	LABEL	11/14/2024	DC Calibration Date
ACCALDATE	LABEL	7/17/2019	AC Calibration Date
FRAMEWORKVERSION	LABEL	7.10.3	Framework Version
INSTRUMENTVERSION	LABEL	4.91	Instrument Version
COMMVERSION	LABEL	3.10	Communications Version
CPUPLDVERSION	LABEL	1.10	CPU PLD Version
CTRLPLDVERSION	LABEL	0.00	CTRL PLD Version
PSTATPLDVERSION	LABEL	0.00	PSTAT PLD Version
CURVE	TABLE	459
	Pt	T	Vf	Im	Vu	Sig	Ach	IERange	Over	Temp
	#	s	V vs. Ref.	A	V	V	V	#	bits	deg C
	0	0	3.24634E-001	-1.11895E-007	0.00000E+000	0.00000E+000	0.00000E+000	9	...........	 0.00
	1	0.01	3.36215E-001	3.48559E-004	0.00000E+000	1.04759E+000	0.00000E+000	9	...........	 0.00
	2	0.02	3.38879E-001	3.48574E-004	0.00000E+000	1.04759E+000	0.00000E+000	9	...........	 0.00
	3	0.03	3.41206E-001	3.48577E-004	0.00000E+000	1.04759E+000	0.00000E+000	9	...........	 0.00
	4	0.04	3.43427E-001	3.48593E-004	0.00000E+000	1.04759E+000	0.00000E+000	9	...........	 0.00
	5	0.05	3.45594E-001	3.48624E-004	0.00000E+000	1.04759E+000	0.00000E+000	9	...........	 0.00
	6	0.06	3.47736E-001	3.48626E-004	0.00000E+000	1.04759E+000	0.00000E+000	9	...........	 0.00
	7	0.07	3.49851E-001	3.48640E-004	0.00000E+000	1.04759E+000	0.00000E+000	9	...........	 0.00
	8	0.08	3.51946E-001	3.48640E-004	0.00000E+000	1.04759E+000	0.00000E+000	9	...........	 0.00
	9	0.09	3.54040E-001	3.48638E-004	0.00000E+000	1.04759E+000	0.00000E+000	9	...........	 0.00
	10	0.1	3.56109E-001	3.48639E-004	0.00000E+000	1.04759E+000	0.00000E+000	9	...........	 0.00
	11	0.11	3.58158E-001	3.48640E-004	0.00000E+000	1.04759E+000	0.00000E+000	9	...........	 0.00
	12	0.12	3.60242E-001	3.48641E-004	0.00000E+000	1.04759E+000	0.00000E+000	9	...........	 0.00
	13	0.13	3.62299E-001	3.48640E-004	0.00000E+000	1.04759E+000	0.00000E+000	9	...........	 0.00
	14	0.14	3.64365E-001	3.48643E-004	0.00000E+000	1.04759E+000	0.00000E+000	9	...........	 0.00
	15	0.15	3.66425E-001	3.48652E-004	0.00000E+000	1.04759E+000	0.00000E+000	9	...........	 0.00
	16	0.16	3.68466E-001	3.48641E-004	0.00000E+000	1.04759E+000	0.00000E+000	9	...........	 0.00
	17	0.17	3.70511E-001	3.48640E-004	0.00000E+000	1.04759E+000	0.00000E+000	9	...........	 0.00
	18	0.18	3.72587E-001	3.48640E-004	0.00000E+000	1.04759E+000	0.00000E+000	9	...........	 0.00
	19	0.19	3.74633E-001	3.48632E-004	0.00000E+000	1.04759E+000	0.00000E+000	9	...........	 0.00
	20	0.2	3.76703E-001	3.48621E-004	0.00000E+000	1.04759E+000	0.00000E+000	9	...........	 0.00
	21	0.21	3.78775E-001	3.48658E-004	0.00000E+000	1.04759E+000	0.00000E+000	9	...........	 0.00
	22	0.22	3.80854E-001	3.48680E-004	0.00000E+000	1.04759E+000	0.00000E+000	9	...........	 0.00
	23	0.23	3.82921E-001	3.48616E-004	0.00000E+000	1.04759E+000	0.00000E+000	9	...........	 0.00
	24	0.24	3.85018E-001	3.48578E-004	0.00000E+000	1.04759E+000	0.00000E+000	9	...........	 0.00
	25	0.25	3.87120E-001	3.48592E-004	0.00000E+000	1.04759E+000	0.00000E+000	9	...........	 0.00
	26	0.26	3.89224E-001	3.48587E-004	0.00000E+000	1.04759E+000	0.00000E+000	9	...........	 0.00
	27	0.27	3.91338E-001	3.48617E-004	0.00000E+000	1.04759E+000	0.00000E+000	9	...........	 0.00
	28	0.28	3.93473E-001	3.48626E-004	0.00000E+000	1.04759E+000	0.00000E+000	9	...........	 0.00
	29	0.29	3.95590E-001	3.48636E-004	0.00000E+000	1.04759E+000	0.00000E+000	9	...........	 0.00
	30	0.3	3.97758E-001	3.48648E-004	0.00000E+000	1.04759E+000	0.00000E+000	9	...........	 0.00
	31	0.31	3.99883E-001	3.48643E-004	0.00000E+000	1.04759E+000	0.00000E+000	9	...........	 0.00
	32	0.32	4.02042E-001	3.48643E-004	0.00000E+000	1.04759E+000	0.00000E+000	9	...........	 0.00
	33	0.33	4.04205E-001	3.48643E-004	0.00000E+000	1.04759E+000	0.00000E+000	9	...........	 0.00
	34	0.34	4.06375E-001	3.48649E-004	0.00000E+000	1.04759E+000	0.00000E+000	9	...........	 0.00
	35	0.35	4.08566E-001	3.48629E-004	0.00000E+000	1.04759E+000	0.00000E+000	9	...........	 0.00
	36	0.36	4.10792E-001	3.48540E-004	0.00000E+000	1.04759E+000	0.00000E+000	9	...........	 0.00
	37	0.37	4.12994E-001	3.48554E-004	0.00000E+000	1.04759E+000	0.00000E+000	9	...........	 0.00
	38	0.38	4.15217E-001	3.48634E-004	0.00000E+000	1.04759E+000	0.00000E+000	9	...........	 0.00
	39	0.39	4.17457E-001	3.48657E-004	0.00000E+000	1.04759E+000	0.00000E+000	9	...........	 0.00
	40	0.4	4.19698E-001	3.48662E-004	0.00000E+000	1.04759E+000	0.00000E+000	9	...........	 0.00
	41	0.41	4.21958E-001	3.48659E-004	0.00000E+000	1.04759E+000	0.00000E+000	9	...........	 0.00
	42	0.42	4.24270E-001	3.48645E-004	0.00000E+000	1.04759E+000	0.00000E+000	9	...........	 0.00
	43	0.43	4.26539E-001	3.48642E-004	0.00000E+000	1.04759E+000	0.00000E+000	9	...........	 0.00
	44	0.44	4.28842E-001	3.48659E-004	0.00000E+000	1.04759E+000	0.00000E+000	9	...........	 0.00
	45	0.45	4.31158E-001	3.48659E-004	0.00000E+000	1.04759E+000	0.00000E+000	9	...........	 0.00
	46	0.46	4.33479E-001	3.48663E-004	0.00000E+000	1.04759E+000	0.00000E+000	9	...........	 0.00
	47	0.47	4.35819E-001	3.48637E-004	0.00000E+000	1.04759E+000	0.00000E+000	9	...........	 0.00
	48	0.48	4.38181E-001	3.48612E-004	0.00000E+000	1.04759E+000	0.00000E+000	9	...........	 0.00
	49	0.49	4.40534E-001	3.48622E-004	0.00000E+000	1.04759E+000	0.00000E+000	9	...........	 0.00
	50	0.5	4.42913E-001	3.48637E-004	0.00000E+000	1.04759E+000	0.00000E+000	9	...........	 0.00
	51	0.51	4.45306E-001	3.48642E-004	0.00000E+000	1.04759E+000	0.00000E+000	9	...........	 0.00
	52	0.52	4.47704E-001	3.48651E-004	0.00000E+000	1.04759E+000	0.00000E+000	9	...........	 0.00
	53	0.53	4.50135E-001	3.48651E-004	0.00000E+000	1.04759E+000	0.00000E+000	9	...........	 0.00
	54	0.54	4.52572E-001	3.48646E-004	0.00000E+000	1.04759E+000	0.00000E+000	9	...........	 0.00
	55	0.55	4.55010E-001	3.48638E-004	0.00000E+000	1.04759E+000	0.00000E+000	9	...........	 0.00
	56	0.56	4.57463E-001	3.48642E-004	0.00000E+000	1.04759E+000	0.00000E+000	9	...........	 0.00
	57	0.57	4.59942E-001	3.48654E-004	0.00000E+000	1.04759E+000	0.00000E+000	9	...........	 0.00
	58	0.58	4.62452E-001	3.48604E-004	0.00000E+000	1.04759E+000	0.00000E+000	9	...........	 0.00
	59	0.59	4.64955E-001	3.48520E-004	0.00000E+000	1.04759E+000	0.00000E+000	9	...........	 0.00
	60	0.6	4.67488E-001	3.48592E-004	0.00000E+000	1.04759E+000	0.00000E+000	9	...........	 0.00
	61	0.61	4.70027E-001	3.48646E-004	0.00000E+000	1.04759E+000	0.00000E+000	9	...........	 0.00
	62	0.62	4.72589E-001	3.48656E-004	0.00000E+000	1.04759E+000	0.00000E+000	9	...........	 0.00
	63	0.63	4.75199E-001	3.48669E-004	0.00000E+000	1.04759E+000	0.00000E+000	9	...........	 0.00
	64	0.64	4.77789E-001	3.48668E-004	0.00000E+000	1.04759E+000	0.00000E+000	9	...........	 0.00
	65	0.65	4.80399E-001	3.48660E-004	0.00000E+000	1.04759E+000	0.00000E+000	9	...........	 0.00
	66	0.66	4.83042E-001	3.48657E-004	0.00000E+000	1.04759E+000	0.00000E+000	9	...........	 0.00
	67	0.67	4.85686E-001	3.48645E-004	0.00000E+000	1.04759E+000	0.00000E+000	9	...........	 0.00
	68	0.68	4.88372E-001	3.48640E-004	0.00000E+000	1.04759E+000	0.00000E+000	9	...........	 0.00
	69	0.69	4.91060E-001	3.48643E-004	0.00000E+000	1.04759E+000	0.00000E+000	9	...........	 0.00
	70	0.7	4.93776E-001	3.48620E-004	0.00000E+000	1.04759E+000	0.00000E+000	9	...........	 0.00
	71	0.71	4.96514E-001	3.48625E-004	0.00000E+000	1.04759E+000	0.00000E+000	9	...........	 0.00
	72	0.72	4.99268E-001	3.48640E-004	0.00000E+000	1.04759E+000	0.00000E+000	9	...........	 0.00
	73	0.73	5.02073E-001	3.48673E-004	0.00000E+000	1.04759E+000	0.00000E+000	9	...........	 0.00
	74	0.74	5.04858E-001	3.48671E-004	0.00000E+000	1.04759E+000	0.00000E+000	9	...........	 0.00
	75	0.75	5.07690E-001	3.48555E-004	0.00000E+000	1.04759E+000	0.00000E+000	9	...........	 0.00
	76	0.76	5.10539E-001	3.48515E-004	0.00000E+000	1.04759E+000	0.00000E+000	9	...........	 0.00
	77	0.77	5.13448E-001	3.48566E-004	0.00000E+000	1.04759E+000	0.00000E+000	9	...........	 0.00
	78	0.78	5.16344E-001	3.48585E-004	0.00000E+000	1.04759E+000	0.00000E+000	9	...........	 0.00
	79	0.79	5.19269E-001	3.48617E-004	0.00000E+000	1.04759E+000	0.00000E+000	9	...........	 0.00
	80	0.8	5.22195E-001	3.48634E-004	0.00000E+000	1.04759E+000	0.00000E+000	9	...........	 0.00
	81	0.81	5.25143E-001	3.48634E-004	0.00000E+000	1.04759E+000	0.00000E+000	9	...........	 0.00
	82	0.82	5.28145E-001	3.48642E-004	0.00000E+000	1.04759E+000	0.00000E+000	9	...........	 0.00
	83	0.83	5.31133E-001	3.48641E-004	0.00000E+000	1.04759E+000	0.00000E+000	9	...........	 0.00
	84	0.84	5.34185E-001	3.48638E-004	0.00000E+000	1.04759E+000	0.00000E+000	9	...........	 0.00
	85	0.85	5.37233E-001	3.48650E-004	0.00000E+000	1.04759E+000	0.00000E+000	9	...........	 0.00
	86	0.86	5.40331E-001	3.48644E-004	0.00000E+000	1.04759E+000	0.00000E+000	9	...........	 0.00
	87	0.87	5.43431E-001	3.48634E-004	0.00000E+000	1.04759E+000	0.00000E+000	9	...........	 0.00
	88	0.88	5.46559E-001	3.48636E-004	0.00000E+000	1.04759E+000	0.00000E+000	9	...........	 0.00
	89	0.89	5.49692E-001	3.48641E-004	0.00000E+000	1.04759E+000	0.00000E+000	9	...........	 0.00
	90	0.9	5.52863E-001	3.48642E-004	0.00000E+000	1.04759E+000	0.00000E+000	9	...........	 0.00
	91	0.91	5.56058E-001	3.48639E-004	0.00000E+000	1.04759E+000	0.00000E+000	9	...........	 0.00
	92	0.92	5.59258E-001	3.48643E-004	0.00000E+000	1.04759E+000	0.00000E+000	9	...........	 0.00
	93	0.93	5.62487E-001	3.48638E-004	0.00000E+000	1.04759E+000	0.00000E+000	9	...........	 0.00
	94	0.94	5.65755E-001	3.48635E-004	0.00000E+000	1.04759E+000	0.00000E+000	9	...........	 0.00
	95	0.95	5.69018E-001	3.48649E-004	0.00000E+000	1.04759E+000	0.00000E+000	9	...........	 0.00
	96	0.96	5.72309E-001	3.48676E-004	0.00000E+000	1.04759E+000	0.00000E+000	9	...........	 0.00
	97	0.97	5.75604E-001	3.48651E-004	0.00000E+000	1.04759E+000	0.00000E+000	9	...........	 0.00
	98	0.98	5.78932E-001	3.48527E-004	0.00000E+000	1.04759E+000	0.00000E+000	9	...........	 0.00
	99	0.99	5.82260E-001	3.48545E-004	0.00000E+000	1.04759E+000	0.00000E+000	9	...........	 0.00
	100	1	5.85624E-001	3.48580E-004	0.00000E+000	1.04759E+000	0.00000E+000	9	...........	 0.00
	101	1.01	5.88974E-001	3.48590E-004	0.00000E+000	1.04759E+000	0.00000E+000	9	...........	 0.00
	102	1.02	5.92382E-001	3.48618E-004	0.00000E+000	1.04759E+000	0.00000E+000	9	...........	 0.00
	103	1.03	5.95777E-001	3.48634E-004	0.00000E+000	1.04759E+000	0.00000E+000	9	...........	 0.00
	104	1.04	5.99191E-001	3.48634E-004	0.00000E+000	1.04759E+000	0.00000E+000	9	...........	 0.00
	105	1.05	6.02630E-001	3.48646E-004	0.00000E+000	1.04759E+000	0.00000E+000	9	...........	 0.00
	106	1.06	6.06061E-001	3.48638E-004	0.00000E+000	1.04759E+000	0.00000E+000	9	...........	 0.00
	107	1.07	6.09514E-001	3.48647E-004	0.00000E+000	1.04759E+000	0.00000E+000	9	...........	 0.00
	108	1.08	6.12964E-001	3.48650E-004	0.00000E+000	1.04759E+000	0.00000E+000	9	...........	 0.00
	109	1.09	6.16450E-001	3.48642E-004	0.00000E+000	1.04759E+000	0.00000E+000	9	...........	 0.00
	110	1.1	6.19930E-001	3.48606E-004	0.00000E+000	1.04759E+000	0.00000E+000	9	...........	 0.00
	111	1.11	6.23425E-001	3.48558E-004	0.00000E+000	1.04759E+000	0.00000E+000	9	...........	 0.00
	112	1.12	6.26914E-001	3.48614E-004	0.00000E+000	1.04759E+000	0.00000E+000	9	...........	 0.00
	113	1.13	6.30450E-001	3.48656E-004	0.00000E+000	1.04759E+000	0.00000E+000	9	...........	 0.00
	114	1.14	6.33963E-001	3.48670E-004	0.00000E+000	1.04759E+000	0.00000E+000	9	...........	 0.00
	115	1.15	6.37494E-001	3.48661E-004	0.00000E+000	1.04759E+000	0.00000E+000	9	...........	 0.00
	116	1.16	6.41037E-001	3.48654E-004	0.00000E+000	1.04759E+000	0.00000E+000	9	...........	 0.00
	117	1.17	6.44579E-001	3.48635E-004	0.00000E+000	1.04759E+000	0.00000E+000	9	...........	 0.00
	118	1.18	6.48126E-001	3.48639E-004	0.00000E+000	1.04759E+000	0.00000E+000	9	...........	 0.00
	119	1.19	6.51676E-001	3.48630E-004	0.00000E+000	1.04759E+000	0.00000E+000	9	...........	 0.00
	120	1.2	6.55241E-001	3.48629E-004	0.00000E+000	1.04759E+000	0.00000E+000	9	...........	 0.00
	121	1.21	6.58795E-001	3.48637E-004	0.00000E+000	1.04759E+000	0.00000E+000	9	...........	 0.00
	122	1.22	6.62340E-001	3.48625E-004	0.00000E+000	1.04759E+000	0.00000E+000	9	...........	 0.00
	123	1.23	6.65915E-001	3.48631E-004	0.00000E+000	1.04759E+000	0.00000E+000	9	...........	 0.00
	124	1.24	6.69491E-001	3.48638E-004	0.00000E+000	1.04759E+000	0.00000E+000	9	...........	 0.00
	125	1.25	6.73063E-001	3.48640E-004	0.00000E+000	1.04759E+000	0.00000E+000	9	...........	 0.00
	126	1.26	6.76617E-001	3.48641E-004	0.00000E+000	1.04759E+000	0.00000E+000	9	...........	 0.00
	127	1.27	6.80193E-001	3.48634E-004	0.00000E+000	1.04759E+000	0.00000E+000	9	...........	 0.00
	128	1.28	6.83749E-001	3.48640E-004	0.00000E+000	1.04759E+000	0.00000E+000	9	...........	 0.00
	129	1.29	6.87294E-001	3.48639E-004	0.00000E+000	1.04759E+000	0.00000E+000	9	...........	 0.00
	130	1.3	6.90833E-001	3.48646E-004	0.00000E+000	1.04759E+000	0.00000E+000	9	...........	 0.00
	131	1.31	6.94400E-001	3.48644E-004	0.00000E+000	1.04759E+000	0.00000E+000	9	...........	 0.00
	132	1.32	6.97926E-001	3.48635E-004	0.00000E+000	1.04759E+000	0.00000E+000	9	...........	 0.00
	133	1.33	7.01437E-001	3.48575E-004	0.00000E+000	1.04759E+000	0.00000E+000	9	...........	 0.00
	134	1.34	7.04993E-001	3.48574E-004	0.00000E+000	1.04759E+000	0.00000E+000	9	...........	 0.00
	135	1.35	7.08479E-001	3.48640E-004	0.00000E+000	1.04759E+000	0.00000E+000	9	...........	 0.00
	136	1.36	7.11985E-001	3.48669E-004	0.00000E+000	1.04759E+000	0.00000E+000	9	...........	 0.00
	137	1.37	7.15469E-001	3.48675E-004	0.00000E+000	1.04759E+000	0.00000E+000	9	...........	 0.00
	138	1.38	7.18958E-001	3.48667E-004	0.00000E+000	1.04759E+000	0.00000E+000	9	...........	 0.00
	139	1.39	7.22436E-001	3.48637E-004	0.00000E+000	1.04759E+000	0.00000E+000	9	...........	 0.00
	140	1.4	7.25870E-001	3.48629E-004	0.00000E+000	1.04759E+000	0.00000E+000	9	...........	 0.00
	141	1.41	7.29324E-001	3.48640E-004	0.00000E+000	1.04759E+000	0.00000E+000	9	...........	 0.00
	142	1.42	7.32771E-001	3.48638E-004	0.00000E+000	1.04759E+000	0.00000E+000	9	...........	 0.00
	143	1.43	7.36196E-001	3.48641E-004	0.00000E+000	1.04759E+000	0.00000E+000	9	...........	 0.00
	144	1.44	7.39630E-001	3.48640E-004	0.00000E+000	1.04759E+000	0.00000E+000	9	...........	 0.00
	145	1.45	7.43018E-001	3.48625E-004	0.00000E+000	1.04759E+000	0.00000E+000	9	...........	 0.00
	146	1.46	7.46435E-001	3.48635E-004	0.00000E+000	1.04759E+000	0.00000E+000	9	...........	 0.00
	147	1.47	7.49811E-001	3.48653E-004	0.00000E+000	1.04759E+000	0.00000E+000	9	...........	 0.00
	148	1.48	7.53183E-001	3.48679E-004	0.00000E+000	1.04759E+000	0.00000E+000	9	...........	 0.00
	149	1.49	7.56540E-001	3.48607E-004	0.00000E+000	1.04759E+000	0.00000E+000	9	...........	 0.00
	150	1.5	7.59871E-001	3.48478E-004	0.00000E+000	1.04759E+000	0.00000E+000	9	...........	 0.00
	151	1.51	7.63186E-001	3.48512E-004	0.00000E+000	1.04759E+000	0.00000E+000	9	...........	 0.00
	152	1.52	7.66513E-001	3.48581E-004	0.00000E+000	1.04759E+000	0.00000E+000	9	...........	 0.00
	153	1.53	7.69835E-001	3.48608E-004	0.00000E+000	1.04759E+000	0.00000E+000	9	...........	 0.00
	154	1.54	7.73129E-001	3.48643E-004	0.00000E+000	1.04759E+000	0.00000E+000	9	...........	 0.00
	155	1.55	7.76407E-001	3.48652E-004	0.00000E+000	1.04759E+000	0.00000E+000	9	...........	 0.00
	156	1.56	7.79643E-001	3.48653E-004	0.00000E+000	1.04759E+000	0.00000E+000	9	...........	 0.00
	157	1.57	7.82887E-001	3.48652E-004	0.00000E+000	1.04759E+000	0.00000E+000	9	...........	 0.00
	158	1.58	7.86088E-001	3.48644E-004	0.00000E+000	1.04759E+000	0.00000E+000	9	...........	 0.00
	159	1.59	7.89280E-001	3.48647E-004	0.00000E+000	1.04759E+000	0.00000E+000	9	...........	 0.00
	160	1.6	7.92428E-001	3.48649E-004	0.00000E+000	1.04759E+000	0.00000E+000	9	...........	 0.00
	161	1.61	7.95580E-001	3.48634E-004	0.00000E+000	1.04759E+000	0.00000E+000	9	...........	 0.00
	162	1.62	7.98677E-001	3.48623E-004	0.00000E+000	1.04759E+000	0.00000E+000	9	...........	 0.00
	163	1.63	8.01760E-001	3.48640E-004	0.00000E+000	1.04759E+000	0.00000E+000	9	...........	 0.00
	164	1.64	8.04794E-001	3.48639E-004	0.00000E+000	1.04759E+000	0.00000E+000	9	...........	 0.00
	165	1.65	8.07835E-001	3.48642E-004	0.00000E+000	1.04759E+000	0.00000E+000	9	...........	 0.00
	166	1.66	8.10818E-001	3.48633E-004	0.00000E+000	1.04759E+000	0.00000E+000	9	...........	 0.00
	167	1.67	8.13763E-001	3.48637E-004	0.00000E+000	1.04759E+000	0.00000E+000	9	...........	 0.00
	168	1.68	8.16664E-001	3.48633E-004	0.00000E+000	1.04759E+000	0.00000E+000	9	...........	 0.00
	169	1.69	8.19541E-001	3.48642E-004	0.00000E+000	1.04759E+000	0.00000E+000	9	...........	 0.00
	170	1.7	8.22388E-001	3.48667E-004	0.00000E+000	1.04759E+000	0.00000E+000	9	...........	 0.00
	171	1.71	8.25185E-001	3.48677E-004	0.00000E+000	1.04759E+000	0.00000E+000	9	...........	 0.00
	172	1.72	8.27946E-001	3.48573E-004	0.00000E+000	1.04759E+000	0.00000E+000	9	...........	 0.00
	173	1.73	8.30674E-001	3.48483E-004	0.00000E+000	1.04759E+000	0.00000E+000	9	...........	 0.00
	174	1.74	8.33368E-001	3.48552E-004	0.00000E+000	1.04759E+000	0.00000E+000	9	...........	 0.00
	175	1.75	8.36001E-001	3.48587E-004	0.00000E+000	1.04759E+000	0.00000E+000	9	...........	 0.00
	176	1.76	8.38586E-001	3.48612E-004	0.00000E+000	1.04759E+000	0.00000E+000	9	...........	 0.00
	177	1.77	8.41155E-001	3.48647E-004	0.00000E+000	1.04759E+000	0.00000E+000	9	...........	 0.00
	178	1.78	8.43654E-001	3.48645E-004	0.00000E+000	1.04759E+000	0.00000E+000	9	...........	 0.00
	179	1.79	8.46125E-001	3.48650E-004	0.00000E+000	1.04759E+000	0.00000E+000	9	...........	 0.00
	180	1.8	8.48549E-001	3.48649E-004	0.00000E+000	1.04759E+000	0.00000E+000	9	...........	 0.00
	181	1.81	8.50912E-001	3.48635E-004	0.00000E+000	1.04759E+000	0.00000E+000	9	...........	 0.00
	182	1.82	8.53229E-001	3.48647E-004	0.00000E+000	1.04759E+000	0.00000E+000	9	...........	 0.00
	183	1.83	8.55515E-001	3.48644E-004	0.00000E+000	1.04759E+000	0.00000E+000	9	...........	 0.00
	184	1.84	8.31634E-001	-3.48894E-004	0.00000E+000	-1.04759E+000	0.00000E+000	9	...........	 0.00
	185	1.85	8.24480E-001	-3.48921E-004	0.00000E+000	-1.04759E+000	0.00000E+000	9	...........	 0.00
	186	1.86	8.18319E-001	-3.48921E-004	0.00000E+000	-1.04759E+000	0.00000E+000	9	...........	 0.00
	187	1.87	8.12540E-001	-3.48862E-004	0.00000E+000	-1.04759E+000	0.00000E+000	9	...........	 0.00
	188	1.88	8.06962E-001	-3.48836E-004	0.00000E+000	-1.04759E+000	0.00000E+000	9	...........	 0.00
	189	1.89	8.01514E-001	-3.48868E-004	0.00000E+000	-1.04759E+000	0.00000E+000	9	...........	 0.00
	190	1.9	7.96165E-001	-3.48907E-004	0.00000E+000	-1.04759E+000	0.00000E+000	9	...........	 0.00
	191	1.91	7.90844E-001	-3.48922E-004	0.00000E+000	-1.04759E+000	0.00000E+000	9	...........	 0.00
	192	1.92	7.85601E-001	-3.48905E-004	0.00000E+000	-1.04759E+000	0.00000E+000	9	...........	 0.00
	193	1.93	7.80407E-001	-3.48881E-004	0.00000E+000	-1.04759E+000	0.00000E+000	9	...........	 0.00
	194	1.94	7.75270E-001	-3.48891E-004	0.00000E+000	-1.04759E+000	0.00000E+000	9	...........	 0.00
	195	1.95	7.70156E-001	-3.48908E-004	0.00000E+000	-1.04759E+000	0.00000E+000	9	...........	 0.00
	196	1.96	7.65040E-001	-3.48912E-004	0.00000E+000	-1.04759E+000	0.00000E+000	9	...........	 0.00
	197	1.97	7.59951E-001	-3.48923E-004	0.00000E+000	-1.04759E+000	0.00000E+000	9	...........	 0.00
	198	1.98	7.54865E-001	-3.48896E-004	0.00000E+000	-1.04759E+000	0.00000E+000	9	...........	 0.00
	199	1.99	7.49812E-001	-3.48885E-004	0.00000E+000	-1.04759E+000	0.00000E+000	9	...........	 0.00
	200	2	7.44764E-001	-3.48883E-004	0.00000E+000	-1.04759E+000	0.00000E+000	9	...........	 0.00
	201	2.01	7.39734E-001	-3.48886E-004	0.00000E+000	-1.04759E+000	0.00000E+000	9	...........	 0.00
	202	2.02	7.34707E-001	-3.48894E-004	0.00000E+000	-1.04759E+000	0.00000E+000	9	...........	 0.00
	203	2.03	7.29689E-001	-3.48890E-004	0.00000E+000	-1.04759E+000	0.00000E+000	9	...........	 0.00
	204	2.04	7.24687E-001	-3.48892E-004	0.00000E+000	-1.04759E+000	0.00000E+000	9	...........	 0.00
	205	2.05	7.19695E-001	-3.48891E-004	0.00000E+000	-1.04759E+000	0.00000E+000	9	...........	 0.00
	206	2.06	7.14686E-001	-3.48890E-004	0.00000E+000	-1.04759E+000	0.00000E+000	9	...........	 0.00
	207	2.07	7.09701E-001	-3.48902E-004	0.00000E+000	-1.04759E+000	0.00000E+000	9	...........	 0.00
	208	2.08	7.04712E-001	-3.48954E-004	0.00000E+000	-1.04759E+000	0.00000E+000	9	...........	 0.00
	209	2.09	6.99740E-001	-3.48915E-004	0.00000E+000	-1.04759E+000	0.00000E+000	9	...........	 0.00
	210	2.1	6.94782E-001	-3.48864E-004	0.00000E+000	-1.04759E+000	0.00000E+000	9	...........	 0.00
	211	2.11	6.89794E-001	-3.48848E-004	0.00000E+000	-1.04759E+000	0.00000E+000	9	...........	 0.00
	212	2.12	6.84838E-001	-3.48877E-004	0.00000E+000	-1.04759E+000	0.00000E+000	9	...........	 0.00
	213	2.13	6.79907E-001	-3.48890E-004	0.00000E+000	-1.04759E+000	0.00000E+000	9	...........	 0.00
	214	2.14	6.74938E-001	-3.48917E-004	0.00000E+000	-1.04759E+000	0.00000E+000	9	...........	 0.00
	215	2.15	6.70003E-001	-3.48918E-004	0.00000E+000	-1.04759E+000	0.00000E+000	9	...........	 0.00
	216	2.16	6.65037E-001	-3.48908E-004	0.00000E+000	-1.04759E+000	0.00000E+000	9	...........	 0.00
	217	2.17	6.60112E-001	-3.48915E-004	0.00000E+000	-1.04759E+000	0.00000E+000	9	...........	 0.00
	218	2.18	6.55175E-001	-3.48897E-004	0.00000E+000	-1.04759E+000	0.00000E+000	9	...........	 0.00
	219	2.19	6.50238E-001	-3.48900E-004	0.00000E+000	-1.04759E+000	0.00000E+000	9	...........	 0.00
	220	2.2	6.45326E-001	-3.48907E-004	0.00000E+000	-1.04759E+000	0.00000E+000	9	...........	 0.00
	221	2.21	6.40398E-001	-3.48894E-004	0.00000E+000	-1.04759E+000	0.00000E+000	9	...........	 0.00
	222	2.22	6.35464E-001	-3.48877E-004	0.00000E+000	-1.04759E+000	0.00000E+000	9	...........	 0.00
	223	2.23	6.30565E-001	-3.48865E-004	0.00000E+000	-1.04759E+000	0.00000E+000	9	...........	 0.00
	224	2.24	6.25643E-001	-3.48981E-004	0.00000E+000	-1.04759E+000	0.00000E+000	9	...........	 0.00
	225	2.25	6.20745E-001	-3.49069E-004	0.00000E+000	-1.04759E+000	0.00000E+000	9	...........	 0.00
	226	2.26	6.15847E-001	-3.48974E-004	0.00000E+000	-1.04759E+000	0.00000E+000	9	...........	 0.00
	227	2.27	6.10958E-001	-3.48917E-004	0.00000E+000	-1.04759E+000	0.00000E+000	9	...........	 0.00
	228	2.28	6.06088E-001	-3.48889E-004	0.00000E+000	-1.04759E+000	0.00000E+000	9	...........	 0.00
	229	2.29	6.01195E-001	-3.48870E-004	0.00000E+000	-1.04759E+000	0.00000E+000	9	...........	 0.00
	230	2.3	5.96325E-001	-3.48869E-004	0.00000E+000	-1.04759E+000	0.00000E+000	9	...........	 0.00
	231	2.31	5.91450E-001	-3.48873E-004	0.00000E+000	-1.04759E+000	0.00000E+000	9	...........	 0.00
	232	2.32	5.86573E-001	-3.48877E-004	0.00000E+000	-1.04759E+000	0.00000E+000	9	...........	 0.00
	233	2.33	5.81711E-001	-3.48890E-004	0.00000E+000	-1.04759E+000	0.00000E+000	9	...........	 0.00
	234	2.34	5.76870E-001	-3.48882E-004	0.00000E+000	-1.04759E+000	0.00000E+000	9	...........	 0.00
	235	2.35	5.72017E-001	-3.48888E-004	0.00000E+000	-1.04759E+000	0.00000E+000	9	...........	 0.00
	236	2.36	5.67178E-001	-3.48920E-004	0.00000E+000	-1.04759E+000	0.00000E+000	9	...........	 0.00
	237	2.37	5.62328E-001	-3.48909E-004	0.00000E+000	-1.04759E+000	0.00000E+000	9	...........	 0.00
	238	2.38	5.57508E-001	-3.48892E-004	0.00000E+000	-1.04759E+000	0.00000E+000	9	...........	 0.00
	239	2.39	5.52696E-001	-3.48898E-004	0.00000E+000	-1.04759E+000	0.00000E+000	9	...........	 0.00
	240	2.4	5.47875E-001	-3.48891E-004	0.00000E+000	-1.04759E+000	0.00000E+000	9	...........	 0.00
	241	2.41	5.43056E-001	-3.48896E-004	0.00000E+000	-1.04759E+000	0.00000E+000	9	...........	 0.00
	242	2.42	5.38266E-001	-3.48897E-004	0.00000E+000	-1.04759E+000	0.00000E+000	9	...........	 0.00
	243	2.43	5.33469E-001	-3.48890E-004	0.00000E+000	-1.04759E+000	0.00000E+000	9	...........	 0.00
	244	2.44	5.28694E-001	-3.48889E-004	0.00000E+000	-1.04759E+000	0.00000E+000	9	...........	 0.00
	245	2.45	5.23894E-001	-3.48867E-004	0.00000E+000	-1.04759E+000	0.00000E+000	9	...........	 0.00
	246	2.46	5.19139E-001	-3.48891E-004	0.00000E+000	-1.04759E+000	0.00000E+000	9	...........	 0.00
	247	2.47	5.14387E-001	-3.49041E-004	0.00000E+000	-1.04759E+000	0.00000E+000	9	...........	 0.00
	248	2.48	5.09628E-001	-3.49040E-004	0.00000E+000	-1.04759E+000	0.00000E+000	9	...........	 0.00
	249	2.49	5.04909E-001	-3.48932E-004	0.00000E+000	-1.04759E+000	0.00000E+000	9	...........	 0.00
	250	2.5	5.00199E-001	-3.48905E-004	0.00000E+000	-1.04759E+000	0.00000E+000	9	...........	 0.00
	251	2.51	4.95478E-001	-3.48880E-004	0.00000E+000	-1.04759E+000	0.00000E+000	9	...........	 0.00
	252	2.52	4.90787E-001	-3.48868E-004	0.00000E+000	-1.04759E+000	0.00000E+000	9	...........	 0.00
	253	2.53	4.86083E-001	-3.48877E-004	0.00000E+000	-1.04759E+000	0.00000E+000	9	...........	 0.00
	254	2.54	4.81424E-001	-3.48877E-004	0.00000E+000	-1.04759E+000	0.00000E+000	9	...........	 0.00
	255	2.55	4.76781E-001	-3.48888E-004	0.00000E+000	-1.04759E+000	0.00000E+000	9	...........	 0.00
	256	2.56	4.72127E-001	-3.48889E-004	0.00000E+000	-1.04759E+000	0.00000E+000	9	...........	 0.00
	257	2.57	4.67536E-001	-3.48887E-004	0.00000E+000	-1.04759E+000	0.00000E+000	9	...........	 0.00
	258	2.58	4.62949E-001	-3.48907E-004	0.00000E+000	-1.04759E+000	0.00000E+000	9	...........	 0.00
	259	2.59	4.58374E-001	-3.48926E-004	0.00000E+000	-1.04759E+000	0.00000E+000	9	...........	 0.00
	260	2.6	4.53841E-001	-3.48920E-004	0.00000E+000	-1.04759E+000	0.00000E+000	9	...........	 0.00
	261	2.61	4.49326E-001	-3.48881E-004	0.00000E+000	-1.04759E+000	0.00000E+000	9	...........	 0.00
	262	2.62	4.44841E-001	-3.48843E-004	0.00000E+000	-1.04759E+000	0.00000E+000	9	...........	 0.00
	263	2.63	4.40412E-001	-3.48872E-004	0.00000E+000	-1.04759E+000	0.00000E+000	9	...........	 0.00
	264	2.64	4.35995E-001	-3.48971E-004	0.00000E+000	-1.04759E+000	0.00000E+000	9	...........	 0.00
	265	2.65	4.31605E-001	-3.48974E-004	0.00000E+000	-1.04759E+000	0.00000E+000	9	...........	 0.00
	266	2.66	4.27285E-001	-3.48964E-004	0.00000E+000	-1.04759E+000	0.00000E+000	9	...........	 0.00
	267	2.67	4.23011E-001	-3.48941E-004	0.00000E+000	-1.04759E+000	0.00000E+000	9	...........	 0.00
	268	2.68	4.18784E-001	-3.48918E-004	0.00000E+000	-1.04759E+000	0.00000E+000	9	...........	 0.00
	269	2.69	4.14606E-001	-3.48909E-004	0.00000E+000	-1.04759E+000	0.00000E+000	9	...........	 0.00
	270	2.7	4.10501E-001	-3.48897E-004	0.00000E+000	-1.04759E+000	0.00000E+000	9	...........	 0.00
	271	2.71	4.06431E-001	-3.48891E-004	0.00000E+000	-1.04759E+000	0.00000E+000	9	...........	 0.00
	272	2.72	4.02443E-001	-3.48898E-004	0.00000E+000	-1.04759E+000	0.00000E+000	9	...........	 0.00
	273	2.73	3.98523E-001	-3.48889E-004	0.00000E+000	-1.04759E+000	0.00000E+000	9	...........	 0.00
	274	2.74	3.94655E-001	-3.48887E-004	0.00000E+000	-1.04759E+000	0.00000E+000	9	...........	 0.00
	275	2.75	3.90863E-001	-3.48890E-004	0.00000E+000	-1.04759E+000	0.00000E+000	9	...........	 0.00
	276	2.76	3.87151E-001	-3.48889E-004	0.00000E+000	-1.04759E+000	0.00000E+000	9	...........	 0.00
	277	2.77	3.83496E-001	-3.48888E-004	0.00000E+000	-1.04759E+000	0.00000E+000	9	...........	 0.00
	278	2.78	3.79935E-001	-3.48892E-004	0.00000E+000	-1.04759E+000	0.00000E+000	9	...........	 0.00
	279	2.79	3.76442E-001	-3.48902E-004	0.00000E+000	-1.04759E+000	0.00000E+000	9	...........	 0.00
	280	2.8	3.73046E-001	-3.48892E-004	0.00000E+000	-1.04759E+000	0.00000E+000	9	...........	 0.00
	281	2.81	3.69702E-001	-3.48897E-004	0.00000E+000	-1.04759E+000	0.00000E+000	9	...........	 0.00
	282	2.82	3.66446E-001	-3.48897E-004	0.00000E+000	-1.04759E+000	0.00000E+000	9	...........	 0.00
	283	2.83	3.63256E-001	-3.48909E-004	0.00000E+000	-1.04759E+000	0.00000E+000	9	...........	 0.00
	284	2.84	3.60143E-001	-3.48863E-004	0.00000E+000	-1.04759E+000	0.00000E+000	9	...........	 0.00
	285	2.85	3.57078E-001	-3.48846E-004	0.00000E+000	-1.04759E+000	0.00000E+000	9	...........	 0.00
	286	2.86	3.54109E-001	-3.48914E-004	0.00000E+000	-1.04759E+000	0.00000E+000	9	...........	 0.00
	287	2.87	3.51193E-001	-3.48972E-004	0.00000E+000	-1.04759E+000	0.00000E+000	9	...........	 0.00
	288	2.88	3.48353E-001	-3.48940E-004	0.00000E+000	-1.04759E+000	0.00000E+000	9	...........	 0.00
	289	2.89	3.45556E-001	-3.48945E-004	0.00000E+000	-1.04759E+000	0.00000E+000	9	...........	 0.00
	290	2.9	3.42843E-001	-3.48923E-004	0.00000E+000	-1.04759E+000	0.00000E+000	9	...........	 0.00
	291	2.91	3.40189E-001	-3.48915E-004	0.00000E+000	-1.04759E+000	0.00000E+000	9	...........	 0.00
	292	2.92	3.37578E-001	-3.48907E-004	0.00000E+000	-1.04759E+000	0.00000E+000	9	...........	 0.00
	293	2.93	3.35029E-001	-3.48893E-004	0.00000E+000	-1.04759E+000	0.00000E+000	9	...........	 0.00
	294	2.94	3.32490E-001	-3.48902E-004	0.00000E+000	-1.04759E+000	0.00000E+000	9	...........	 0.00
	295	2.95	3.30026E-001	-3.48901E-004	0.00000E+000	-1.04759E+000	0.00000E+000	9	...........	 0.00
	296	2.96	3.27623E-001	-3.48889E-004	0.00000E+000	-1.04759E+000	0.00000E+000	9	...........	 0.00
	297	2.97	3.25247E-001	-3.48884E-004	0.00000E+000	-1.04759E+000	0.00000E+000	9	...........	 0.00
	298	2.98	3.22912E-001	-3.48902E-004	0.00000E+000	-1.04759E+000	0.00000E+000	9	...........	 0.00
	299	2.99	3.20612E-001	-3.49004E-004	0.00000E+000	-1.04759E+000	0.00000E+000	9	...........	 0.00
	300	3	3.18335E-001	-3.48994E-004	0.00000E+000	-1.04759E+000	0.00000E+000	9	...........	 0.00
	301	3.01	3.16107E-001	-3.48899E-004	0.00000E+000	-1.04759E+000	0.00000E+000	9	...........	 0.00
	302	3.02	3.13886E-001	-3.48876E-004	0.00000E+000	-1.04759E+000	0.00000E+000	9	...........	 0.00
	303	3.03	3.11716E-001	-3.48864E-004	0.00000E+000	-1.04759E+000	0.00000E+000	9	...........	 0.00
	304	3.04	3.09572E-001	-3.48858E-004	0.00000E+000	-1.04759E+000	0.00000E+000	9	...........	 0.00
	305	3.05	3.07452E-001	-3.48868E-004	0.00000E+000	-1.04759E+000	0.00000E+000	9	...........	 0.00
	306	3.06	3.05363E-001	-3.48877E-004	0.00000E+000	-1.04759E+000	0.00000E+000	9	...........	 0.00
	307	3.07	3.03296E-001	-3.48880E-004	0.00000E+000	-1.04759E+000	0.00000E+000	9	...........	 0.00
	308	3.08	3.01252E-001	-3.48891E-004	0.00000E+000	-1.04759E+000	0.00000E+000	9	...........	 0.00
	309	3.09	2.99225E-001	-3.48881E-004	0.00000E+000	-1.04759E+000	0.00000E+000	9	...........	 0.00
	310	3.1	2.97220E-001	-3.48902E-004	0.00000E+000	-1.04759E+000	0.00000E+000	9	...........	 0.00
	311	3.11	2.95241E-001	-3.48914E-004	0.00000E+000	-1.04759E+000	0.00000E+000	9	...........	 0.00
	312	3.12	2.93257E-001	-3.48901E-004	0.00000E+000	-1.04759E+000	0.00000E+000	9	...........	 0.00
	313	3.13	2.91318E-001	-3.48902E-004	0.00000E+000	-1.04759E+000	0.00000E+000	9	...........	 0.00
	314	3.14	2.89388E-001	-3.48905E-004	0.00000E+000	-1.04759E+000	0.00000E+000	9	...........	 0.00
	315	3.15	2.87482E-001	-3.48894E-004	0.00000E+000	-1.04759E+000	0.00000E+000	9	...........	 0.00
	316	3.16	2.85593E-001	-3.48885E-004	0.00000E+000	-1.04759E+000	0.00000E+000	9	...........	 0.00
	317	3.17	2.83698E-001	-3.48880E-004	0.00000E+000	-1.04759E+000	0.00000E+000	9	...........	 0.00
	318	3.18	2.81816E-001	-3.48886E-004	0.00000E+000	-1.04759E+000	0.00000E+000	9	...........	 0.00
	319	3.19	2.79966E-001	-3.48892E-004	0.00000E+000	-1.04759E+000	0.00000E+000	9	...........	 0.00
	320	3.2	2.78109E-001	-3.48884E-004	0.00000E+000	-1.04759E+000	0.00000E+000	9	...........	 0.00
	321	3.21	2.76294E-001	-3.48942E-004	0.00000E+000	-1.04759E+000	0.00000E+000	9	...........	 0.00
	322	3.22	2.74453E-001	-3.49024E-004	0.00000E+000	-1.04759E+000	0.00000E+000	9	...........	 0.00
	323	3.23	2.72648E-001	-3.48941E-004	0.00000E+000	-1.04759E+000	0.00000E+000	9	...........	 0.00
	324	3.24	2.70842E-001	-3.48875E-004	0.00000E+000	-1.04759E+000	0.00000E+000	9	...........	 0.00
	325	3.25	2.69018E-001	-3.48860E-004	0.00000E+000	-1.04759E+000	0.00000E+000	9	...........	 0.00
	326	3.26	2.67258E-001	-3.48856E-004	0.00000E+000	-1.04759E+000	0.00000E+000	9	...........	 0.00
	327	3.27	2.65460E-001	-3.48868E-004	0.00000E+000	-1.04759E+000	0.00000E+000	9	...........	 0.00
	328	3.28	2.63687E-001	-3.48891E-004	0.00000E+000	-1.04759E+000	0.00000E+000	9	...........	 0.00
	329	3.29	2.61908E-001	-3.48887E-004	0.00000E+000	-1.04759E+000	0.00000E+000	9	...........	 0.00
	330	3.3	2.60148E-001	-3.48899E-004	0.00000E+000	-1.04759E+000	0.00000E+000	9	...........	 0.00
	331	3.31	2.58389E-001	-3.48892E-004	0.00000E+000	-1.04759E+000	0.00000E+000	9	...........	 0.00
	332	3.32	2.56632E-001	-3.48883E-004	0.00000E+000	-1.04759E+000	0.00000E+000	9	...........	 0.00
	333	3.33	2.54842E-001	-3.48912E-004	0.00000E+000	-1.04759E+000	0.00000E+000	9	...........	 0.00
	334	3.34	2.53096E-001	-3.48910E-004	0.00000E+000	-1.04759E+000	0.00000E+000	9	...........	 0.00
	335	3.35	2.51341E-001	-3.48913E-004	0.00000E+000	-1.04759E+000	0.00000E+000	9	...........	 0.00
	336	3.36	2.49583E-001	-3.48868E-004	0.00000E+000	-1.04759E+000	0.00000E+000	9	...........	 0.00
	337	3.37	2.47850E-001	-3.48864E-004	0.00000E+000	-1.04759E+000	0.00000E+000	9	...........	 0.00
	338	3.38	2.46086E-001	-3.48994E-004	0.00000E+000	-1.04759E+000	0.00000E+000	9	...........	 0.00
	339	3.39	2.44349E-001	-3.49022E-004	0.00000E+000	-1.04759E+000	0.00000E+000	9	...........	 0.00
	340	3.4	2.42574E-001	-3.48966E-004	0.00000E+000	-1.04759E+000	0.00000E+000	9	...........	 0.00
	341	3.41	2.41073E-001	-3.48954E-004	0.00000E+000	-1.04759E+000	0.00000E+000	9	...........	 0.00
	342	3.42	2.39316E-001	-3.48935E-004	0.00000E+000	-1.04759E+000	0.00000E+000	9	...........	 0.00
	343	3.43	2.37554E-001	-3.48915E-004	0.00000E+000	-1.04759E+000	0.00000E+000	9	...........	 0.00
	344	3.44	2.35791E-001	-3.48899E-004	0.00000E+000	-1.04759E+000	0.00000E+000	9	...........	 0.00
	345	3.45	2.34021E-001	-3.48879E-004	0.00000E+000	-1.04759E+000	0.00000E+000	9	...........	 0.00
	346	3.46	2.32251E-001	-3.48879E-004	0.00000E+000	-1.04759E+000	0.00000E+000	9	...........	 0.00
	347	3.47	2.30473E-001	-3.48886E-004	0.00000E+000	-1.04759E+000	0.00000E+000	9	...........	 0.00
	348	3.48	2.28693E-001	-3.48884E-004	0.00000E+000	-1.04759E+000	0.00000E+000	9	...........	 0.00
	349	3.49	2.26904E-001	-3.48901E-004	0.00000E+000	-1.04759E+000	0.00000E+000	9	...........	 0.00
	350	3.5	2.25109E-001	-3.48912E-004	0.00000E+000	-1.04759E+000	0.00000E+000	9	...........	 0.00
	351	3.51	2.23310E-001	-3.48907E-004	0.00000E+000	-1.04759E+000	0.00000E+000	9	...........	 0.00
	352	3.52	2.21501E-001	-3.48891E-004	0.00000E+000	-1.04759E+000	0.00000E+000	9	...........	 0.00
	353	3.53	2.19690E-001	-3.48892E-004	0.00000E+000	-1.04759E+000	0.00000E+000	9	...........	 0.00
	354	3.54	2.17867E-001	-3.48895E-004	0.00000E+000	-1.04759E+000	0.00000E+000	9	...........	 0.00
	355	3.55	2.16040E-001	-3.48897E-004	0.00000E+000	-1.04759E+000	0.00000E+000	9	...........	 0.00
	356	3.56	2.14203E-001	-3.48897E-004	0.00000E+000	-1.04759E+000	0.00000E+000	9	...........	 0.00
	357	3.57	2.12356E-001	-3.48896E-004	0.00000E+000	-1.04759E+000	0.00000E+000	9	...........	 0.00
	358	3.58	2.10506E-001	-3.48881E-004	0.00000E+000	-1.04759E+000	0.00000E+000	9	...........	 0.00
	359	3.59	2.08644E-001	-3.48849E-004	0.00000E+000	-1.04759E+000	0.00000E+000	9	...........	 0.00
	360	3.6	2.06773E-001	-3.48900E-004	0.00000E+000	-1.04759E+000	0.00000E+000	9	...........	 0.00
	361	3.61	2.04891E-001	-3.49041E-004	0.00000E+000	-1.04759E+000	0.00000E+000	9	...........	 0.00
	362	3.62	2.03005E-001	-3.48999E-004	0.00000E+000	-1.04759E+000	0.00000E+000	9	...........	 0.00
	363	3.63	2.01111E-001	-3.48956E-004	0.00000E+000	-1.04759E+000	0.00000E+000	9	...........	 0.00
	364	3.64	1.99207E-001	-3.48932E-004	0.00000E+000	-1.04759E+000	0.00000E+000	9	...........	 0.00
	365	3.65	1.97295E-001	-3.48899E-004	0.00000E+000	-1.04759E+000	0.00000E+000	9	...........	 0.00
	366	3.66	1.95374E-001	-3.48892E-004	0.00000E+000	-1.04759E+000	0.00000E+000	9	...........	 0.00
	367	3.67	1.93440E-001	-3.48888E-004	0.00000E+000	-1.04759E+000	0.00000E+000	9	...........	 0.00
	368	3.68	1.91499E-001	-3.48885E-004	0.00000E+000	-1.04759E+000	0.00000E+000	9	...........	 0.00
	369	3.69	1.89546E-001	-3.48892E-004	0.00000E+000	-1.04759E+000	0.00000E+000	9	...........	 0.00
	370	3.7	1.87592E-001	-3.48884E-004	0.00000E+000	-1.04759E+000	0.00000E+000	9	...........	 0.00
	371	3.71	1.85621E-001	-3.48883E-004	0.00000E+000	-1.04759E+000	0.00000E+000	9	...........	 0.00
	372	3.72	1.83646E-001	-3.48905E-004	0.00000E+000	-1.04759E+000	0.00000E+000	9	...........	 0.00
	373	3.73	1.81657E-001	-3.48932E-004	0.00000E+000	-1.04759E+000	0.00000E+000	9	...........	 0.00
	374	3.74	1.79663E-001	-3.48961E-004	0.00000E+000	-1.04759E+000	0.00000E+000	9	...........	 0.00
	375	3.75	1.77661E-001	-3.48892E-004	0.00000E+000	-1.04759E+000	0.00000E+000	9	...........	 0.00
	376	3.76	1.75650E-001	-3.48856E-004	0.00000E+000	-1.04759E+000	0.00000E+000	9	...........	 0.00
	377	3.77	1.73627E-001	-3.48857E-004	0.00000E+000	-1.04759E+000	0.00000E+000	9	...........	 0.00
	378	3.78	1.71598E-001	-3.48875E-004	0.00000E+000	-1.04759E+000	0.00000E+000	9	...........	 0.00
	379	3.79	1.69560E-001	-3.48900E-004	0.00000E+000	-1.04759E+000	0.00000E+000	9	...........	 0.00
	380	3.8	1.67516E-001	-3.48920E-004	0.00000E+000	-1.04759E+000	0.00000E+000	9	...........	 0.00
	381	3.81	1.65462E-001	-3.48908E-004	0.00000E+000	-1.04759E+000	0.00000E+000	9	...........	 0.00
	382	3.82	1.63403E-001	-3.48909E-004	0.00000E+000	-1.04759E+000	0.00000E+000	9	...........	 0.00
	383	3.83	1.61334E-001	-3.48904E-004	0.00000E+000	-1.04759E+000	0.00000E+000	9	...........	 0.00
	384	3.84	1.59262E-001	-3.48894E-004	0.00000E+000	-1.04759E+000	0.00000E+000	9	...........	 0.00
	385	3.85	1.57179E-001	-3.48906E-004	0.00000E+000	-1.04759E+000	0.00000E+000	9	...........	 0.00
	386	3.86	1.55089E-001	-3.48904E-004	0.00000E+000	-1.04759E+000	0.00000E+000	9	...........	 0.00
	387	3.87	1.52994E-001	-3.48896E-004	0.00000E+000	-1.04759E+000	0.00000E+000	9	...........	 0.00
	388	3.88	1.50889E-001	-3.48897E-004	0.00000E+000	-1.04759E+000	0.00000E+000	9	...........	 0.00
	389	3.89	1.48778E-001	-3.48890E-004	0.00000E+000	-1.04759E+000	0.00000E+000	9	...........	 0.00
	390	3.9	1.46663E-001	-3.48897E-004	0.00000E+000	-1.04759E+000	0.00000E+000	9	...........	 0.00
	391	3.91	1.44540E-001	-3.48892E-004	0.00000E+000	-1.04759E+000	0.00000E+000	9	...........	 0.00
	392	3.92	1.42417E-001	-3.48891E-004	0.00000E+000	-1.04759E+000	0.00000E+000	9	...........	 0.00
	393	3.93	1.40285E-001	-3.48900E-004	0.00000E+000	-1.04759E+000	0.00000E+000	9	...........	 0.00
	394	3.94	1.38145E-001	-3.48898E-004	0.00000E+000	-1.04759E+000	0.00000E+000	9	...........	 0.00
	395	3.95	1.36007E-001	-3.48904E-004	0.00000E+000	-1.04759E+000	0.00000E+000	9	...........	 0.00
	396	3.96	1.33860E-001	-3.48953E-004	0.00000E+000	-1.04759E+000	0.00000E+000	9	...........	 0.00
	397	3.97	1.31709E-001	-3.48934E-004	0.00000E+000	-1.04759E+000	0.00000E+000	9	...........	 0.00
	398	3.98	1.29553E-001	-3.48874E-004	0.00000E+000	-1.04759E+000	0.00000E+000	9	...........	 0.00
	399	3.99	1.27389E-001	-3.48853E-004	0.00000E+000	-1.04759E+000	0.00000E+000	9	...........	 0.00
	400	4	1.25225E-001	-3.48867E-004	0.00000E+000	-1.04759E+000	0.00000E+000	9	...........	 0.00
	401	4.01	1.23058E-001	-3.48882E-004	0.00000E+000	-1.04759E+000	0.00000E+000	9	...........	 0.00
	402	4.02	1.20888E-001	-3.48911E-004	0.00000E+000	-1.04759E+000	0.00000E+000	9	...........	 0.00
	403	4.03	1.18713E-001	-3.48917E-004	0.00000E+000	-1.04759E+000	0.00000E+000	9	...........	 0.00
	404	4.04	1.16537E-001	-3.48901E-004	0.00000E+000	-1.04759E+000	0.00000E+000	9	...........	 0.00
	405	4.05	1.14358E-001	-3.48908E-004	0.00000E+000	-1.04759E+000	0.00000E+000	9	...........	 0.00
	406	4.06	1.12179E-001	-3.48894E-004	0.00000E+000	-1.04759E+000	0.00000E+000	9	...........	 0.00
	407	4.07	1.09991E-001	-3.48900E-004	0.00000E+000	-1.04759E+000	0.00000E+000	9	...........	 0.00
	408	4.08	1.07807E-001	-3.48908E-004	0.00000E+000	-1.04759E+000	0.00000E+000	9	...........	 0.00
	409	4.09	1.05618E-001	-3.48890E-004	0.00000E+000	-1.04759E+000	0.00000E+000	9	...........	 0.00
	410	4.1	1.03427E-001	-3.48878E-004	0.00000E+000	-1.04759E+000	0.00000E+000	9	...........	 0.00
	411	4.11	1.01238E-001	-3.48860E-004	0.00000E+000	-1.04759E+000	0.00000E+000	9	...........	 0.00
	412	4.12	9.90410E-002	-3.48949E-004	0.00000E+000	-1.04759E+000	0.00000E+000	9	...........	 0.00
	413	4.13	9.68420E-002	-3.49064E-004	0.00000E+000	-1.04759E+000	0.00000E+000	9	...........	 0.00
	414	4.14	9.46504E-002	-3.48997E-004	0.00000E+000	-1.04759E+000	0.00000E+000	9	...........	 0.00
	415	4.15	9.24539E-002	-3.48925E-004	0.00000E+000	-1.04759E+000	0.00000E+000	9	...........	 0.00
	416	4.16	9.02579E-002	-3.48904E-004	0.00000E+000	-1.04759E+000	0.00000E+000	9	...........	 0.00
	417	4.17	8.80553E-002	-3.48880E-004	0.00000E+000	-1.04759E+000	0.00000E+000	9	...........	 0.00
	418	4.18	8.58572E-002	-3.48876E-004	0.00000E+000	-1.04759E+000	0.00000E+000	9	...........	 0.00
	419	4.19	8.36564E-002	-3.48880E-004	0.00000E+000	-1.04759E+000	0.00000E+000	9	...........	 0.00
	420	4.2	8.14616E-002	-3.48879E-004	0.00000E+000	-1.04759E+000	0.00000E+000	9	...........	 0.00
	421	4.21	7.92562E-002	-3.48886E-004	0.00000E+000	-1.04759E+000	0.00000E+000	9	...........	 0.00
	422	4.22	7.70566E-002	-3.48883E-004	0.00000E+000	-1.04759E+000	0.00000E+000	9	...........	 0.00
	423	4.23	7.48540E-002	-3.48885E-004	0.00000E+000	-1.04759E+000	0.00000E+000	9	...........	 0.00
	424	4.24	7.26518E-002	-3.48912E-004	0.00000E+000	-1.04759E+000	0.00000E+000	9	...........	 0.00
	425	4.25	7.04477E-002	-3.48923E-004	0.00000E+000	-1.04759E+000	0.00000E+000	9	...........	 0.00
	426	4.26	6.82481E-002	-3.48905E-004	0.00000E+000	-1.04759E+000	0.00000E+000	9	...........	 0.00
	427	4.27	6.60451E-002	-3.48901E-004	0.00000E+000	-1.04759E+000	0.00000E+000	9	...........	 0.00
	428	4.28	6.38407E-002	-3.48900E-004	0.00000E+000	-1.04759E+000	0.00000E+000	9	...........	 0.00
	429	4.29	6.16393E-002	-3.48893E-004	0.00000E+000	-1.04759E+000	0.00000E+000	9	...........	 0.00
	430	4.3	5.94360E-002	-3.48882E-004	0.00000E+000	-1.04759E+000	0.00000E+000	9	...........	 0.00
	431	4.31	5.72313E-002	-3.48889E-004	0.00000E+000	-1.04759E+000	0.00000E+000	9	...........	 0.00
	432	4.32	5.50270E-002	-3.48891E-004	0.00000E+000	-1.04759E+000	0.00000E+000	9	...........	 0.00
	433	4.33	5.28250E-002	-3.48868E-004	0.00000E+000	-1.04759E+000	0.00000E+000	9	...........	 0.00
	434	4.34	5.06199E-002	-3.48868E-004	0.00000E+000	-1.04759E+000	0.00000E+000	9	...........	 0.00
	435	4.35	4.84117E-002	-3.49006E-004	0.00000E+000	-1.04759E+000	0.00000E+000	9	...........	 0.00
	436	4.36	4.62090E-002	-3.49042E-004	0.00000E+000	-1.04759E+000	0.00000E+000	9	...........	 0.00
	437	4.37	4.40057E-002	-3.48946E-004	0.00000E+000	-1.04759E+000	0.00000E+000	9	...........	 0.00
	438	4.38	4.17993E-002	-3.48914E-004	0.00000E+000	-1.04759E+000	0.00000E+000	9	...........	 0.00
	439	4.39	3.95971E-002	-3.48892E-004	0.00000E+000	-1.04759E+000	0.00000E+000	9	...........	 0.00
	440	4.4	3.73965E-002	-3.48872E-004	0.00000E+000	-1.04759E+000	0.00000E+000	9	...........	 0.00
	441	4.41	3.51930E-002	-3.48873E-004	0.00000E+000	-1.04759E+000	0.00000E+000	9	...........	 0.00
	442	4.42	3.29907E-002	-3.48873E-004	0.00000E+000	-1.04759E+000	0.00000E+000	9	...........	 0.00
	443	4.43	3.07877E-002	-3.48883E-004	0.00000E+000	-1.04759E+000	0.00000E+000	9	...........	 0.00
	444	4.44	2.85876E-002	-3.48894E-004	0.00000E+000	-1.04759E+000	0.00000E+000	9	...........	 0.00
	445	4.45	2.63863E-002	-3.48885E-004	0.00000E+000	-1.04759E+000	0.00000E+000	9	...........	 0.00
	446	4.46	2.41864E-002	-3.48901E-004	0.00000E+000	-1.04759E+000	0.00000E+000	9	...........	 0.00
	447	4.47	2.19688E-002	-3.48925E-004	0.00000E+000	-1.04759E+000	0.00000E+000	9	...........	 0.00
	448	4.48	1.97781E-002	-3.48928E-004	0.00000E+000	-1.04759E+000	0.00000E+000	9	...........	 0.00
	449	4.49	1.75915E-002	-3.48898E-004	0.00000E+000	-1.04759E+000	0.00000E+000	9	...........	 0.00
	450	4.5	1.54039E-002	-3.48855E-004	0.00000E+000	-1.04759E+000	0.00000E+000	9	...........	 0.00
	451	4.51	1.32173E-002	-3.48855E-004	0.00000E+000	-1.04759E+000	0.00000E+000	9	...........	 0.00
	452	4.52	1.10309E-002	-3.48939E-004	0.00000E+000	-1.04759E+000	0.00000E+000	9	...........	 0.00
	453	4.53	8.84947E-003	-3.48951E-004	0.00000E+000	-1.04759E+000	0.00000E+000	9	...........	 0.00
	454	4.54	6.67079E-003	-3.48957E-004	0.00000E+000	-1.04759E+000	0.00000E+000	9	...........	 0.00
	455	4.55	4.49710E-003	-3.48938E-004	0.00000E+000	-1.04759E+000	0.00000E+000	9	...........	 0.00
	456	4.56	2.32782E-003	-3.48919E-004	0.00000E+000	-1.04759E+000	0.00000E+000	9	...........	 0.00
	457	4.57	1.59644E-004	-3.48911E-004	0.00000E+000	-1.04759E+000	0.00000E+000	9	...........	 0.00
	458	4.58	-2.00313E-003	-3.48899E-004	0.00000E+000	-1.04759E+000	0.00000E+000	9	...........	 0.00
